timestamp,ecg_waveform
1631018753881,2044
1631018753885,2038
1631018753889,2032
1631018753893,2027
1631018753897,2026
1631018753901,2029
1631018753905,2032
1631018753909,2035
1631018753913,2035
1631018753917,2034
1631018753921,2033
1631018753925,2033
1631018753929,2034
1631018753933,2035
1631018753937,2035
1631018753941,2035
1631018753945,2034
1631018753949,2034
1631018753953,2034
1631018753957,2034
1631018753961,2034
1631018753965,2034
1631018753969,2034
1631018753973,2035
1631018753977,2035
1631018753981,2036
1631018753985,2036
1631018753989,2036
1631018753993,2035
1631018753997,2034
1631018754001,2034
1631018754005,2035
1631018754009,2036
1631018754013,2038
1631018754017,2039
1631018754021,2040
1631018754025,2040
1631018754029,2039
1631018754033,2038
1631018754037,2037
1631018754041,2037
1631018754045,2037
1631018754049,2037
1631018754053,2038
1631018754057,2040
1631018754061,2042
1631018754065,2043
1631018754069,2044
1631018754073,2046
1631018754077,2046
1631018754081,2046
1631018754085,2046
1631018754089,2046
1631018754093,2046
1631018754097,2047
1631018754101,2048
1631018754105,2050
1631018754109,2052
1631018754113,2053
1631018754117,2053
1631018754121,2053
1631018754125,2055
1631018754129,2058
1631018754133,2062
1631018754137,2066
1631018754141,2068
1631018754145,2069
1631018754149,2068
1631018754153,2068
1631018754157,2067
1631018754161,2066
1631018754165,2066
1631018754169,2066
1631018754173,2065
1631018754177,2065
1631018754181,2065
1631018754185,2065
1631018754189,2064
1631018754193,2063
1631018754197,2062
1631018754201,2061
1631018754205,2060
1631018754209,2060
1631018754213,2061
1631018754217,2061
1631018754221,2062
1631018754225,2063
1631018754229,2064
1631018754233,2064
1631018754237,2062
1631018754241,2060
1631018754245,2056
1631018754249,2052
1631018754253,2050
1631018754257,2056
1631018754261,2073
1631018754265,2098
1631018754269,2123
1631018754273,2136
1631018754277,2129
1631018754281,2103
1631018754285,2069
1631018754289,2040
1631018754293,2025
1631018754297,2025
1631018754301,2036
1631018754305,2048
1631018754309,2058
1631018754313,2063
1631018754317,2065
1631018754321,2065
1631018754325,2063
1631018754329,2061
1631018754333,2061
1631018754337,2062
1631018754341,2063
1631018754345,2064
1631018754349,2064
1631018754353,2064
1631018754357,2064
1631018754361,2064
1631018754365,2065
1631018754369,2065
1631018754373,2065
1631018754377,2065
1631018754381,2065
1631018754385,2067
1631018754389,2068
1631018754393,2070
1631018754397,2070
1631018754401,2070
1631018754405,2069
1631018754409,2069
1631018754413,2070
1631018754417,2071
1631018754421,2073
1631018754425,2075
1631018754429,2075
1631018754433,2075
1631018754437,2075
1631018754441,2075
1631018754445,2076
1631018754449,2076
1631018754453,2077
1631018754457,2078
1631018754461,2079
1631018754465,2080
1631018754469,2081
1631018754473,2083
1631018754477,2084
1631018754481,2086
1631018754485,2086
1631018754489,2085
1631018754493,2084
1631018754497,2084
1631018754501,2085
1631018754505,2087
1631018754509,2088
1631018754513,2089
1631018754517,2087
1631018754521,2083
1631018754525,2080
1631018754529,2078
1631018754533,2077
1631018754537,2076
1631018754541,2076
1631018754545,2075
1631018754549,2073
1631018754553,2072
1631018754557,2071
1631018754561,2070
1631018754565,2069
1631018754569,2067
1631018754573,2064
1631018754577,2061
1631018754581,2060
1631018754585,2060
1631018754589,2061
1631018754593,2061
1631018754597,2060
1631018754601,2059
1631018754605,2058
1631018754609,2058
1631018754613,2058
1631018754617,2059
1631018754621,2060
1631018754625,2061
1631018754629,2062
1631018754633,2061
1631018754637,2061
1631018754641,2061
1631018754645,2061
1631018754649,2062
1631018754653,2062
1631018754657,2062
1631018754661,2060
1631018754665,2059
1631018754669,2058
1631018754673,2057
1631018754677,2057
1631018754681,2057
1631018754685,2058
1631018754689,2058
1631018754693,2059
1631018754697,2060
1631018754701,2061
1631018754705,2061
1631018754709,2061
1631018754713,2059
1631018754717,2057
1631018754721,2055
1631018754725,2053
1631018754729,2051
1631018754733,2051
1631018754737,2052
1631018754741,2053
1631018754745,2054
1631018754749,2055
1631018754753,2055
1631018754757,2055
1631018754761,2054
1631018754765,2054
1631018754769,2053
1631018754773,2052
1631018754777,2051
1631018754781,2052
1631018754785,2052
1631018754789,2052
1631018754793,2053
1631018754797,2052
1631018754801,2052
1631018754805,2052
1631018754809,2052
1631018754813,2053
1631018754817,2053
1631018754821,2054
1631018754825,2053
1631018754829,2053
1631018754833,2052
1631018754837,2053
1631018754841,2056
1631018754845,2060
1631018754849,2064
1631018754853,2067
1631018754857,2066
1631018754861,2063
1631018754865,2060
1631018754869,2056
1631018754873,2054
1631018754877,2053
1631018754881,2052
1631018754885,2051
1631018754889,2050
1631018754893,2049
1631018754897,2049
1631018754901,2050
1631018754905,2051
1631018754909,2051
1631018754913,2051
1631018754917,2050
1631018754921,2050
1631018754925,2049
1631018754929,2048
1631018754933,2048
1631018754937,2047
1631018754941,2045
1631018754945,2044
1631018754949,2044
1631018754953,2044
1631018754957,2043
1631018754961,2041
1631018754965,2045
1631018754969,2058
1631018754973,2082
1631018754977,2108
1631018754981,2125
1631018754985,2123
1631018754989,2099
1631018754993,2064
1631018754997,2031
1631018755001,2012
1631018755005,2008
1631018755009,2016
1631018755013,2028
1631018755017,2037
1631018755021,2044
1631018755025,2048
1631018755029,2048
1631018755033,2049
1631018755037,2049
1631018755041,2049
1631018755045,2049
1631018755049,2050
1631018755053,2049
1631018755057,2050
1631018755061,2050
1631018755065,2051
1631018755069,2051
1631018755073,2051
1631018755077,2051
1631018755081,2051
1631018755085,2050
1631018755089,2050
1631018755093,2050
1631018755097,2051
1631018755101,2053
1631018755105,2055
1631018755109,2057
1631018755113,2058
1631018755117,2058
1631018755121,2058
1631018755125,2056
1631018755129,2055
1631018755133,2054
1631018755137,2055
1631018755141,2057
1631018755145,2060
1631018755149,2063
1631018755153,2065
1631018755157,2065
1631018755161,2065
1631018755165,2064
1631018755169,2064
1631018755173,2065
1631018755177,2066
1631018755181,2067
1631018755185,2069
1631018755189,2070
1631018755193,2071
1631018755197,2071
1631018755201,2072
1631018755205,2072
1631018755209,2073
1631018755213,2073
1631018755217,2072
1631018755221,2072
1631018755225,2070
1631018755229,2069
1631018755233,2068
1631018755237,2067
1631018755241,2067
1631018755245,2066
1631018755249,2065
1631018755253,2063
1631018755257,2061
1631018755261,2059
1631018755265,2058
1631018755269,2057
1631018755273,2057
1631018755277,2056
1631018755281,2055
1631018755285,2054
1631018755289,2052
1631018755293,2051
1631018755297,2051
1631018755301,2052
1631018755305,2052
1631018755309,2053
1631018755313,2054
1631018755317,2055
1631018755321,2056
1631018755325,2056
1631018755329,2055
1631018755333,2054
1631018755337,2054
1631018755341,2055
1631018755345,2057
1631018755349,2059
1631018755353,2061
1631018755357,2061
1631018755361,2060
1631018755365,2058
1631018755369,2056
1631018755373,2056
1631018755377,2056
1631018755381,2058
1631018755385,2059
1631018755389,2060
1631018755393,2060
1631018755397,2059
1631018755401,2058
1631018755405,2058
1631018755409,2057
1631018755413,2056
1631018755417,2056
1631018755421,2057
1631018755425,2058
1631018755429,2059
1631018755433,2059
1631018755437,2058
1631018755441,2056
1631018755445,2054
1631018755449,2054
1631018755453,2054
1631018755457,2055
1631018755461,2056
1631018755465,2056
1631018755469,2057
1631018755473,2057
1631018755477,2056
1631018755481,2056
1631018755485,2054
1631018755489,2052
1631018755493,2052
1631018755497,2052
1631018755501,2053
1631018755505,2055
1631018755509,2056
1631018755513,2057
1631018755517,2056
1631018755521,2055
1631018755525,2054
1631018755529,2053
1631018755533,2053
1631018755537,2055
1631018755541,2058
1631018755545,2062
1631018755549,2065
1631018755553,2067
1631018755557,2067
1631018755561,2066
1631018755565,2064
1631018755569,2063
1631018755573,2062
1631018755577,2060
1631018755581,2058
1631018755585,2056
1631018755589,2054
1631018755593,2052
1631018755597,2050
1631018755601,2050
1631018755605,2050
1631018755609,2050
1631018755613,2052
1631018755617,2053
1631018755621,2053
1631018755625,2052
1631018755629,2050
1631018755633,2048
1631018755637,2048
1631018755641,2050
1631018755645,2051
1631018755649,2052
1631018755653,2051
1631018755657,2048
1631018755661,2045
1631018755665,2046
1631018755669,2055
1631018755673,2077
1631018755677,2104
1631018755681,2126
1631018755685,2131
1631018755689,2113
1631018755693,2079
1631018755697,2044
1631018755701,2019
1631018755705,2010
1631018755709,2015
1631018755713,2028
1631018755717,2039
1631018755721,2047
1631018755725,2050
1631018755729,2051
1631018755733,2051
1631018755737,2050
1631018755741,2051
1631018755745,2052
1631018755749,2054
1631018755753,2055
1631018755757,2055
1631018755761,2054
1631018755765,2053
1631018755769,2052
1631018755773,2051
1631018755777,2052
1631018755781,2054
1631018755785,2056
1631018755789,2058
1631018755793,2058
1631018755797,2057
1631018755801,2056
1631018755805,2055
1631018755809,2055
1631018755813,2055
1631018755817,2055
1631018755821,2057
1631018755825,2058
1631018755829,2060
1631018755833,2061
1631018755837,2062
1631018755841,2062
1631018755845,2061
1631018755849,2061
1631018755853,2062
1631018755857,2064
1631018755861,2067
1631018755865,2069
1631018755869,2070
1631018755873,2071
1631018755877,2071
1631018755881,2072
1631018755885,2072
1631018755889,2073
1631018755893,2075
1631018755897,2076
1631018755901,2078
1631018755905,2078
1631018755909,2078
1631018755913,2078
1631018755917,2078
1631018755921,2077
1631018755925,2076
1631018755929,2073
1631018755933,2071
1631018755937,2069
1631018755941,2069
1631018755945,2068
1631018755949,2068
1631018755953,2066
1631018755957,2064
1631018755961,2062
1631018755965,2060
1631018755969,2058
1631018755973,2057
1631018755977,2056
1631018755981,2054
1631018755985,2053
1631018755989,2052
1631018755993,2052
1631018755997,2052
1631018756001,2052
1631018756005,2052
1631018756009,2052
1631018756013,2052
1631018756017,2051
1631018756021,2050
1631018756025,2050
1631018756029,2049
1631018756033,2049
1631018756037,2049
1631018756041,2050
1631018756045,2051
1631018756049,2052
1631018756053,2053
1631018756057,2054
1631018756061,2054
1631018756065,2054
1631018756069,2053
1631018756073,2053
1631018756077,2053
1631018756081,2054
1631018756085,2054
1631018756089,2053
1631018756093,2053
1631018756097,2052
1631018756101,2052
1631018756105,2052
1631018756109,2052
1631018756113,2052
1631018756117,2052
1631018756121,2052
1631018756125,2051
1631018756129,2050
1631018756133,2049
1631018756137,2048
1631018756141,2048
1631018756145,2049
1631018756149,2051
1631018756153,2052
1631018756157,2052
1631018756161,2050
1631018756165,2048
1631018756169,2047
1631018756173,2046
1631018756177,2047
1631018756181,2048
1631018756185,2048
1631018756189,2049
1631018756193,2048
1631018756197,2048
1631018756201,2048
1631018756205,2048
1631018756209,2049
1631018756213,2049
1631018756217,2048
1631018756221,2048
1631018756225,2047
1631018756229,2047
1631018756233,2048
1631018756237,2050
1631018756241,2052
1631018756245,2052
1631018756249,2052
1631018756253,2050
1631018756257,2050
1631018756261,2051
1631018756265,2053
1631018756269,2056
1631018756273,2059
1631018756277,2060
1631018756281,2061
1631018756285,2059
1631018756289,2057
1631018756293,2056
1631018756297,2056
1631018756301,2057
1631018756305,2057
1631018756309,2057
1631018756313,2055
1631018756317,2052
1631018756321,2050
1631018756325,2048
1631018756329,2048
1631018756333,2048
1631018756337,2048
1631018756341,2048
1631018756345,2048
1631018756349,2049
1631018756353,2049
1631018756357,2049
1631018756361,2049
1631018756365,2048
1631018756369,2048
1631018756373,2048
1631018756377,2048
1631018756381,2046
1631018756385,2043
1631018756389,2044
1631018756393,2053
1631018756397,2074
1631018756401,2102
1631018756405,2124
1631018756409,2129
1631018756413,2110
1631018756417,2075
1631018756421,2039
1631018756425,2013
1631018756429,2005
1631018756433,2012
1631018756437,2026
1631018756441,2038
1631018756445,2044
1631018756449,2048
1631018756453,2048
1631018756457,2048
1631018756461,2048
1631018756465,2048
1631018756469,2049
1631018756473,2050
1631018756477,2051
1631018756481,2050
1631018756485,2050
1631018756489,2049
1631018756493,2048
1631018756497,2048
1631018756501,2049
1631018756505,2051
1631018756509,2052
1631018756513,2053
1631018756517,2052
1631018756521,2051
1631018756525,2050
1631018756529,2050
1631018756533,2051
1631018756537,2053
1631018756541,2054
1631018756545,2055
1631018756549,2055
1631018756553,2055
1631018756557,2056
1631018756561,2056
1631018756565,2057
1631018756569,2057
1631018756573,2058
1631018756577,2059
1631018756581,2060
1631018756585,2061
1631018756589,2062
1631018756593,2064
1631018756597,2065
1631018756601,2066
1631018756605,2067
1631018756609,2067
1631018756613,2068
1631018756617,2069
1631018756621,2070
1631018756625,2071
1631018756629,2072
1631018756633,2073
1631018756637,2073
1631018756641,2073
1631018756645,2072
1631018756649,2070
1631018756653,2068
1631018756657,2067
1631018756661,2067
1631018756665,2067
1631018756669,2067
1631018756673,2065
1631018756677,2062
1631018756681,2059
1631018756685,2056
1631018756689,2054
1631018756693,2054
1631018756697,2054
1631018756701,2054
1631018756705,2053
1631018756709,2051
1631018756713,2049
1631018756717,2048
1631018756721,2047
1631018756725,2047
1631018756729,2047
1631018756733,2047
1631018756737,2047
1631018756741,2047
1631018756745,2047
1631018756749,2047
1631018756753,2047
1631018756757,2047
1631018756761,2047
1631018756765,2047
1631018756769,2048
1631018756773,2048
1631018756777,2048
1631018756781,2048
1631018756785,2048
1631018756789,2048
1631018756793,2048
1631018756797,2048
1631018756801,2048
1631018756805,2048
1631018756809,2048
1631018756813,2049
1631018756817,2050
1631018756821,2051
1631018756825,2051
1631018756829,2051
1631018756833,2050
1631018756837,2050
1631018756841,2050
1631018756845,2050
1631018756849,2050
1631018756853,2049
1631018756857,2048
1631018756861,2048
1631018756865,2048
1631018756869,2047
1631018756873,2047
1631018756877,2046
1631018756881,2046
1631018756885,2046
1631018756889,2045
1631018756893,2045
1631018756897,2046
1631018756901,2047
1631018756905,2048
1631018756909,2048
1631018756913,2048
1631018756917,2048
1631018756921,2048
1631018756925,2047
1631018756929,2046
1631018756933,2045
1631018756937,2045
1631018756941,2046
1631018756945,2047
1631018756949,2047
1631018756953,2047
1631018756957,2047
1631018756961,2046
1631018756965,2045
1631018756969,2045
1631018756973,2045
1631018756977,2045
1631018756981,2045
1631018756985,2045
1631018756989,2046
1631018756993,2047
1631018756997,2048
1631018757001,2048
1631018757005,2048
1631018757009,2048
1631018757013,2047
1631018757017,2046
1631018757021,2046
1631018757025,2046
1631018757029,2046
1631018757033,2046
1631018757037,2046
1631018757041,2046
1631018757045,2047
1631018757049,2048
1631018757053,2048
1631018757057,2047
1631018757061,2047
1631018757065,2048
1631018757069,2048
1631018757073,2050
1631018757077,2052
1631018757081,2053
1631018757085,2054
1631018757089,2057
1631018757093,2059
1631018757097,2061
1631018757101,2061
1631018757105,2060
1631018757109,2059
1631018757113,2057
1631018757117,2055
1631018757121,2054
1631018757125,2053
1631018757129,2051
1631018757133,2049
1631018757137,2048
1631018757141,2048
1631018757145,2048
1631018757149,2048
1631018757153,2048
1631018757157,2048
1631018757161,2048
1631018757165,2047
1631018757169,2047
1631018757173,2047
1631018757177,2047
1631018757181,2048
1631018757185,2048
1631018757189,2047
1631018757193,2045
1631018757197,2042
1631018757201,2038
1631018757205,2038
1631018757209,2048
1631018757213,2068
1631018757217,2096
1631018757221,2119
1631018757225,2126
1631018757229,2111
1631018757233,2078
1631018757237,2044
1631018757241,2018
1631018757245,2008
1631018757249,2013
1631018757253,2025
1631018757257,2036
1631018757261,2044
1631018757265,2048
1631018757269,2050
1631018757273,2050
1631018757277,2049
1631018757281,2048
1631018757285,2046
1631018757289,2046
1631018757293,2046
1631018757297,2047
1631018757301,2048
1631018757305,2049
1631018757309,2050
1631018757313,2050
1631018757317,2050
1631018757321,2051
1631018757325,2051
1631018757329,2051
1631018757333,2051
1631018757337,2050
1631018757341,2050
1631018757345,2050
1631018757349,2052
1631018757353,2053
1631018757357,2054
1631018757361,2054
1631018757365,2054
1631018757369,2053
1631018757373,2052
1631018757377,2052
1631018757381,2053
1631018757385,2056
1631018757389,2058
1631018757393,2059
1631018757397,2059
1631018757401,2060
1631018757405,2061
1631018757409,2062
1631018757413,2063
1631018757417,2064
1631018757421,2066
1631018757425,2067
1631018757429,2068
1631018757433,2069
1631018757437,2070
1631018757441,2071
1631018757445,2071
1631018757449,2071
1631018757453,2070
1631018757457,2069
1631018757461,2068
1631018757465,2068
1631018757469,2069
1631018757473,2069
1631018757477,2070
1631018757481,2069
1631018757485,2067
1631018757489,2064
1631018757493,2061
1631018757497,2059
1631018757501,2058
1631018757505,2057
1631018757509,2056
1631018757513,2055
1631018757517,2053
1631018757521,2053
1631018757525,2052
1631018757529,2051
1631018757533,2050
1631018757537,2048
1631018757541,2048
1631018757545,2047
1631018757549,2047
1631018757553,2047
1631018757557,2048
1631018757561,2048
1631018757565,2048
1631018757569,2048
1631018757573,2048
1631018757577,2048
1631018757581,2048
1631018757585,2049
1631018757589,2050
1631018757593,2051
1631018757597,2051
1631018757601,2051
1631018757605,2050
1631018757609,2050
1631018757613,2050
1631018757617,2050
1631018757621,2051
1631018757625,2052
1631018757629,2052
1631018757633,2052
1631018757637,2051
1631018757641,2049
1631018757645,2048
1631018757649,2048
1631018757653,2048
1631018757657,2049
1631018757661,2050
1631018757665,2051
1631018757669,2051
1631018757673,2051
1631018757677,2050
1631018757681,2050
1631018757685,2050
1631018757689,2049
1631018757693,2049
1631018757697,2048
1631018757701,2048
1631018757705,2048
1631018757709,2048
1631018757713,2049
1631018757717,2049
1631018757721,2048
1631018757725,2048
1631018757729,2047
1631018757733,2047
1631018757737,2047
1631018757741,2048
1631018757745,2048
1631018757749,2049
1631018757753,2049
1631018757757,2048
1631018757761,2048
1631018757765,2047
1631018757769,2047
1631018757773,2047
1631018757777,2047
1631018757781,2047
1631018757785,2048
1631018757789,2048
1631018757793,2048
1631018757797,2049
1631018757801,2048
1631018757805,2048
1631018757809,2046
1631018757813,2045
1631018757817,2046
1631018757821,2048
1631018757825,2049
1631018757829,2049
1631018757833,2048
1631018757837,2048
1631018757841,2047
1631018757845,2047
1631018757849,2047
1631018757853,2048
1631018757857,2048
1631018757861,2048
1631018757865,2048
1631018757869,2048
1631018757873,2048
1631018757877,2048
1631018757881,2048
1631018757885,2048
1631018757889,2048
1631018757893,2048
1631018757897,2047
1631018757901,2047
1631018757905,2048
1631018757909,2048
1631018757913,2049
1631018757917,2050
1631018757921,2049
1631018757925,2048
1631018757929,2048
1631018757933,2048
1631018757937,2048
1631018757941,2048
1631018757945,2048
1631018757949,2048
1631018757953,2048
1631018757957,2048
1631018757961,2047
1631018757965,2047
1631018757969,2048
1631018757973,2048
1631018757977,2048
1631018757981,2049
1631018757985,2050
1631018757989,2051
1631018757993,2052
1631018757997,2052
1631018758001,2053
1631018758005,2055
1631018758009,2057
1631018758013,2058
1631018758017,2060
1631018758021,2060
1631018758025,2059
1631018758029,2059
1631018758033,2058
1631018758037,2057
1631018758041,2055
1631018758045,2053
1631018758049,2051
1631018758053,2048
1631018758057,2047
1631018758061,2045
1631018758065,2045
1631018758069,2045
1631018758073,2047
1631018758077,2048
1631018758081,2048
1631018758085,2048
1631018758089,2047
1631018758093,2046
1631018758097,2046
1631018758101,2047
1631018758105,2048
1631018758109,2048
1631018758113,2045
1631018758117,2041
1631018758121,2043
1631018758125,2054
1631018758129,2076
1631018758133,2102
1631018758137,2120
1631018758141,2119
1631018758145,2098
1631018758149,2064
1631018758153,2033
1631018758157,2014
1631018758161,2010
1631018758165,2019
1631018758169,2031
1631018758173,2039
1631018758177,2044
1631018758181,2047
1631018758185,2048
1631018758189,2048
1631018758193,2048
1631018758197,2048
1631018758201,2048
1631018758205,2048
1631018758209,2048
1631018758213,2048
1631018758217,2048
1631018758221,2049
1631018758225,2050
1631018758229,2051
1631018758233,2051
1631018758237,2051
1631018758241,2051
1631018758245,2050
1631018758249,2049
1631018758253,2049
1631018758257,2049
1631018758261,2049
1631018758265,2050
1631018758269,2050
1631018758273,2050
1631018758277,2050
1631018758281,2050
1631018758285,2051
1631018758289,2053
1631018758293,2054
1631018758297,2054
1631018758301,2055
1631018758305,2055
1631018758309,2055
1631018758313,2056
1631018758317,2057
1631018758321,2058
1631018758325,2059
1631018758329,2061
1631018758333,2062
1631018758337,2063
1631018758341,2065
1631018758345,2066
1631018758349,2067
1631018758353,2068
1631018758357,2068
1631018758361,2068
1631018758365,2068
1631018758369,2067
1631018758373,2067
1631018758377,2066
1631018758381,2066
1631018758385,2065
1631018758389,2065
1631018758393,2064
1631018758397,2062
1631018758401,2061
1631018758405,2060
1631018758409,2059
1631018758413,2058
1631018758417,2056
1631018758421,2055
1631018758425,2054
1631018758429,2053
1631018758433,2052
1631018758437,2050
1631018758441,2050
1631018758445,2049
1631018758449,2048
1631018758453,2048
1631018758457,2048
1631018758461,2048
1631018758465,2048
1631018758469,2047
1631018758473,2047
1631018758477,2047
1631018758481,2047
1631018758485,2047
1631018758489,2048
1631018758493,2048
1631018758497,2048
1631018758501,2049
1631018758505,2049
1631018758509,2049
1631018758513,2050
1631018758517,2049
1631018758521,2049
1631018758525,2048
1631018758529,2047
1631018758533,2047
1631018758537,2048
1631018758541,2049
1631018758545,2051
1631018758549,2053
1631018758553,2052
1631018758557,2049
1631018758561,2047
1631018758565,2045
1631018758569,2045
1631018758573,2047
1631018758577,2048
1631018758581,2049
1631018758585,2050
1631018758589,2050
1631018758593,2050
1631018758597,2049
1631018758601,2049
1631018758605,2048
1631018758609,2048
1631018758613,2048
1631018758617,2048
1631018758621,2048
1631018758625,2047
1631018758629,2047
1631018758633,2046
1631018758637,2046
1631018758641,2047
1631018758645,2048
1631018758649,2048
1631018758653,2048
1631018758657,2046
1631018758661,2045
1631018758665,2045
1631018758669,2046
1631018758673,2046
1631018758677,2047
1631018758681,2047
1631018758685,2047
1631018758689,2047
1631018758693,2048
1631018758697,2048
1631018758701,2048
1631018758705,2048
1631018758709,2048
1631018758713,2048
1631018758717,2048
1631018758721,2048
1631018758725,2047
1631018758729,2047
1631018758733,2046
1631018758737,2046
1631018758741,2046
1631018758745,2046
1631018758749,2046
1631018758753,2048
1631018758757,2048
1631018758761,2048
1631018758765,2048
1631018758769,2048
1631018758773,2048
1631018758777,2048
1631018758781,2049
1631018758785,2050
1631018758789,2050
1631018758793,2050
1631018758797,2049
1631018758801,2049
1631018758805,2049
1631018758809,2048
1631018758813,2048
1631018758817,2048
1631018758821,2048
1631018758825,2049
1631018758829,2050
1631018758833,2051
1631018758837,2050
1631018758841,2048
1631018758845,2048
1631018758849,2048
1631018758853,2049
1631018758857,2051
1631018758861,2053
1631018758865,2054
1631018758869,2054
1631018758873,2053
1631018758877,2054
1631018758881,2055
1631018758885,2058
1631018758889,2061
1631018758893,2062
1631018758897,2062
1631018758901,2061
1631018758905,2061
1631018758909,2060
1631018758913,2060
1631018758917,2059
1631018758921,2057
1631018758925,2055
1631018758929,2052
1631018758933,2050
1631018758937,2049
1631018758941,2050
1631018758945,2051
1631018758949,2052
1631018758953,2052
1631018758957,2051
1631018758961,2049
1631018758965,2048
1631018758969,2047
1631018758973,2048
1631018758977,2049
1631018758981,2050
1631018758985,2051
1631018758989,2050
1631018758993,2047
1631018758997,2043
1631018759001,2044
1631018759005,2055
1631018759009,2078
1631018759013,2104
1631018759017,2121
1631018759021,2119
1631018759025,2098
1631018759029,2065
1631018759033,2035
1631018759037,2017
1631018759041,2014
1631018759045,2021
1631018759049,2032
1631018759053,2040
1631018759057,2046
1631018759061,2049
1631018759065,2050
1631018759069,2050
1631018759073,2049
1631018759077,2048
1631018759081,2049
1631018759085,2050
1631018759089,2052
1631018759093,2053
1631018759097,2053
1631018759101,2053
1631018759105,2053
1631018759109,2053
1631018759113,2053
1631018759117,2053
1631018759121,2054
1631018759125,2054
1631018759129,2054
1631018759133,2054
1631018759137,2053
1631018759141,2053
1631018759145,2054
1631018759149,2055
1631018759153,2057
1631018759157,2058
1631018759161,2060
1631018759165,2060
1631018759169,2060
1631018759173,2059
1631018759177,2058
1631018759181,2059
1631018759185,2059
1631018759189,2060
1631018759193,2062
1631018759197,2064
1631018759201,2065
1631018759205,2066
1631018759209,2067
1631018759213,2068
1631018759217,2069
1631018759221,2071
1631018759225,2071
1631018759229,2071
1631018759233,2071
1631018759237,2069
1631018759241,2069
1631018759245,2069
1631018759249,2071
1631018759253,2072
1631018759257,2072
1631018759261,2072
1631018759265,2072
1631018759269,2071
1631018759273,2070
1631018759277,2068
1631018759281,2066
1631018759285,2063
1631018759289,2061
1631018759293,2060
1631018759297,2060
1631018759301,2060
1631018759305,2060
1631018759309,2059
1631018759313,2057
1631018759317,2056
1631018759321,2054
1631018759325,2053
1631018759329,2052
1631018759333,2050
1631018759337,2049
1631018759341,2048
1631018759345,2048
1631018759349,2049
1631018759353,2051
1631018759357,2051
1631018759361,2051
1631018759365,2051
1631018759369,2050
1631018759373,2050
1631018759377,2050
1631018759381,2052
1631018759385,2053
1631018759389,2054
1631018759393,2055
1631018759397,2054
1631018759401,2053
1631018759405,2052
1631018759409,2052
1631018759413,2053
1631018759417,2054
1631018759421,2055
1631018759425,2054
1631018759429,2053
1631018759433,2052
1631018759437,2051
1631018759441,2051
1631018759445,2051
1631018759449,2051
1631018759453,2051
1631018759457,2052
1631018759461,2053
1631018759465,2053
1631018759469,2053
1631018759473,2053
1631018759477,2052
1631018759481,2051
1631018759485,2050
1631018759489,2049
1631018759493,2048
1631018759497,2049
1631018759501,2051
1631018759505,2053
1631018759509,2054
1631018759513,2054
1631018759517,2052
1631018759521,2049
1631018759525,2048
1631018759529,2048
1631018759533,2049
1631018759537,2050
1631018759541,2051
1631018759545,2051
1631018759549,2051
1631018759553,2051
1631018759557,2050
1631018759561,2050
1631018759565,2049
1631018759569,2048
1631018759573,2048
1631018759577,2048
1631018759581,2050
1631018759585,2051
1631018759589,2051
1631018759593,2050
1631018759597,2050
1631018759601,2049
1631018759605,2049
1631018759609,2049
1631018759613,2050
1631018759617,2051
1631018759621,2051
1631018759625,2052
1631018759629,2052
1631018759633,2051
1631018759637,2050
1631018759641,2048
1631018759645,2048
1631018759649,2048
1631018759653,2048
1631018759657,2048
1631018759661,2050
1631018759665,2053
1631018759669,2055
1631018759673,2056
1631018759677,2056
1631018759681,2057
1631018759685,2058
1631018759689,2059
1631018759693,2061
1631018759697,2062
1631018759701,2062
1631018759705,2061
1631018759709,2060
1631018759713,2059
1631018759717,2058
1631018759721,2058
1631018759725,2056
1631018759729,2054
1631018759733,2051
1631018759737,2049
1631018759741,2048
1631018759745,2048
1631018759749,2049
1631018759753,2050
1631018759757,2050
1631018759761,2049
1631018759765,2049
1631018759769,2048
1631018759773,2048
1631018759777,2049
1631018759781,2049
1631018759785,2049
1631018759789,2048
1631018759793,2046
1631018759797,2043
1631018759801,2042
1631018759805,2050
1631018759809,2071
1631018759813,2098
1631018759817,2121
1631018759821,2129
1631018759825,2114
1631018759829,2082
1631018759833,2047
1631018759837,2019
1631018759841,2008
1631018759845,2011
1631018759849,2022
1631018759853,2034
1631018759857,2042
1631018759861,2048
1631018759865,2049
1631018759869,2050
1631018759873,2049
1631018759877,2049
1631018759881,2048
1631018759885,2048
1631018759889,2048
1631018759893,2048
1631018759897,2048
1631018759901,2048
1631018759905,2048
1631018759909,2048
1631018759913,2049
1631018759917,2049
1631018759921,2049
1631018759925,2049
1631018759929,2050
1631018759933,2050
1631018759937,2051
1631018759941,2053
1631018759945,2054
1631018759949,2054
1631018759953,2055
1631018759957,2054
1631018759961,2054
1631018759965,2054
1631018759969,2054
1631018759973,2055
1631018759977,2056
1631018759981,2057
1631018759985,2057
1631018759989,2058
1631018759993,2058
1631018759997,2058
1631018760001,2059
1631018760005,2060
1631018760009,2062
1631018760013,2064
1631018760017,2066
1631018760021,2068
1631018760025,2069
1631018760029,2070
1631018760033,2070
1631018760037,2070
1631018760041,2071
1631018760045,2071
1631018760049,2072
1631018760053,2071
1631018760057,2069
1631018760061,2068
1631018760065,2067
1631018760069,2067
1631018760073,2067
1631018760077,2066
1631018760081,2065
1631018760085,2063
1631018760089,2060
1631018760093,2058
1631018760097,2057
1631018760101,2056
1631018760105,2055
1631018760109,2054
1631018760113,2052
1631018760117,2050
1631018760121,2048
1631018760125,2048
1631018760129,2048
1631018760133,2048
1631018760137,2048
1631018760141,2048
1631018760145,2048
1631018760149,2048
1631018760153,2047
1631018760157,2046
1631018760161,2046
1631018760165,2046
1631018760169,2047
1631018760173,2048
1631018760177,2048
1631018760181,2048
1631018760185,2049
1631018760189,2049
1631018760193,2049
1631018760197,2049
1631018760201,2049
1631018760205,2048
1631018760209,2048
1631018760213,2048
1631018760217,2048
1631018760221,2049
1631018760225,2049
1631018760229,2049
1631018760233,2049
1631018760237,2049
1631018760241,2049
1631018760245,2050
1631018760249,2050
1631018760253,2050
1631018760257,2050
1631018760261,2049
1631018760265,2049
1631018760269,2048
1631018760273,2048
1631018760277,2048
1631018760281,2048
1631018760285,2048
1631018760289,2048
1631018760293,2048
1631018760297,2048
1631018760301,2048
1631018760305,2048
1631018760309,2048
1631018760313,2048
1631018760317,2048
1631018760321,2048
1631018760325,2048
1631018760329,2048
1631018760333,2048
1631018760337,2047
1631018760341,2046
1631018760345,2045
1631018760349,2046
1631018760353,2047
1631018760357,2048
1631018760361,2048
1631018760365,2049
1631018760369,2048
1631018760373,2048
1631018760377,2047
1631018760381,2047
1631018760385,2048
1631018760389,2048
1631018760393,2049
1631018760397,2049
1631018760401,2049
1631018760405,2048
1631018760409,2048
1631018760413,2048
1631018760417,2048
1631018760421,2049
1631018760425,2050
1631018760429,2051
1631018760433,2053
1631018760437,2054
1631018760441,2055
1631018760445,2057
1631018760449,2059
1631018760453,2060
1631018760457,2060
1631018760461,2060
1631018760465,2059
1631018760469,2058
1631018760473,2058
1631018760477,2057
1631018760481,2055
1631018760485,2052
1631018760489,2050
1631018760493,2048
1631018760497,2047
1631018760501,2048
1631018760505,2048
1631018760509,2048
1631018760513,2048
1631018760517,2048
1631018760521,2047
1631018760525,2046
1631018760529,2046
1631018760533,2046
1631018760537,2047
1631018760541,2047
1631018760545,2046
1631018760549,2045
1631018760553,2042
1631018760557,2039
1631018760561,2040
1631018760565,2050
1631018760569,2073
1631018760573,2100
1631018760577,2121
1631018760581,2124
1631018760585,2106
1631018760589,2072
1631018760593,2038
1631018760597,2015
1631018760601,2008
1631018760605,2015
1631018760609,2028
1631018760613,2038
1631018760617,2044
1631018760621,2048
1631018760625,2049
1631018760629,2050
1631018760633,2050
1631018760637,2049
1631018760641,2048
1631018760645,2048
1631018760649,2048
1631018760653,2048
1631018760657,2048
1631018760661,2049
1631018760665,2050
1631018760669,2051
1631018760673,2052
1631018760677,2052
1631018760681,2052
1631018760685,2050
1631018760689,2049
1631018760693,2049
1631018760697,2049
1631018760701,2050
1631018760705,2052
1631018760709,2053
1631018760713,2053
1631018760717,2055
1631018760721,2055
1631018760725,2055
1631018760729,2056
1631018760733,2056
1631018760737,2056
1631018760741,2058
1631018760745,2060
1631018760749,2061
1631018760753,2062
1631018760757,2062
1631018760761,2062
1631018760765,2062
1631018760769,2064
1631018760773,2066
1631018760777,2067
1631018760781,2068
1631018760785,2068
1631018760789,2068
1631018760793,2068
1631018760797,2070
1631018760801,2071
1631018760805,2072
1631018760809,2073
1631018760813,2074
1631018760817,2073
1631018760821,2072
1631018760825,2071
1631018760829,2069
1631018760833,2068
1631018760837,2066
1631018760841,2064
1631018760845,2062
1631018760849,2060
1631018760853,2059
1631018760857,2058
1631018760861,2057
1631018760865,2056
1631018760869,2055
1631018760873,2053
1631018760877,2052
1631018760881,2051
1631018760885,2050
1631018760889,2048
1631018760893,2048
1631018760897,2047
1631018760901,2047
1631018760905,2048
1631018760909,2048
1631018760913,2048
1631018760917,2048
1631018760921,2047
1631018760925,2047
1631018760929,2047
1631018760933,2048
1631018760937,2048
1631018760941,2049
1631018760945,2050
1631018760949,2050
1631018760953,2050
1631018760957,2049
1631018760961,2049
1631018760965,2048
1631018760969,2048
1631018760973,2048
1631018760977,2048
1631018760981,2048
1631018760985,2048
1631018760989,2048
1631018760993,2048
1631018760997,2049
1631018761001,2050
1631018761005,2051
1631018761009,2051
1631018761013,2051
1631018761017,2050
1631018761021,2050
1631018761025,2050
1631018761029,2050
1631018761033,2050
1631018761037,2049
1631018761041,2049
1631018761045,2048
1631018761049,2048
1631018761053,2048
1631018761057,2048
1631018761061,2048
1631018761065,2046
1631018761069,2045
1631018761073,2044
1631018761077,2046
1631018761081,2048
1631018761085,2049
1631018761089,2049
1631018761093,2049
1631018761097,2048
1631018761101,2048
1631018761105,2047
1631018761109,2048
1631018761113,2048
1631018761117,2048
1631018761121,2048
1631018761125,2047
1631018761129,2046
1631018761133,2046
1631018761137,2047
1631018761141,2048
1631018761145,2050
1631018761149,2052
1631018761153,2053
1631018761157,2052
1631018761161,2052
1631018761165,2052
1631018761169,2053
1631018761173,2056
1631018761177,2059
1631018761181,2061
1631018761185,2061
1631018761189,2060
1631018761193,2057
1631018761197,2055
1631018761201,2054
1631018761205,2053
1631018761209,2052
1631018761213,2050
1631018761217,2048
1631018761221,2047
1631018761225,2045
1631018761229,2044
1631018761233,2044
1631018761237,2044
1631018761241,2045
1631018761245,2045
1631018761249,2044
1631018761253,2044
1631018761257,2043
1631018761261,2042
1631018761265,2043
1631018761269,2043
1631018761273,2043
1631018761277,2043
1631018761281,2041
1631018761285,2038
1631018761289,2040
1631018761293,2051
1631018761297,2072
1631018761301,2096
1631018761305,2113
1631018761309,2113
1631018761313,2093
1631018761317,2060
1631018761321,2029
1631018761325,2008
1631018761329,2003
1631018761333,2010
1631018761337,2023
1631018761341,2034
1631018761345,2041
1631018761349,2044
1631018761353,2045
1631018761357,2045
1631018761361,2044
1631018761365,2043
1631018761369,2042
1631018761373,2042
1631018761377,2042
1631018761381,2042
1631018761385,2043
1631018761389,2044
1631018761393,2045
1631018761397,2045
1631018761401,2046
1631018761405,2046
1631018761409,2047
1631018761413,2048
1631018761417,2048
1631018761421,2048
1631018761425,2048
1631018761429,2048
1631018761433,2048
1631018761437,2048
1631018761441,2050
1631018761445,2051
1631018761449,2052
1631018761453,2051
1631018761457,2050
1631018761461,2050
1631018761465,2050
1631018761469,2052
1631018761473,2053
1631018761477,2055
1631018761481,2056
1631018761485,2057
1631018761489,2058
1631018761493,2058
1631018761497,2058
1631018761501,2058
1631018761505,2059
1631018761509,2060
1631018761513,2062
1631018761517,2063
1631018761521,2065
1631018761525,2066
1631018761529,2067
1631018761533,2069
1631018761537,2070
1631018761541,2070
1631018761545,2070
1631018761549,2069
1631018761553,2068
1631018761557,2067
1631018761561,2067
1631018761565,2066
1631018761569,2063
1631018761573,2059
1631018761577,2055
1631018761581,2053
1631018761585,2052
1631018761589,2053
1631018761593,2053
1631018761597,2051
1631018761601,2048
1631018761605,2044
1631018761609,2042
1631018761613,2041
1631018761617,2042
1631018761621,2042
1631018761625,2043
1631018761629,2043
1631018761633,2043
1631018761637,2042
1631018761641,2040
1631018761645,2039
1631018761649,2037
1631018761653,2038
1631018761657,2040
1631018761661,2043
1631018761665,2046
1631018761669,2046
1631018761673,2046
1631018761677,2044
1631018761681,2042
1631018761685,2041
1631018761689,2042
1631018761693,2043
1631018761697,2045
1631018761701,2046
1631018761705,2046
1631018761709,2045
1631018761713,2044
1631018761717,2043
1631018761721,2043
1631018761725,2044
1631018761729,2046
1631018761733,2047
1631018761737,2047
1631018761741,2046
1631018761745,2045
1631018761749,2043
1631018761753,2043
1631018761757,2044
1631018761761,2046
1631018761765,2047
1631018761769,2048
1631018761773,2047
1631018761777,2046
1631018761781,2045
1631018761785,2044
1631018761789,2045
1631018761793,2046
1631018761797,2048
1631018761801,2050
1631018761805,2051
1631018761809,2051
1631018761813,2050
1631018761817,2048
1631018761821,2048
1631018761825,2047
1631018761829,2048
1631018761833,2048
1631018761837,2049
1631018761841,2050
1631018761845,2050
1631018761849,2049
1631018761853,2050
1631018761857,2050
1631018761861,2051
1631018761865,2052
1631018761869,2053
1631018761873,2055
1631018761877,2056
1631018761881,2057
1631018761885,2058
1631018761889,2059
1631018761893,2059
1631018761897,2060
1631018761901,2059
1631018761905,2058
1631018761909,2056
1631018761913,2054
1631018761917,2051
1631018761921,2049
1631018761925,2048
1631018761929,2047
1631018761933,2047
1631018761937,2047
1631018761941,2048
1631018761945,2049
1631018761949,2049
1631018761953,2048
1631018761957,2046
1631018761961,2043
1631018761965,2041
1631018761969,2042
1631018761973,2044
1631018761977,2046
1631018761981,2046
1631018761985,2044
1631018761989,2041
1631018761993,2043
1631018761997,2055
1631018762001,2078
1631018762005,2103
1631018762009,2118
1631018762013,2116
1631018762017,2094
1631018762021,2062
1631018762025,2033
1631018762029,2014
1631018762033,2009
1631018762037,2015
1631018762041,2025
1631018762045,2032
1631018762049,2038
1631018762053,2044
1631018762057,2047
1631018762061,2048
1631018762065,2048
1631018762069,2048
1631018762073,2048
1631018762077,2047
1631018762081,2047
1631018762085,2047
1631018762089,2047
1631018762093,2048
1631018762097,2048
1631018762101,2049
1631018762105,2050
1631018762109,2051
1631018762113,2052
1631018762117,2053
1631018762121,2052
1631018762125,2050
1631018762129,2049
1631018762133,2049
1631018762137,2050
1631018762141,2051
1631018762145,2052
1631018762149,2052
1631018762153,2052
1631018762157,2053
1631018762161,2054
1631018762165,2054
1631018762169,2054
1631018762173,2054
1631018762177,2054
1631018762181,2055
1631018762185,2056
1631018762189,2057
1631018762193,2058
1631018762197,2058
1631018762201,2059
1631018762205,2059
1631018762209,2059
1631018762213,2059
1631018762217,2060
1631018762221,2062
1631018762225,2063
1631018762229,2064
1631018762233,2064
1631018762237,2063
1631018762241,2062
1631018762245,2060
1631018762249,2059
1631018762253,2058
1631018762257,2057
1631018762261,2056
1631018762265,2056
1631018762269,2056
1631018762273,2056
1631018762277,2055
1631018762281,2054
1631018762285,2051
1631018762289,2048
1631018762293,2047
1631018762297,2047
1631018762301,2048
1631018762305,2048
1631018762309,2050
1631018762313,2050
1631018762317,2049
1631018762321,2048
1631018762325,2047
1631018762329,2046
1631018762333,2045
1631018762337,2045
1631018762341,2046
1631018762345,2047
1631018762349,2048
1631018762353,2048
1631018762357,2047
1631018762361,2046
1631018762365,2046
1631018762369,2048
1631018762373,2050
1631018762377,2053
1631018762381,2055
1631018762385,2055
1631018762389,2054
1631018762393,2053
1631018762397,2053
1631018762401,2054
1631018762405,2055
1631018762409,2056
1631018762413,2056
1631018762417,2055
1631018762421,2054
1631018762425,2053
1631018762429,2052
1631018762433,2053
1631018762437,2054
1631018762441,2054
1631018762445,2054
1631018762449,2054
1631018762453,2053
1631018762457,2052
1631018762461,2053
1631018762465,2055
1631018762469,2056
1631018762473,2056
1631018762477,2054
1631018762481,2053
1631018762485,2052
1631018762489,2052
1631018762493,2053
1631018762497,2055
1631018762501,2055
1631018762505,2055
1631018762509,2054
1631018762513,2053
1631018762517,2053
1631018762521,2053
1631018762525,2054
1631018762529,2055
1631018762533,2056
1631018762537,2056
1631018762541,2056
1631018762545,2056
1631018762549,2056
1631018762553,2058
1631018762557,2060
1631018762561,2062
1631018762565,2064
1631018762569,2066
1631018762573,2066
1631018762577,2066
1631018762581,2065
1631018762585,2064
1631018762589,2063
1631018762593,2062
1631018762597,2060
1631018762601,2058
1631018762605,2056
1631018762609,2054
1631018762613,2052
1631018762617,2051
1631018762621,2051
1631018762625,2051
1631018762629,2051
1631018762633,2051
1631018762637,2049
1631018762641,2048
1631018762645,2047
1631018762649,2048
1631018762653,2048
1631018762657,2049
1631018762661,2050
1631018762665,2049
1631018762669,2048
1631018762673,2045
1631018762677,2041
1631018762681,2044
1631018762685,2056
1631018762689,2079
1631018762693,2105
1631018762697,2122
1631018762701,2120
1631018762705,2097
1631018762709,2062
1631018762713,2030
1631018762717,2010
1631018762721,2007
1631018762725,2015
1631018762729,2028
1631018762733,2038
1631018762737,2044
1631018762741,2047
1631018762745,2048
1631018762749,2048
1631018762753,2047
1631018762757,2047
1631018762761,2046
1631018762765,2046
1631018762769,2045
1631018762773,2046
1631018762777,2046
1631018762781,2047
1631018762785,2047
1631018762789,2047
1631018762793,2048
1631018762797,2047
1631018762801,2047
1631018762805,2047
1631018762809,2047
1631018762813,2047
1631018762817,2047
1631018762821,2047
1631018762825,2048
1631018762829,2048
1631018762833,2049
1631018762837,2049
1631018762841,2049
1631018762845,2048
1631018762849,2048
1631018762853,2048
1631018762857,2048
1631018762861,2050
1631018762865,2053
1631018762869,2055
1631018762873,2056
1631018762877,2056
1631018762881,2057
1631018762885,2057
1631018762889,2056
1631018762893,2057
1631018762897,2058
1631018762901,2059
1631018762905,2061
1631018762909,2062
1631018762913,2063
1631018762917,2064
1631018762921,2064
1631018762925,2063
1631018762929,2062
1631018762933,2061
1631018762937,2060
1631018762941,2060
1631018762945,2060
1631018762949,2061
1631018762953,2060
1631018762957,2059
1631018762961,2056
1631018762965,2053
1631018762969,2050
1631018762973,2048
1631018762977,2048
1631018762981,2048
1631018762985,2047
1631018762989,2046
1631018762993,2045
1631018762997,2044
1631018763001,2043
1631018763005,2043
1631018763009,2042
1631018763013,2041
1631018763017,2040
1631018763021,2040
1631018763025,2040
1631018763029,2042
1631018763033,2043
1631018763037,2043
1631018763041,2043
1631018763045,2042
1631018763049,2042
1631018763053,2044
1631018763057,2045
1631018763061,2046
1631018763065,2046
1631018763069,2046
1631018763073,2045
1631018763077,2046
1631018763081,2047
1631018763085,2048
1631018763089,2048
1631018763093,2049
1631018763097,2049
1631018763101,2048
1631018763105,2048
1631018763109,2048
1631018763113,2047
1631018763117,2048
1631018763121,2048
1631018763125,2048
1631018763129,2048
1631018763133,2047
1631018763137,2048
1631018763141,2048
1631018763145,2049
1631018763149,2050
1631018763153,2050
1631018763157,2048
1631018763161,2048
1631018763165,2047
1631018763169,2046
1631018763173,2047
1631018763177,2047
1631018763181,2048
1631018763185,2049
1631018763189,2049
1631018763193,2048
1631018763197,2047
1631018763201,2045
1631018763205,2044
1631018763209,2044
1631018763213,2046
1631018763217,2048
1631018763221,2049
1631018763225,2049
1631018763229,2048
1631018763233,2048
1631018763237,2048
1631018763241,2050
1631018763245,2053
1631018763249,2056
1631018763253,2058
1631018763257,2060
1631018763261,2060
1631018763265,2060
1631018763269,2059
1631018763273,2057
1631018763277,2055
1631018763281,2053
1631018763285,2050
1631018763289,2048
1631018763293,2047
1631018763297,2045
1631018763301,2045
1631018763305,2045
1631018763309,2045
1631018763313,2045
1631018763317,2045
1631018763321,2044
1631018763325,2044
1631018763329,2043
1631018763333,2043
1631018763337,2043
1631018763341,2043
1631018763345,2043
1631018763349,2042
1631018763353,2041
1631018763357,2039
1631018763361,2036
1631018763365,2038
1631018763369,2048
1631018763373,2070
1631018763377,2095
1631018763381,2114
1631018763385,2115
1631018763389,2096
1631018763393,2063
1631018763397,2031
1631018763401,2010
1631018763405,2006
1631018763409,2015
1631018763413,2029
1631018763417,2039
1631018763421,2045
1631018763425,2047
1631018763429,2046
1631018763433,2045
1631018763437,2044
1631018763441,2044
1631018763445,2045
1631018763449,2046
1631018763453,2046
1631018763457,2046
1631018763461,2047
1631018763465,2047
1631018763469,2047
1631018763473,2048
1631018763477,2048
1631018763481,2048
1631018763485,2048
1631018763489,2048
1631018763493,2048
1631018763497,2048
1631018763501,2048
1631018763505,2049
1631018763509,2050
1631018763513,2051
1631018763517,2051
1631018763521,2052
1631018763525,2052
1631018763529,2052
1631018763533,2053
1631018763537,2053
1631018763541,2054
1631018763545,2054
1631018763549,2055
1631018763553,2056
1631018763557,2058
1631018763561,2060
1631018763565,2061
1631018763569,2062
1631018763573,2062
1631018763577,2062
1631018763581,2063
1631018763585,2065
1631018763589,2067
1631018763593,2070
1631018763597,2071
1631018763601,2071
1631018763605,2070
1631018763609,2068
1631018763613,2066
1631018763617,2064
1631018763621,2064
1631018763625,2065
1631018763629,2066
1631018763633,2066
1631018763637,2064
1631018763641,2061
1631018763645,2058
1631018763649,2056
1631018763653,2055
1631018763657,2055
1631018763661,2056
1631018763665,2056
1631018763669,2056
1631018763673,2054
1631018763677,2051
1631018763681,2048
1631018763685,2047
1631018763689,2046
1631018763693,2046
1631018763697,2046
1631018763701,2047
1631018763705,2047
1631018763709,2047
1631018763713,2047
1631018763717,2047
1631018763721,2046
1631018763725,2045
1631018763729,2045
1631018763733,2046
1631018763737,2047
1631018763741,2048
1631018763745,2048
1631018763749,2049
1631018763753,2050
1631018763757,2050
1631018763761,2050
1631018763765,2049
1631018763769,2049
1631018763773,2050
1631018763777,2050
1631018763781,2051
1631018763785,2051
1631018763789,2051
1631018763793,2050
1631018763797,2049
1631018763801,2049
1631018763805,2049
1631018763809,2050
1631018763813,2050
1631018763817,2050
1631018763821,2050
1631018763825,2050
1631018763829,2049
1631018763833,2049
1631018763837,2049
1631018763841,2049
1631018763845,2049
1631018763849,2050
1631018763853,2049
1631018763857,2049
1631018763861,2049
1631018763865,2050
1631018763869,2050
1631018763873,2050
1631018763877,2049
1631018763881,2048
1631018763885,2048
1631018763889,2048
1631018763893,2048
1631018763897,2050
1631018763901,2051
1631018763905,2052
1631018763909,2052
1631018763913,2053
1631018763917,2053
1631018763921,2053
1631018763925,2053
1631018763929,2053
1631018763933,2054
1631018763937,2057
1631018763941,2060
1631018763945,2063
1631018763949,2065
1631018763953,2064
1631018763957,2062
1631018763961,2059
1631018763965,2057
1631018763969,2055
1631018763973,2054
1631018763977,2053
1631018763981,2051
1631018763985,2050
1631018763989,2048
1631018763993,2048
1631018763997,2048
1631018764001,2048
1631018764005,2048
1631018764009,2047
1631018764013,2046
1631018764017,2045
1631018764021,2046
1631018764025,2047
1631018764029,2048
1631018764033,2048
1631018764037,2048
1631018764041,2048
1631018764045,2046
1631018764049,2043
1631018764053,2040
1631018764057,2040
1631018764061,2050
1631018764065,2071
1631018764069,2097
1631018764073,2117
1631018764077,2119
1631018764081,2099
1631018764085,2066
1631018764089,2034
1631018764093,2012
1631018764097,2007
1631018764101,2014
1631018764105,2027
1631018764109,2037
1631018764113,2043
1631018764117,2047
1631018764121,2048
1631018764125,2048
1631018764129,2048
1631018764133,2048
1631018764137,2048
1631018764141,2048
1631018764145,2049
1631018764149,2049
1631018764153,2049
1631018764157,2049
1631018764161,2049
1631018764165,2050
1631018764169,2052
1631018764173,2052
1631018764177,2052
1631018764181,2050
1631018764185,2049
1631018764189,2049
1631018764193,2050
1631018764197,2052
1631018764201,2053
1631018764205,2053
1631018764209,2052
1631018764213,2052
1631018764217,2053
1631018764221,2054
1631018764225,2056
1631018764229,2058
1631018764233,2059
1631018764237,2059
1631018764241,2059
1631018764245,2059
1631018764249,2060
1631018764253,2061
1631018764257,2063
1631018764261,2065
1631018764265,2066
1631018764269,2066
1631018764273,2066
1631018764277,2066
1631018764281,2067
1631018764285,2068
1631018764289,2068
1631018764293,2067
1631018764297,2067
1631018764301,2067
1631018764305,2067
1631018764309,2068
1631018764313,2069
1631018764317,2067
1631018764321,2065
1631018764325,2063
1631018764329,2062
1631018764333,2062
1631018764337,2062
1631018764341,2062
1631018764345,2062
1631018764349,2062
1631018764353,2062
1631018764357,2060
1631018764361,2057
1631018764365,2054
1631018764369,2052
1631018764373,2052
1631018764377,2052
1631018764381,2054
1631018764385,2055
1631018764389,2055
1631018764393,2054
1631018764397,2052
1631018764401,2051
1631018764405,2049
1631018764409,2050
1631018764413,2051
1631018764417,2052
1631018764421,2054
1631018764425,2055
1631018764429,2055
1631018764433,2055
1631018764437,2055
1631018764441,2055
1631018764445,2055
1631018764449,2055
1631018764453,2055
1631018764457,2055
1631018764461,2055
1631018764465,2055
1631018764469,2056
1631018764473,2057
1631018764477,2058
1631018764481,2058
1631018764485,2057
1631018764489,2056
1631018764493,2054
1631018764497,2053
1631018764501,2053
1631018764505,2054
1631018764509,2055
1631018764513,2056
1631018764517,2057
1631018764521,2057
1631018764525,2056
1631018764529,2055
1631018764533,2055
1631018764537,2055
1631018764541,2055
1631018764545,2056
1631018764549,2056
1631018764553,2056
1631018764557,2055
1631018764561,2054
1631018764565,2052
1631018764569,2051
1631018764573,2050
1631018764577,2050
1631018764581,2051
1631018764585,2053
1631018764589,2055
1631018764593,2056
1631018764597,2055
1631018764601,2053
1631018764605,2052
1631018764609,2051
1631018764613,2050
1631018764617,2050
1631018764621,2050
1631018764625,2050
1631018764629,2051
1631018764633,2053
1631018764637,2054
1631018764641,2055
1631018764645,2055
1631018764649,2054
1631018764653,2054
1631018764657,2056
1631018764661,2058
1631018764665,2061
1631018764669,2063
1631018764673,2064
1631018764677,2063
1631018764681,2061
1631018764685,2059
1631018764689,2057
1631018764693,2056
1631018764697,2056
1631018764701,2056
1631018764705,2055
1631018764709,2054
1631018764713,2054
1631018764717,2052
1631018764721,2050
1631018764725,2048
1631018764729,2047
1631018764733,2047
1631018764737,2047
1631018764741,2048
1631018764745,2048
1631018764749,2048
1631018764753,2048
1631018764757,2047
1631018764761,2046
1631018764765,2045
1631018764769,2045
1631018764773,2044
1631018764777,2041
1631018764781,2040
1631018764785,2047
1631018764789,2064
1631018764793,2090
1631018764797,2114
1631018764801,2125
1631018764805,2114
1631018764809,2085
1631018764813,2049
1631018764817,2021
1631018764821,2007
1631018764825,2008
1631018764829,2019
1631018764833,2031
1631018764837,2040
1631018764841,2046
1631018764845,2048
1631018764849,2049
1631018764853,2048
1631018764857,2046
1631018764861,2044
1631018764865,2044
1631018764869,2044
1631018764873,2046
1631018764877,2048
1631018764881,2048
1631018764885,2049
1631018764889,2048
1631018764893,2048
1631018764897,2047
1631018764901,2047
1631018764905,2047
1631018764909,2048
1631018764913,2048
1631018764917,2049
1631018764921,2050
1631018764925,2051
1631018764929,2052
1631018764933,2052
1631018764937,2051
1631018764941,2050
1631018764945,2050
1631018764949,2051
1631018764953,2052
1631018764957,2052
1631018764961,2052
1631018764965,2052
1631018764969,2051
1631018764973,2051
1631018764977,2052
1631018764981,2053
1631018764985,2056
1631018764989,2059
1631018764993,2062
1631018764997,2064
1631018765001,2065
1631018765005,2064
1631018765009,2063
1631018765013,2062
1631018765017,2062
1631018765021,2063
1631018765025,2064
1631018765029,2064
1631018765033,2064
1631018765037,2063
1631018765041,2062
1631018765045,2061
1631018765049,2059
1631018765053,2057
1631018765057,2056
1631018765061,2055
1631018765065,2055
1631018765069,2057
1631018765073,2058
1631018765077,2057
1631018765081,2055
1631018765085,2051
1631018765089,2048
1631018765093,2047
1631018765097,2047
1631018765101,2048
1631018765105,2048
1631018765109,2048
1631018765113,2048
1631018765117,2046
1631018765121,2045
1631018765125,2043
1631018765129,2042
1631018765133,2042
1631018765137,2043
1631018765141,2044
1631018765145,2045
1631018765149,2046
1631018765153,2047
1631018765157,2047
1631018765161,2047
1631018765165,2046
1631018765169,2045
1631018765173,2044
1631018765177,2045
1631018765181,2046
1631018765185,2047
1631018765189,2048
1631018765193,2048
1631018765197,2049
1631018765201,2049
1631018765205,2048
1631018765209,2048
1631018765213,2046
1631018765217,2045
1631018765221,2045
1631018765225,2045
1631018765229,2046
1631018765233,2045
1631018765237,2045
1631018765241,2044
1631018765245,2044
1631018765249,2045
1631018765253,2046
1631018765257,2046
1631018765261,2046
1631018765265,2046
1631018765269,2045
1631018765273,2045
1631018765277,2045
1631018765281,2044
1631018765285,2044
1631018765289,2044
1631018765293,2044
1631018765297,2044
1631018765301,2045
1631018765305,2045
1631018765309,2044
1631018765313,2044
1631018765317,2044
1631018765321,2044
1631018765325,2044
1631018765329,2043
1631018765333,2042
1631018765337,2042
1631018765341,2042
1631018765345,2042
1631018765349,2043
1631018765353,2044
1631018765357,2044
1631018765361,2045
1631018765365,2045
1631018765369,2045
1631018765373,2045
1631018765377,2044
1631018765381,2043
1631018765385,2042
1631018765389,2043
1631018765393,2044
1631018765397,2045
1631018765401,2047
1631018765405,2048
1631018765409,2048
1631018765413,2048
1631018765417,2049
1631018765421,2051
1631018765425,2054
1631018765429,2057
1631018765433,2059
1631018765437,2059
1631018765441,2058
1631018765445,2057
1631018765449,2056
1631018765453,2055
1631018765457,2054
1631018765461,2053
1631018765465,2050
1631018765469,2048
1631018765473,2048
1631018765477,2047
1631018765481,2046
1631018765485,2046
1631018765489,2045
1631018765493,2044
1631018765497,2043
1631018765501,2043
1631018765505,2044
1631018765509,2044
1631018765513,2045
1631018765517,2045
1631018765521,2044
1631018765525,2042
1631018765529,2041
1631018765533,2041
1631018765537,2038
1631018765541,2038
1631018765545,2045
1631018765549,2061
1631018765553,2085
1631018765557,2108
1631018765561,2118
1631018765565,2107
1631018765569,2079
1631018765573,2046
1631018765577,2019
1631018765581,2006
1631018765585,2008
1631018765589,2019
1631018765593,2030
1631018765597,2039
1631018765601,2044
1631018765605,2047
1631018765609,2047
1631018765613,2046
1631018765617,2045
1631018765621,2045
1631018765625,2044
1631018765629,2044
1631018765633,2045
1631018765637,2045
1631018765641,2046
1631018765645,2046
1631018765649,2047
1631018765653,2048
1631018765657,2048
1631018765661,2048
1631018765665,2048
1631018765669,2048
1631018765673,2048
1631018765677,2048
1631018765681,2049
1631018765685,2048
1631018765689,2048
1631018765693,2048
1631018765697,2048
1631018765701,2050
1631018765705,2052
1631018765709,2053
1631018765713,2054
1631018765717,2054
1631018765721,2053
1631018765725,2052
1631018765729,2052
1631018765733,2054
1631018765737,2057
1631018765741,2059
1631018765745,2061
1631018765749,2062
1631018765753,2062
1631018765757,2062
1631018765761,2062
1631018765765,2063
1631018765769,2065
1631018765773,2066
1631018765777,2067
1631018765781,2068
1631018765785,2069
1631018765789,2069
1631018765793,2069
1631018765797,2068
1631018765801,2066
1631018765805,2065
1631018765809,2063
1631018765813,2062
1631018765817,2061
1631018765821,2061
1631018765825,2061
1631018765829,2060
1631018765833,2059
1631018765837,2058
1631018765841,2058
1631018765845,2057
1631018765849,2056
1631018765853,2055
1631018765857,2054
1631018765861,2052
1631018765865,2051
1631018765869,2050
1631018765873,2049
1631018765877,2049
1631018765881,2048
1631018765885,2048
1631018765889,2048
1631018765893,2048
1631018765897,2048
1631018765901,2048
1631018765905,2048
1631018765909,2048
1631018765913,2049
1631018765917,2050
1631018765921,2050
1631018765925,2049
1631018765929,2048
1631018765933,2048
1631018765937,2049
1631018765941,2050
1631018765945,2052
1631018765949,2053
1631018765953,2053
1631018765957,2053
1631018765961,2052
1631018765965,2051
1631018765969,2049
1631018765973,2049
1631018765977,2049
1631018765981,2050
1631018765985,2052
1631018765989,2052
1631018765993,2052
1631018765997,2051
1631018766001,2050
1631018766005,2049
1631018766009,2049
1631018766013,2049
1631018766017,2049
1631018766021,2048
1631018766025,2048
1631018766029,2048
1631018766033,2048
1631018766037,2048
1631018766041,2048
1631018766045,2049
1631018766049,2049
1631018766053,2049
1631018766057,2048
1631018766061,2048
1631018766065,2048
1631018766069,2047
1631018766073,2048
1631018766077,2048
1631018766081,2048
1631018766085,2047
1631018766089,2046
1631018766093,2045
1631018766097,2045
1631018766101,2046
1631018766105,2047
1631018766109,2048
1631018766113,2048
1631018766117,2048
1631018766121,2048
1631018766125,2047
1631018766129,2047
1631018766133,2048
1631018766137,2048
1631018766141,2048
1631018766145,2048
1631018766149,2048
1631018766153,2048
1631018766157,2047
1631018766161,2047
1631018766165,2047
1631018766169,2048
1631018766173,2048
1631018766177,2049
1631018766181,2050
1631018766185,2051
1631018766189,2053
1631018766193,2055
1631018766197,2057
1631018766201,2059
1631018766205,2059
1631018766209,2059
1631018766213,2057
1631018766217,2056
1631018766221,2055
1631018766225,2055
1631018766229,2055
1631018766233,2054
1631018766237,2053
1631018766241,2050
1631018766245,2048
1631018766249,2045
1631018766253,2044
1631018766257,2044
1631018766261,2045
1631018766265,2046
1631018766269,2046
1631018766273,2046
1631018766277,2046
1631018766281,2046
1631018766285,2046
1631018766289,2046
1631018766293,2045
1631018766297,2044
1631018766301,2043
1631018766305,2041
1631018766309,2039
1631018766313,2040
1631018766317,2048
1631018766321,2067
1631018766325,2091
1631018766329,2110
1631018766333,2113
1631018766337,2097
1631018766341,2067
1631018766345,2037
1631018766349,2016
1631018766353,2009
1631018766357,2014
1631018766361,2026
1631018766365,2035
1631018766369,2040
1631018766373,2043
1631018766377,2045
1631018766381,2045
1631018766385,2045
1631018766389,2045
1631018766393,2045
1631018766397,2046
1631018766401,2046
1631018766405,2046
1631018766409,2046
1631018766413,2046
1631018766417,2047
1631018766421,2047
1631018766425,2047
1631018766429,2048
1631018766433,2048
1631018766437,2048
1631018766441,2049
1631018766445,2049
1631018766449,2048
1631018766453,2048
1631018766457,2048
1631018766461,2048
1631018766465,2049
1631018766469,2050
1631018766473,2051
1631018766477,2052
1631018766481,2052
1631018766485,2051
1631018766489,2052
1631018766493,2052
1631018766497,2054
1631018766501,2055
1631018766505,2057
1631018766509,2058
1631018766513,2059
1631018766517,2059
1631018766521,2059
1631018766525,2059
1631018766529,2060
1631018766533,2062
1631018766537,2064
1631018766541,2066
1631018766545,2067
1631018766549,2068
1631018766553,2068
1631018766557,2068
1631018766561,2067
1631018766565,2065
1631018766569,2064
1631018766573,2063
1631018766577,2063
1631018766581,2063
1631018766585,2062
1631018766589,2062
1631018766593,2061
1631018766597,2060
1631018766601,2059
1631018766605,2057
1631018766609,2056
1631018766613,2054
1631018766617,2052
1631018766621,2051
1631018766625,2050
1631018766629,2049
1631018766633,2048
1631018766637,2048
1631018766641,2047
1631018766645,2045
1631018766649,2044
1631018766653,2044
1631018766657,2044
1631018766661,2045
1631018766665,2046
1631018766669,2046
1631018766673,2047
1631018766677,2046
1631018766681,2045
1631018766685,2044
1631018766689,2044
1631018766693,2045
1631018766697,2046
1631018766701,2048
1631018766705,2048
1631018766709,2048
1631018766713,2049
1631018766717,2049
1631018766721,2049
1631018766725,2048
1631018766729,2048
1631018766733,2047
1631018766737,2047
1631018766741,2047
1631018766745,2048
1631018766749,2048
1631018766753,2048
1631018766757,2048
1631018766761,2047
1631018766765,2047
1631018766769,2046
1631018766773,2046
1631018766777,2046
1631018766781,2046
1631018766785,2047
1631018766789,2047
1631018766793,2047
1631018766797,2047
1631018766801,2047
1631018766805,2046
1631018766809,2046
1631018766813,2046
1631018766817,2045
1631018766821,2045
1631018766825,2045
1631018766829,2046
1631018766833,2047
1631018766837,2047
1631018766841,2047
1631018766845,2046
1631018766849,2046
1631018766853,2046
1631018766857,2046
1631018766861,2047
1631018766865,2048
1631018766869,2048
1631018766873,2048
1631018766877,2048
1631018766881,2047
1631018766885,2047
1631018766889,2047
1631018766893,2047
1631018766897,2047
1631018766901,2047
1631018766905,2048
1631018766909,2048
1631018766913,2048
1631018766917,2049
1631018766921,2049
1631018766925,2048
1631018766929,2047
1631018766933,2046
1631018766937,2046
1631018766941,2047
1631018766945,2048
1631018766949,2050
1631018766953,2051
1631018766957,2051
1631018766961,2052
1631018766965,2052
1631018766969,2054
1631018766973,2056
1631018766977,2058
1631018766981,2060
1631018766985,2061
1631018766989,2062
1631018766993,2060
1631018766997,2059
1631018767001,2057
1631018767005,2055
1631018767009,2053
1631018767013,2051
1631018767017,2050
1631018767021,2049
1631018767025,2048
1631018767029,2048
1631018767033,2048
1631018767037,2048
1631018767041,2047
1631018767045,2047
1631018767049,2047
1631018767053,2046
1631018767057,2045
1631018767061,2045
1631018767065,2046
1631018767069,2046
1631018767073,2047
1631018767077,2047
1631018767081,2046
1631018767085,2044
1631018767089,2042
1631018767093,2048
1631018767097,2064
1631018767101,2087
1631018767105,2109
1631018767109,2119
1631018767113,2110
1631018767117,2084
1631018767121,2051
1631018767125,2025
1631018767129,2011
1631018767133,2012
1631018767137,2023
1631018767141,2035
1631018767145,2044
1631018767149,2049
1631018767153,2052
1631018767157,2052
1631018767161,2051
1631018767165,2051
1631018767169,2050
1631018767173,2050
1631018767177,2049
1631018767181,2049
1631018767185,2050
1631018767189,2051
1631018767193,2053
1631018767197,2054
1631018767201,2054
1631018767205,2054
1631018767209,2053
1631018767213,2052
1631018767217,2052
1631018767221,2053
1631018767225,2055
1631018767229,2057
1631018767233,2059
1631018767237,2059
1631018767241,2058
1631018767245,2057
1631018767249,2056
1631018767253,2057
1631018767257,2058
1631018767261,2060
1631018767265,2062
1631018767269,2062
1631018767273,2062
1631018767277,2062
1631018767281,2063
1631018767285,2063
1631018767289,2064
1631018767293,2064
1631018767297,2066
1631018767301,2068
1631018767305,2070
1631018767309,2073
1631018767313,2074
1631018767317,2073
1631018767321,2072
1631018767325,2071
1631018767329,2072
1631018767333,2073
1631018767337,2074
1631018767341,2073
1631018767345,2073
1631018767349,2072
1631018767353,2072
1631018767357,2073
1631018767361,2072
1631018767365,2071
1631018767369,2068
1631018767373,2065
1631018767377,2063
1631018767381,2063
1631018767385,2064
1631018767389,2064
1631018767393,2064
1631018767397,2063
1631018767401,2062
1631018767405,2060
1631018767409,2058
1631018767413,2056
1631018767417,2054
1631018767421,2054
1631018767425,2054
1631018767429,2055
1631018767433,2056
1631018767437,2056
1631018767441,2055
1631018767445,2053
1631018767449,2052
1631018767453,2052
1631018767457,2052
1631018767461,2054
1631018767465,2055
1631018767469,2056
1631018767473,2055
1631018767477,2054
1631018767481,2052
1631018767485,2051
1631018767489,2052
1631018767493,2053
1631018767497,2055
1631018767501,2056
1631018767505,2056
1631018767509,2056
1631018767513,2056
1631018767517,2056
1631018767521,2056
1631018767525,2056
1631018767529,2056
1631018767533,2055
1631018767537,2054
1631018767541,2053
1631018767545,2052
1631018767549,2052
1631018767553,2052
1631018767557,2054
1631018767561,2054
1631018767565,2054
1631018767569,2053
1631018767573,2051
1631018767577,2050
1631018767581,2049
1631018767585,2049
1631018767589,2050
1631018767593,2050
1631018767597,2051
1631018767601,2051
1631018767605,2050
1631018767609,2049
1631018767613,2048
1631018767617,2048
1631018767621,2048
1631018767625,2049
1631018767629,2051
1631018767633,2052
1631018767637,2051
1631018767641,2049
1631018767645,2048
1631018767649,2047
1631018767653,2047
1631018767657,2048
1631018767661,2048
1631018767665,2049
1631018767669,2049
1631018767673,2048
1631018767677,2047
1631018767681,2046
1631018767685,2046
1631018767689,2048
1631018767693,2048
1631018767697,2049
1631018767701,2050
1631018767705,2050
1631018767709,2051
1631018767713,2052
1631018767717,2054
1631018767721,2056
1631018767725,2058
1631018767729,2060
1631018767733,2060
1631018767737,2058
1631018767741,2057
1631018767745,2056
1631018767749,2055
1631018767753,2056
1631018767757,2056
1631018767761,2055
1631018767765,2052
1631018767769,2050
1631018767773,2048
1631018767777,2047
1631018767781,2047
1631018767785,2047
1631018767789,2047
1631018767793,2046
1631018767797,2046
1631018767801,2045
1631018767805,2044
1631018767809,2043
1631018767813,2044
1631018767817,2045
1631018767821,2046
1631018767825,2046
1631018767829,2045
1631018767833,2041
1631018767837,2040
1631018767841,2047
1631018767845,2063
1631018767849,2089
1631018767853,2113
1631018767857,2123
1631018767861,2113
1631018767865,2085
1631018767869,2050
1631018767873,2022
1631018767877,2008
1631018767881,2008
1631018767885,2018
1631018767889,2030
1631018767893,2039
1631018767897,2045
1631018767901,2048
1631018767905,2048
1631018767909,2047
1631018767913,2046
1631018767917,2045
1631018767921,2045
1631018767925,2044
1631018767929,2044
1631018767933,2045
1631018767937,2046
1631018767941,2048
1631018767945,2049
1631018767949,2050
1631018767953,2049
1631018767957,2048
1631018767961,2048
1631018767965,2048
1631018767969,2048
1631018767973,2048
1631018767977,2048
1631018767981,2049
1631018767985,2050
1631018767989,2051
1631018767993,2052
1631018767997,2053
1631018768001,2053
1631018768005,2052
1631018768009,2052
1631018768013,2052
1631018768017,2053
1631018768021,2055
1631018768025,2056
1631018768029,2057
1631018768033,2058
1631018768037,2060
1631018768041,2061
1631018768045,2061
1631018768049,2061
1631018768053,2061
1631018768057,2062
1631018768061,2064
1631018768065,2067
1631018768069,2070
1631018768073,2071
1631018768077,2070
1631018768081,2069
1631018768085,2067
1631018768089,2066
1631018768093,2065
1631018768097,2065
1631018768101,2065
1631018768105,2065
1631018768109,2065
1631018768113,2064
1631018768117,2064
1631018768121,2063
1631018768125,2062
1631018768129,2060
1631018768133,2058
1631018768137,2055
1631018768141,2053
1631018768145,2052
1631018768149,2051
1631018768153,2051
1631018768157,2050
1631018768161,2049
1631018768165,2048
1631018768169,2047
1631018768173,2046
1631018768177,2046
1631018768181,2046
1631018768185,2045
1631018768189,2045
1631018768193,2045
1631018768197,2046
1631018768201,2048
1631018768205,2048
1631018768209,2048
1631018768213,2048
1631018768217,2048
1631018768221,2048
1631018768225,2048
1631018768229,2048
1631018768233,2048
1631018768237,2048
1631018768241,2048
1631018768245,2048
1631018768249,2048
1631018768253,2048
1631018768257,2048
1631018768261,2048
1631018768265,2048
1631018768269,2049
1631018768273,2049
1631018768277,2049
1631018768281,2048
1631018768285,2048
1631018768289,2047
1631018768293,2046
1631018768297,2045
1631018768301,2045
1631018768305,2045
1631018768309,2046
1631018768313,2047
1631018768317,2048
1631018768321,2048
1631018768325,2048
1631018768329,2047
1631018768333,2046
1631018768337,2045
1631018768341,2046
1631018768345,2046
1631018768349,2046
1631018768353,2045
1631018768357,2044
1631018768361,2044
1631018768365,2045
1631018768369,2046
1631018768373,2046
1631018768377,2047
1631018768381,2046
1631018768385,2046
1631018768389,2045
1631018768393,2045
1631018768397,2044
1631018768401,2044
1631018768405,2045
1631018768409,2046
1631018768413,2046
1631018768417,2046
1631018768421,2046
1631018768425,2046
1631018768429,2045
1631018768433,2045
1631018768437,2045
1631018768441,2046
1631018768445,2046
1631018768449,2047
1631018768453,2048
1631018768457,2050
1631018768461,2052
1631018768465,2055
1631018768469,2058
1631018768473,2060
1631018768477,2060
1631018768481,2059
1631018768485,2056
1631018768489,2053
1631018768493,2051
1631018768497,2051
1631018768501,2052
1631018768505,2052
1631018768509,2051
1631018768513,2049
1631018768517,2048
1631018768521,2045
1631018768525,2043
1631018768529,2043
1631018768533,2043
1631018768537,2043
1631018768541,2044
1631018768545,2044
1631018768549,2045
1631018768553,2045
1631018768557,2046
1631018768561,2046
1631018768565,2045
1631018768569,2043
1631018768573,2040
1631018768577,2036
1631018768581,2035
1631018768585,2044
1631018768589,2062
1631018768593,2089
1631018768597,2113
1631018768601,2122
1631018768605,2110
1631018768609,2080
1631018768613,2045
1631018768617,2019
1631018768621,2008
1631018768625,2012
1631018768629,2023
1631018768633,2034
1631018768637,2041
1631018768641,2045
1631018768645,2046
1631018768649,2047
1631018768653,2046
1631018768657,2046
1631018768661,2046
1631018768665,2045
1631018768669,2045
1631018768673,2045
1631018768677,2046
1631018768681,2047
1631018768685,2048
1631018768689,2048
1631018768693,2048
1631018768697,2048
1631018768701,2047
1631018768705,2047
1631018768709,2047
1631018768713,2048
1631018768717,2049
1631018768721,2050
1631018768725,2051
1631018768729,2051
1631018768733,2051
1631018768737,2051
1631018768741,2051
1631018768745,2052
1631018768749,2052
1631018768753,2053
1631018768757,2053
1631018768761,2054
1631018768765,2055
1631018768769,2056
1631018768773,2058
1631018768777,2060
1631018768781,2062
1631018768785,2062
1631018768789,2062
1631018768793,2061
1631018768797,2061
1631018768801,2062
1631018768805,2065
1631018768809,2068
1631018768813,2070
1631018768817,2071
1631018768821,2070
1631018768825,2070
1631018768829,2070
1631018768833,2070
1631018768837,2070
1631018768841,2069
1631018768845,2067
1631018768849,2065
1631018768853,2065
1631018768857,2064
1631018768861,2064
1631018768865,2064
1631018768869,2062
1631018768873,2060
1631018768877,2057
1631018768881,2055
1631018768885,2053
1631018768889,2052
1631018768893,2053
1631018768897,2053
1631018768901,2052
1631018768905,2051
1631018768909,2050
1631018768913,2048
1631018768917,2048
1631018768921,2047
1631018768925,2047
1631018768929,2047
1631018768933,2048
1631018768937,2048
1631018768941,2048
1631018768945,2048
1631018768949,2048
1631018768953,2048
1631018768957,2048
1631018768961,2049
1631018768965,2049
1631018768969,2048
1631018768973,2048
1631018768977,2048
1631018768981,2048
1631018768985,2049
1631018768989,2050
1631018768993,2051
1631018768997,2051
1631018769001,2051
1631018769005,2050
1631018769009,2049
1631018769013,2048
1631018769017,2049
1631018769021,2049
1631018769025,2050
1631018769029,2050
1631018769033,2049
1631018769037,2049
1631018769041,2048
1631018769045,2048
1631018769049,2048
1631018769053,2048
1631018769057,2048
1631018769061,2048
1631018769065,2049
1631018769069,2049
1631018769073,2048
1631018769077,2048
1631018769081,2047
1631018769085,2046
1631018769089,2046
1631018769093,2046
1631018769097,2047
1631018769101,2048
1631018769105,2048
1631018769109,2048
1631018769113,2048
1631018769117,2048
1631018769121,2047
1631018769125,2047
1631018769129,2047
1631018769133,2047
1631018769137,2048
1631018769141,2048
1631018769145,2048
1631018769149,2048
1631018769153,2048
1631018769157,2048
1631018769161,2047
1631018769165,2047
1631018769169,2047
1631018769173,2048
1631018769177,2048
1631018769181,2049
1631018769185,2051
1631018769189,2053
1631018769193,2055
1631018769197,2057
1631018769201,2058
1631018769205,2058
1631018769209,2058
1631018769213,2058
1631018769217,2057
1631018769221,2057
1631018769225,2057
1631018769229,2057
1631018769233,2056
1631018769237,2054
1631018769241,2052
1631018769245,2049
1631018769249,2048
1631018769253,2047
1631018769257,2046
1631018769261,2047
1631018769265,2047
1631018769269,2047
1631018769273,2047
1631018769277,2046
1631018769281,2046
1631018769285,2045
1631018769289,2044
1631018769293,2044
1631018769297,2044
1631018769301,2045
1631018769305,2045
1631018769309,2044
1631018769313,2041
1631018769317,2041
1631018769321,2050
1631018769325,2069
1631018769329,2094
1631018769333,2113
1631018769337,2116
1631018769341,2098
1631018769345,2066
1631018769349,2034
1631018769353,2013
1631018769357,2007
1631018769361,2015
1631018769365,2028
1631018769369,2039
1631018769373,2045
1631018769377,2048
1631018769381,2048
1631018769385,2048
1631018769389,2047
1631018769393,2046
1631018769397,2045
1631018769401,2045
1631018769405,2045
1631018769409,2045
1631018769413,2046
1631018769417,2045
1631018769421,2045
1631018769425,2046
1631018769429,2047
1631018769433,2048
1631018769437,2048
1631018769441,2049
1631018769445,2048
1631018769449,2048
1631018769453,2048
1631018769457,2048
1631018769461,2049
1631018769465,2050
1631018769469,2051
1631018769473,2052
1631018769477,2053
1631018769481,2053
1631018769485,2053
1631018769489,2052
1631018769493,2052
1631018769497,2052
1631018769501,2054
1631018769505,2057
1631018769509,2059
1631018769513,2061
1631018769517,2061
1631018769521,2061
1631018769525,2061
1631018769529,2062
1631018769533,2063
1631018769537,2065
1631018769541,2066
1631018769545,2068
1631018769549,2068
1631018769553,2068
1631018769557,2068
1631018769561,2067
1631018769565,2066
1631018769569,2065
1631018769573,2065
1631018769577,2066
1631018769581,2067
1631018769585,2068
1631018769589,2067
1631018769593,2065
1631018769597,2061
1631018769601,2059
1631018769605,2057
1631018769609,2056
1631018769613,2056
1631018769617,2055
1631018769621,2055
1631018769625,2055
1631018769629,2054
1631018769633,2053
1631018769637,2052
1631018769641,2049
1631018769645,2047
1631018769649,2044
1631018769653,2043
1631018769657,2043
1631018769661,2044
1631018769665,2045
1631018769669,2045
1631018769673,2045
1631018769677,2045
1631018769681,2044
1631018769685,2044
1631018769689,2044
1631018769693,2045
1631018769697,2045
1631018769701,2046
1631018769705,2046
1631018769709,2045
1631018769713,2045
1631018769717,2044
1631018769721,2045
1631018769725,2046
1631018769729,2048
1631018769733,2048
1631018769737,2048
1631018769741,2048
1631018769745,2047
1631018769749,2047
1631018769753,2048
1631018769757,2048
1631018769761,2049
1631018769765,2048
1631018769769,2047
1631018769773,2047
1631018769777,2046
1631018769781,2046
1631018769785,2046
1631018769789,2046
1631018769793,2046
1631018769797,2045
1631018769801,2046
1631018769805,2046
1631018769809,2047
1631018769813,2048
1631018769817,2048
1631018769821,2047
1631018769825,2046
1631018769829,2045
1631018769833,2045
1631018769837,2046
1631018769841,2047
1631018769845,2047
1631018769849,2047
1631018769853,2046
1631018769857,2045
1631018769861,2046
1631018769865,2047
1631018769869,2047
1631018769873,2047
1631018769877,2046
1631018769881,2044
1631018769885,2042
1631018769889,2042
1631018769893,2043
1631018769897,2045
1631018769901,2047
1631018769905,2047
1631018769909,2047
1631018769913,2047
1631018769917,2047
1631018769921,2048
1631018769925,2048
1631018769929,2048
1631018769933,2048
1631018769937,2048
1631018769941,2050
1631018769945,2054
1631018769949,2057
1631018769953,2059
1631018769957,2059
1631018769961,2058
1631018769965,2056
1631018769969,2055
1631018769973,2054
1631018769977,2052
1631018769981,2051
1631018769985,2050
1631018769989,2048
1631018769993,2048
1631018769997,2047
1631018770001,2046
1631018770005,2045
1631018770009,2043
1631018770013,2042
1631018770017,2042
1631018770021,2042
1631018770025,2042
1631018770029,2042
1631018770033,2043
1631018770037,2043
1631018770041,2042
1631018770045,2040
1631018770049,2038
1631018770053,2037
1631018770057,2035
1631018770061,2035
1631018770065,2041
1631018770069,2054
1631018770073,2077
1631018770077,2101
1631018770081,2117
1631018770085,2114
1631018770089,2092
1631018770093,2059
1631018770097,2027
1631018770101,2006
1631018770105,2002
1631018770109,2010
1631018770113,2023
1631018770117,2033
1631018770121,2040
1631018770125,2043
1631018770129,2043
1631018770133,2042
1631018770137,2041
1631018770141,2041
1631018770145,2042
1631018770149,2043
1631018770153,2044
1631018770157,2045
1631018770161,2045
1631018770165,2044
1631018770169,2043
1631018770173,2043
1631018770177,2043
1631018770181,2045
1631018770185,2046
1631018770189,2047
1631018770193,2048
1631018770197,2048
1631018770201,2048
1631018770205,2047
1631018770209,2046
1631018770213,2045
1631018770217,2046
1631018770221,2048
1631018770225,2050
1631018770229,2053
1631018770233,2054
1631018770237,2053
1631018770241,2052
1631018770245,2052
1631018770249,2052
1631018770253,2053
1631018770257,2054
1631018770261,2055
1631018770265,2056
1631018770269,2058
1631018770273,2059
1631018770277,2060
1631018770281,2061
1631018770285,2062
1631018770289,2063
1631018770293,2064
1631018770297,2065
1631018770301,2066
1631018770305,2066
1631018770309,2066
1631018770313,2065
1631018770317,2064
1631018770321,2064
1631018770325,2064
1631018770329,2064
1631018770333,2064
1631018770337,2063
1631018770341,2063
1631018770345,2062
1631018770349,2060
1631018770353,2058
1631018770357,2056
1631018770361,2054
1631018770365,2052
1631018770369,2052
1631018770373,2051
1631018770377,2050
1631018770381,2049
1631018770385,2048
1631018770389,2047
1631018770393,2046
1631018770397,2045
1631018770401,2044
1631018770405,2044
1631018770409,2044
1631018770413,2044
1631018770417,2045
1631018770421,2046
1631018770425,2046
1631018770429,2046
1631018770433,2046
1631018770437,2046
1631018770441,2046
1631018770445,2046
1631018770449,2046
1631018770453,2046
1631018770457,2047
1631018770461,2048
1631018770465,2049
1631018770469,2049
1631018770473,2048
1631018770477,2047
1631018770481,2045
1631018770485,2044
1631018770489,2045
1631018770493,2047
1631018770497,2048
1631018770501,2049
1631018770505,2048
1631018770509,2048
1631018770513,2047
1631018770517,2046
1631018770521,2045
1631018770525,2044
1631018770529,2044
1631018770533,2045
1631018770537,2045
1631018770541,2046
1631018770545,2047
1631018770549,2047
1631018770553,2046
1631018770557,2046
1631018770561,2045
1631018770565,2045
1631018770569,2045
1631018770573,2045
1631018770577,2046
1631018770581,2048
1631018770585,2048
1631018770589,2047
1631018770593,2045
1631018770597,2043
1631018770601,2042
1631018770605,2042
1631018770609,2043
1631018770613,2045
1631018770617,2047
1631018770621,2047
1631018770625,2047
1631018770629,2046
1631018770633,2045
1631018770637,2045
1631018770641,2045
1631018770645,2045
1631018770649,2046
1631018770653,2046
1631018770657,2046
1631018770661,2046
1631018770665,2046
1631018770669,2046
1631018770673,2046
1631018770677,2046
1631018770681,2045
1631018770685,2044
1631018770689,2044
1631018770693,2044
1631018770697,2045
1631018770701,2046
1631018770705,2047
1631018770709,2047
1631018770713,2047
1631018770717,2047
1631018770721,2047
1631018770725,2048
1631018770729,2048
1631018770733,2048
1631018770737,2050
1631018770741,2053
1631018770745,2056
1631018770749,2059
1631018770753,2061
1631018770757,2063
1631018770761,2062
1631018770765,2059
1631018770769,2056
1631018770773,2052
1631018770777,2051
1631018770781,2052
1631018770785,2053
1631018770789,2054
1631018770793,2054
1631018770797,2052
1631018770801,2049
1631018770805,2048
1631018770809,2046
1631018770813,2046
1631018770817,2046
1631018770821,2046
1631018770825,2046
1631018770829,2046
1631018770833,2047
1631018770837,2047
1631018770841,2047
1631018770845,2046
1631018770849,2045
1631018770853,2044
1631018770857,2042
1631018770861,2039
1631018770865,2043
1631018770869,2056
1631018770873,2079
1631018770877,2104
1631018770881,2121
1631018770885,2119
1631018770889,2096
1631018770893,2061
1631018770897,2029
1631018770901,2010
1631018770905,2006
1631018770909,2015
1631018770913,2027
1631018770917,2037
1631018770921,2043
1631018770925,2047
1631018770929,2048
1631018770933,2048
1631018770937,2048
1631018770941,2047
1631018770945,2047
1631018770949,2047
1631018770953,2048
1631018770957,2048
1631018770961,2048
1631018770965,2048
1631018770969,2048
1631018770973,2048
1631018770977,2048
1631018770981,2049
1631018770985,2049
1631018770989,2050
1631018770993,2051
1631018770997,2050
1631018771001,2050
1631018771005,2050
1631018771009,2050
1631018771013,2051
1631018771017,2052
1631018771021,2053
1631018771025,2054
1631018771029,2055
1631018771033,2056
1631018771037,2057
1631018771041,2057
1631018771045,2058
1631018771049,2058
1631018771053,2058
1631018771057,2059
1631018771061,2060
1631018771065,2062
1631018771069,2063
1631018771073,2065
1631018771077,2066
1631018771081,2067
1631018771085,2068
1631018771089,2068
1631018771093,2069
1631018771097,2070
1631018771101,2070
1631018771105,2071
1631018771109,2071
1631018771113,2072
1631018771117,2072
1631018771121,2073
1631018771125,2073
1631018771129,2072
1631018771133,2070
1631018771137,2068
1631018771141,2066
1631018771145,2065
1631018771149,2064
1631018771153,2064
1631018771157,2062
1631018771161,2061
1631018771165,2059
1631018771169,2058
1631018771173,2056
1631018771177,2056
1631018771181,2055
1631018771185,2054
1631018771189,2053
1631018771193,2053
1631018771197,2052
1631018771201,2051
1631018771205,2050
1631018771209,2050
1631018771213,2050
1631018771217,2050
1631018771221,2051
1631018771225,2051
1631018771229,2051
1631018771233,2051
1631018771237,2051
1631018771241,2051
1631018771245,2051
1631018771249,2051
1631018771253,2051
1631018771257,2052
1631018771261,2053
1631018771265,2054
1631018771269,2054
1631018771273,2054
1631018771277,2054
1631018771281,2054
1631018771285,2054
1631018771289,2054
1631018771293,2054
1631018771297,2054
1631018771301,2054
1631018771305,2053
1631018771309,2053
1631018771313,2054
1631018771317,2054
1631018771321,2055
1631018771325,2054
1631018771329,2053
1631018771333,2051
1631018771337,2050
1631018771341,2050
1631018771345,2051
1631018771349,2052
1631018771353,2053
1631018771357,2053
1631018771361,2053
1631018771365,2052
1631018771369,2051
1631018771373,2050
1631018771377,2050
1631018771381,2050
1631018771385,2050
1631018771389,2050
1631018771393,2051
1631018771397,2051
1631018771401,2051
1631018771405,2051
1631018771409,2050
1631018771413,2049
1631018771417,2048
1631018771421,2048
1631018771425,2049
1631018771429,2050
1631018771433,2051
1631018771437,2051
1631018771441,2051
1631018771445,2050
1631018771449,2049
1631018771453,2049
1631018771457,2049
1631018771461,2050
1631018771465,2050
1631018771469,2051
1631018771473,2051
1631018771477,2051
1631018771481,2051
1631018771485,2050
1631018771489,2050
1631018771493,2049
1631018771497,2048
1631018771501,2048
1631018771505,2048
1631018771509,2049
1631018771513,2050
1631018771517,2052
1631018771521,2052
1631018771525,2052
1631018771529,2051
1631018771533,2050
1631018771537,2050
1631018771541,2051
1631018771545,2052
1631018771549,2053
1631018771553,2053
1631018771557,2052
1631018771561,2051
1631018771565,2050
1631018771569,2050
1631018771573,2051
1631018771577,2052
1631018771581,2053
1631018771585,2054
1631018771589,2054
1631018771593,2055
1631018771597,2056
1631018771601,2058
1631018771605,2060
1631018771609,2061
1631018771613,2062
1631018771617,2063
1631018771621,2063
1631018771625,2062
1631018771629,2062
1631018771633,2061
1631018771637,2060
1631018771641,2058
1631018771645,2057
1631018771649,2055
1631018771653,2053
1631018771657,2051
1631018771661,2051
1631018771665,2050
1631018771669,2050
1631018771673,2050
1631018771677,2050
1631018771681,2050
1631018771685,2049
1631018771689,2049
1631018771693,2048
1631018771697,2048
1631018771701,2048
1631018771705,2048
1631018771709,2048
1631018771713,2048
1631018771717,2045
1631018771721,2043
1631018771725,2049
1631018771729,2067
1631018771733,2093
1631018771737,2115
1631018771741,2122
1631018771745,2108
1631018771749,2077
1631018771753,2044
1631018771757,2019
1631018771761,2010
1631018771765,2016
1631018771769,2028
1631018771773,2038
1631018771777,2045
1631018771781,2048
1631018771785,2049
1631018771789,2049
1631018771793,2048
1631018771797,2048
1631018771801,2048
1631018771805,2049
1631018771809,2049
1631018771813,2049
1631018771817,2049
1631018771821,2049
1631018771825,2049
1631018771829,2050
1631018771833,2050
1631018771837,2051
1631018771841,2051
1631018771845,2051
1631018771849,2050
1631018771853,2049
1631018771857,2049
1631018771861,2051
1631018771865,2052
1631018771869,2054
1631018771873,2055
1631018771877,2054
1631018771881,2054
1631018771885,2052
1631018771889,2052
1631018771893,2053
1631018771897,2054
1631018771901,2057
1631018771905,2058
1631018771909,2059
1631018771913,2060
1631018771917,2060
1631018771921,2060
1631018771925,2060
1631018771929,2061
1631018771933,2062
1631018771937,2063
1631018771941,2064
1631018771945,2066
1631018771949,2067
1631018771953,2068
1631018771957,2069
1631018771961,2069
1631018771965,2070
1631018771969,2070
1631018771973,2071
1631018771977,2070
1631018771981,2069
1631018771985,2067
1631018771989,2066
1631018771993,2066
1631018771997,2067
1631018772001,2066
1631018772005,2065
1631018772009,2062
1631018772013,2058
1631018772017,2056
1631018772021,2055
1631018772025,2055
1631018772029,2056
1631018772033,2056
1631018772037,2054
1631018772041,2052
1631018772045,2049
1631018772049,2047
1631018772053,2047
1631018772057,2048
1631018772061,2048
1631018772065,2049
1631018772069,2049
1631018772073,2048
1631018772077,2048
1631018772081,2047
1631018772085,2046
1631018772089,2046
1631018772093,2046
1631018772097,2047
1631018772101,2047
1631018772105,2048
1631018772109,2048
1631018772113,2048
1631018772117,2048
1631018772121,2049
1631018772125,2049
1631018772129,2049
1631018772133,2049
1631018772137,2049
1631018772141,2049
1631018772145,2048
1631018772149,2048
1631018772153,2049
1631018772157,2049
1631018772161,2050
1631018772165,2050
1631018772169,2050
1631018772173,2050
1631018772177,2049
1631018772181,2049
1631018772185,2049
1631018772189,2048
1631018772193,2048
1631018772197,2048
1631018772201,2048
1631018772205,2047
1631018772209,2046
1631018772213,2045
1631018772217,2044
1631018772221,2045
1631018772225,2047
1631018772229,2048
1631018772233,2049
1631018772237,2049
1631018772241,2048
1631018772245,2047
1631018772249,2046
1631018772253,2045
1631018772257,2045
1631018772261,2045
1631018772265,2045
1631018772269,2046
1631018772273,2047
1631018772277,2048
1631018772281,2048
1631018772285,2047
1631018772289,2047
1631018772293,2046
1631018772297,2045
1631018772301,2045
1631018772305,2045
1631018772309,2046
1631018772313,2046
1631018772317,2048
1631018772321,2048
1631018772325,2049
1631018772329,2049
1631018772333,2049
1631018772337,2048
1631018772341,2048
1631018772345,2048
1631018772349,2048
1631018772353,2048
1631018772357,2048
1631018772361,2048
1631018772365,2048
1631018772369,2048
1631018772373,2047
1631018772377,2048
1631018772381,2048
1631018772385,2048
1631018772389,2048
1631018772393,2048
1631018772397,2048
1631018772401,2048
1631018772405,2049
1631018772409,2049
1631018772413,2049
1631018772417,2049
1631018772421,2049
1631018772425,2049
1631018772429,2049
1631018772433,2049
1631018772437,2048
1631018772441,2048
1631018772445,2047
1631018772449,2047
1631018772453,2048
1631018772457,2050
1631018772461,2052
1631018772465,2052
1631018772469,2051
1631018772473,2051
1631018772477,2052
1631018772481,2053
1631018772485,2055
1631018772489,2057
1631018772493,2058
1631018772497,2059
1631018772501,2059
1631018772505,2059
1631018772509,2059
1631018772513,2057
1631018772517,2057
1631018772521,2056
1631018772525,2055
1631018772529,2054
1631018772533,2053
1631018772537,2051
1631018772541,2048
1631018772545,2047
1631018772549,2046
1631018772553,2046
1631018772557,2048
1631018772561,2050
1631018772565,2050
1631018772569,2049
1631018772573,2047
1631018772577,2045
1631018772581,2044
1631018772585,2044
1631018772589,2045
1631018772593,2045
1631018772597,2044
1631018772601,2040
1631018772605,2040
1631018772609,2048
1631018772613,2066
1631018772617,2093
1631018772621,2115
1631018772625,2122
1631018772629,2108
1631018772633,2078
1631018772637,2044
1631018772641,2018
1631018772645,2007
1631018772649,2010
1631018772653,2020
1631018772657,2031
1631018772661,2040
1631018772665,2046
1631018772669,2048
1631018772673,2048
1631018772677,2046
1631018772681,2045
1631018772685,2045
1631018772689,2046
1631018772693,2046
1631018772697,2046
1631018772701,2046
1631018772705,2047
1631018772709,2048
1631018772713,2048
1631018772717,2048
1631018772721,2048
1631018772725,2048
1631018772729,2047
1631018772733,2047
1631018772737,2047
1631018772741,2048
1631018772745,2049
1631018772749,2050
1631018772753,2051
1631018772757,2051
1631018772761,2051
1631018772765,2051
1631018772769,2052
1631018772773,2052
1631018772777,2053
1631018772781,2053
1631018772785,2054
1631018772789,2054
1631018772793,2054
1631018772797,2054
1631018772801,2055
1631018772805,2056
1631018772809,2058
1631018772813,2059
1631018772817,2060
1631018772821,2061
1631018772825,2062
1631018772829,2064
1631018772833,2066
1631018772837,2066
1631018772841,2066
1631018772845,2065
1631018772849,2065
1631018772853,2067
1631018772857,2069
1631018772861,2070
1631018772865,2070
1631018772869,2068
1631018772873,2065
1631018772877,2064
1631018772881,2063
1631018772885,2063
1631018772889,2062
1631018772893,2061
1631018772897,2058
1631018772901,2056
1631018772905,2054
1631018772909,2053
1631018772913,2052
1631018772917,2051
1631018772921,2050
1631018772925,2049
1631018772929,2048
1631018772933,2047
1631018772937,2044
1631018772941,2044
1631018772945,2044
1631018772949,2046
1631018772953,2047
1631018772957,2047
1631018772961,2045
1631018772965,2043
1631018772969,2042
1631018772973,2042
1631018772977,2043
1631018772981,2044
1631018772985,2045
1631018772989,2046
1631018772993,2046
1631018772997,2046
1631018773001,2046
1631018773005,2045
1631018773009,2045
1631018773013,2045
1631018773017,2046
1631018773021,2048
1631018773025,2048
1631018773029,2048
1631018773033,2048
1631018773037,2048
1631018773041,2047
1631018773045,2046
1631018773049,2046
1631018773053,2046
1631018773057,2045
1631018773061,2045
1631018773065,2046
1631018773069,2046
1631018773073,2046
1631018773077,2045
1631018773081,2044
1631018773085,2043
1631018773089,2043
1631018773093,2043
1631018773097,2044
1631018773101,2044
1631018773105,2045
1631018773109,2044
1631018773113,2044
1631018773117,2044
1631018773121,2044
1631018773125,2044
1631018773129,2043
1631018773133,2043
1631018773137,2042
1631018773141,2043
1631018773145,2043
1631018773149,2043
1631018773153,2044
1631018773157,2043
1631018773161,2043
1631018773165,2042
1631018773169,2042
1631018773173,2042
1631018773177,2042
1631018773181,2043
1631018773185,2043
1631018773189,2043
1631018773193,2044
1631018773197,2044
1631018773201,2044
1631018773205,2043
1631018773209,2042
1631018773213,2041
1631018773217,2041
1631018773221,2042
1631018773225,2043
1631018773229,2045
1631018773233,2045
1631018773237,2044
1631018773241,2043
1631018773245,2043
1631018773249,2043
1631018773253,2043
1631018773257,2043
1631018773261,2043
1631018773265,2043
1631018773269,2043
1631018773273,2044
1631018773277,2045
1631018773281,2045
1631018773285,2044
1631018773289,2043
1631018773293,2043
1631018773297,2044
1631018773301,2045
1631018773305,2045
1631018773309,2046
1631018773313,2046
1631018773317,2046
1631018773321,2046
1631018773325,2045
1631018773329,2045
1631018773333,2044
1631018773337,2045
1631018773341,2048
1631018773345,2051
1631018773349,2055
1631018773353,2058
1631018773357,2059
1631018773361,2058
1631018773365,2056
1631018773369,2054
1631018773373,2052
1631018773377,2052
1631018773381,2053
1631018773385,2054
1631018773389,2054
1631018773393,2052
1631018773397,2049
1631018773401,2047
1631018773405,2044
1631018773409,2041
1631018773413,2040
1631018773417,2041
1631018773421,2043
1631018773425,2046
1631018773429,2048
1631018773433,2048
1631018773437,2047
1631018773441,2046
1631018773445,2045
1631018773449,2045
1631018773453,2044
1631018773457,2043
1631018773461,2041
1631018773465,2038
1631018773469,2043
1631018773473,2057
1631018773477,2082
1631018773481,2108
1631018773485,2123
1631018773489,2118
1631018773493,2093
1631018773497,2057
1631018773501,2028
1631018773505,2011
1631018773509,2010
1631018773513,2020
1631018773517,2033
1631018773521,2042
1631018773525,2047
1631018773529,2048
1631018773533,2048
1631018773537,2048
1631018773541,2046
1631018773545,2045
1631018773549,2045
1631018773553,2046
1631018773557,2048
1631018773561,2048
1631018773565,2048
1631018773569,2048
1631018773573,2048
1631018773577,2048
1631018773581,2048
1631018773585,2050
1631018773589,2052
1631018773593,2053
1631018773597,2053
1631018773601,2053
1631018773605,2052
1631018773609,2052
1631018773613,2053
1631018773617,2053
1631018773621,2053
1631018773625,2053
1631018773629,2053
1631018773633,2053
1631018773637,2054
1631018773641,2055
1631018773645,2056
1631018773649,2056
1631018773653,2057
1631018773657,2058
1631018773661,2059
1631018773665,2061
1631018773669,2063
1631018773673,2065
1631018773677,2067
1631018773681,2068
1631018773685,2069
1631018773689,2069
1631018773693,2070
1631018773697,2070
1631018773701,2071
1631018773705,2072
1631018773709,2073
1631018773713,2074
1631018773717,2074
1631018773721,2074
1631018773725,2073
1631018773729,2072
1631018773733,2070
1631018773737,2070
1631018773741,2070
1631018773745,2071
1631018773749,2071
1631018773753,2069
1631018773757,2066
1631018773761,2064
1631018773765,2061
1631018773769,2060
1631018773773,2060
1631018773777,2059
1631018773781,2058
1631018773785,2057
1631018773789,2055
1631018773793,2054
1631018773797,2052
1631018773801,2052
1631018773805,2051
1631018773809,2051
1631018773813,2050
1631018773817,2050
1631018773821,2049
1631018773825,2049
1631018773829,2050
1631018773833,2050
1631018773837,2051
1631018773841,2052
1631018773845,2052
1631018773849,2051
1631018773853,2050
1631018773857,2050
1631018773861,2051
1631018773865,2053
1631018773869,2055
1631018773873,2056
1631018773877,2055
1631018773881,2053
1631018773885,2051
1631018773889,2051
1631018773893,2052
1631018773897,2055
1631018773901,2057
1631018773905,2058
1631018773909,2057
1631018773913,2056
1631018773917,2054
1631018773921,2053
1631018773925,2052
1631018773929,2052
1631018773933,2052
1631018773937,2052
1631018773941,2053
1631018773945,2053
1631018773949,2053
1631018773953,2052
1631018773957,2051
1631018773961,2051
1631018773965,2052
1631018773969,2053
1631018773973,2053
1631018773977,2054
1631018773981,2054
1631018773985,2054
1631018773989,2054
1631018773993,2054
1631018773997,2053
1631018774001,2052
1631018774005,2052
1631018774009,2052
1631018774013,2052
1631018774017,2053
1631018774021,2054
1631018774025,2054
1631018774029,2055
1631018774033,2054
1631018774037,2054
1631018774041,2053
1631018774045,2053
1631018774049,2053
1631018774053,2053
1631018774057,2053
1631018774061,2053
1631018774065,2054
1631018774069,2055
1631018774073,2055
1631018774077,2055
1631018774081,2054
1631018774085,2053
1631018774089,2053
1631018774093,2054
1631018774097,2054
1631018774101,2055
1631018774105,2055
1631018774109,2054
1631018774113,2053
1631018774117,2053
1631018774121,2054
1631018774125,2055
1631018774129,2055
1631018774133,2055
1631018774137,2055
1631018774141,2055
1631018774145,2055
1631018774149,2056
1631018774153,2057
1631018774157,2057
1631018774161,2056
1631018774165,2055
1631018774169,2054
1631018774173,2054
1631018774177,2054
1631018774181,2056
1631018774185,2058
1631018774189,2060
1631018774193,2062
1631018774197,2063
1631018774201,2064
1631018774205,2064
1631018774209,2065
1631018774213,2066
1631018774217,2068
1631018774221,2069
1631018774225,2069
1631018774229,2068
1631018774233,2066
1631018774237,2064
1631018774241,2062
1631018774245,2061
1631018774249,2060
1631018774253,2059
1631018774257,2058
1631018774261,2057
1631018774265,2056
1631018774269,2056
1631018774273,2056
1631018774277,2057
1631018774281,2056
1631018774285,2056
1631018774289,2056
1631018774293,2055
1631018774297,2055
1631018774301,2055
1631018774305,2055
1631018774309,2054
1631018774313,2052
1631018774317,2049
1631018774321,2049
1631018774325,2057
1631018774329,2075
1631018774333,2100
1631018774337,2122
1631018774341,2130
1631018774345,2118
1631018774349,2089
1631018774353,2056
1631018774357,2032
1631018774361,2021
1631018774365,2024
1631018774369,2035
1631018774373,2045
1631018774377,2051
1631018774381,2055
1631018774385,2057
1631018774389,2057
1631018774393,2056
1631018774397,2055
1631018774401,2054
1631018774405,2053
1631018774409,2053
1631018774413,2054
1631018774417,2055
1631018774421,2056
1631018774425,2057
1631018774429,2057
1631018774433,2057
1631018774437,2056
1631018774441,2056
1631018774445,2057
1631018774449,2058
1631018774453,2059
1631018774457,2060
1631018774461,2060
1631018774465,2060
1631018774469,2060
1631018774473,2060
1631018774477,2060
1631018774481,2061
1631018774485,2061
1631018774489,2061
1631018774493,2062
1631018774497,2062
1631018774501,2062
1631018774505,2064
1631018774509,2065
1631018774513,2066
1631018774517,2067
1631018774521,2068
1631018774525,2068
1631018774529,2069
1631018774533,2070
1631018774537,2072
1631018774541,2074
1631018774545,2076
1631018774549,2077
1631018774553,2078
1631018774557,2079
1631018774561,2079
1631018774565,2080
1631018774569,2080
1631018774573,2080
1631018774577,2080
1631018774581,2080
1631018774585,2079
1631018774589,2078
1631018774593,2077
1631018774597,2076
1631018774601,2074
1631018774605,2073
1631018774609,2072
1631018774613,2071
1631018774617,2070
1631018774621,2068
1631018774625,2066
1631018774629,2064
1631018774633,2062
1631018774637,2061
1631018774641,2059
1631018774645,2058
1631018774649,2057
1631018774653,2056
1631018774657,2055
1631018774661,2055
1631018774665,2055
1631018774669,2056
1631018774673,2056
1631018774677,2055
1631018774681,2054
1631018774685,2053
1631018774689,2052
1631018774693,2053
1631018774697,2053
1631018774701,2055
1631018774705,2055
1631018774709,2056
1631018774713,2055
1631018774717,2055
1631018774721,2055
1631018774725,2055
1631018774729,2055
1631018774733,2056
1631018774737,2056
1631018774741,2056
1631018774745,2056
1631018774749,2055
1631018774753,2055
1631018774757,2055
1631018774761,2055
1631018774765,2055
1631018774769,2055
1631018774773,2055
1631018774777,2056
1631018774781,2056
1631018774785,2056
1631018774789,2056
1631018774793,2056
1631018774797,2055
1631018774801,2055
1631018774805,2054
1631018774809,2054
1631018774813,2054
1631018774817,2054
1631018774821,2054
1631018774825,2054
1631018774829,2054
1631018774833,2053
1631018774837,2052
1631018774841,2052
1631018774845,2051
1631018774849,2050
1631018774853,2050
1631018774857,2050
1631018774861,2050
1631018774865,2052
1631018774869,2053
1631018774873,2053
1631018774877,2053
1631018774881,2052
1631018774885,2052
1631018774889,2052
1631018774893,2052
1631018774897,2052
1631018774901,2051
1631018774905,2051
1631018774909,2052
1631018774913,2052
1631018774917,2053
1631018774921,2053
1631018774925,2052
1631018774929,2051
1631018774933,2051
1631018774937,2051
1631018774941,2051
1631018774945,2051
1631018774949,2051
1631018774953,2051
1631018774957,2051
1631018774961,2051
1631018774965,2051
1631018774969,2051
1631018774973,2051
1631018774977,2051
1631018774981,2052
1631018774985,2053
1631018774989,2053
1631018774993,2053
1631018774997,2052
1631018775001,2051
1631018775005,2050
1631018775009,2050
1631018775013,2051
1631018775017,2054
1631018775021,2056
1631018775025,2057
1631018775029,2059
1631018775033,2060
1631018775037,2061
1631018775041,2062
1631018775045,2063
1631018775049,2063
1631018775053,2062
1631018775057,2062
1631018775061,2062
1631018775065,2061
1631018775069,2060
1631018775073,2059
1631018775077,2058
1631018775081,2057
1631018775085,2056
1631018775089,2055
1631018775093,2053
1631018775097,2052
1631018775101,2052
1631018775105,2052
1631018775109,2052
1631018775113,2052
1631018775117,2052
1631018775121,2052
1631018775125,2050
1631018775129,2049
1631018775133,2048
1631018775137,2047
1631018775141,2047
1631018775145,2048
1631018775149,2048
1631018775153,2047
1631018775157,2048
1631018775161,2058
1631018775165,2078
1631018775169,2102
1631018775173,2120
1631018775177,2122
1631018775181,2104
1631018775185,2073
1631018775189,2042
1631018775193,2021
1631018775197,2014
1631018775201,2021
1631018775205,2032
1631018775209,2041
1631018775213,2048
1631018775217,2050
1631018775221,2052
1631018775225,2052
1631018775229,2052
1631018775233,2052
1631018775237,2052
1631018775241,2051
1631018775245,2049
1631018775249,2048
1631018775253,2047
1631018775257,2048
1631018775261,2049
1631018775265,2051
1631018775269,2052
1631018775273,2053
1631018775277,2052
1631018775281,2051
1631018775285,2050
1631018775289,2051
1631018775293,2051
1631018775297,2053
1631018775301,2055
1631018775305,2057
1631018775309,2059
1631018775313,2060
1631018775317,2060
1631018775321,2059
1631018775325,2058
1631018775329,2058
1631018775333,2058
1631018775337,2059
1631018775341,2060
1631018775345,2062
1631018775349,2062
1631018775353,2062
1631018775357,2062
1631018775361,2062
1631018775365,2062
1631018775369,2064
1631018775373,2065
1631018775377,2068
1631018775381,2070
1631018775385,2072
1631018775389,2073
1631018775393,2074
1631018775397,2074
1631018775401,2074
1631018775405,2073
1631018775409,2073
1631018775413,2073
1631018775417,2074
1631018775421,2074
1631018775425,2074
1631018775429,2073
1631018775433,2071
1631018775437,2068
1631018775441,2065
1631018775445,2062
1631018775449,2059
1631018775453,2057
1631018775457,2057
1631018775461,2057
1631018775465,2057
1631018775469,2057
1631018775473,2055
1631018775477,2053
1631018775481,2051
1631018775485,2048
1631018775489,2048
1631018775493,2046
1631018775497,2046
1631018775501,2047
1631018775505,2048
1631018775509,2048
1631018775513,2048
1631018775517,2047
1631018775521,2046
1631018775525,2045
1631018775529,2046
1631018775533,2047
1631018775537,2048
1631018775541,2048
1631018775545,2048
1631018775549,2048
1631018775553,2048
1631018775557,2048
1631018775561,2048
1631018775565,2047
1631018775569,2047
1631018775573,2047
1631018775577,2047
1631018775581,2048
1631018775585,2048
1631018775589,2049
1631018775593,2049
1631018775597,2049
1631018775601,2048
1631018775605,2048
1631018775609,2047
1631018775613,2046
1631018775617,2045
1631018775621,2045
1631018775625,2045
1631018775629,2046
1631018775633,2047
1631018775637,2047
1631018775641,2047
1631018775645,2046
1631018775649,2045
1631018775653,2044
1631018775657,2044
1631018775661,2044
1631018775665,2045
1631018775669,2046
1631018775673,2046
1631018775677,2047
1631018775681,2047
1631018775685,2046
1631018775689,2045
1631018775693,2045
1631018775697,2044
1631018775701,2045
1631018775705,2046
1631018775709,2046
1631018775713,2047
1631018775717,2046
1631018775721,2045
1631018775725,2044
1631018775729,2044
1631018775733,2043
1631018775737,2043
1631018775741,2044
1631018775745,2044
1631018775749,2045
1631018775753,2046
1631018775757,2047
1631018775761,2047
1631018775765,2046
1631018775769,2045
1631018775773,2044
1631018775777,2044
1631018775781,2044
1631018775785,2045
1631018775789,2045
1631018775793,2045
1631018775797,2045
1631018775801,2045
1631018775805,2045
1631018775809,2047
1631018775813,2049
1631018775817,2051
1631018775821,2054
1631018775825,2056
1631018775829,2057
1631018775833,2058
1631018775837,2058
1631018775841,2058
1631018775845,2056
1631018775849,2055
1631018775853,2053
1631018775857,2053
1631018775861,2052
1631018775865,2052
1631018775869,2051
1631018775873,2049
1631018775877,2048
1631018775881,2045
1631018775885,2044
1631018775889,2043
1631018775893,2044
1631018775897,2044
1631018775901,2044
1631018775905,2045
1631018775909,2046
1631018775913,2046
1631018775917,2047
1631018775921,2046
1631018775925,2044
1631018775929,2042
1631018775933,2039
1631018775937,2036
1631018775941,2037
1631018775945,2047
1631018775949,2067
1631018775953,2094
1631018775957,2116
1631018775961,2123
1631018775965,2108
1631018775969,2077
1631018775973,2045
1631018775977,2020
1631018775981,2011
1631018775985,2014
1631018775989,2024
1631018775993,2033
1631018775997,2039
1631018776001,2043
1631018776005,2046
1631018776009,2048
1631018776013,2048
1631018776017,2047
1631018776021,2047
1631018776025,2046
1631018776029,2045
1631018776033,2045
1631018776037,2045
1631018776041,2045
1631018776045,2046
1631018776049,2046
1631018776053,2046
1631018776057,2047
1631018776061,2047
1631018776065,2048
1631018776069,2048
1631018776073,2048
1631018776077,2048
1631018776081,2048
1631018776085,2048
1631018776089,2048
1631018776093,2050
1631018776097,2052
1631018776101,2053
1631018776105,2053
1631018776109,2052
1631018776113,2052
1631018776117,2052
1631018776121,2053
1631018776125,2054
1631018776129,2056
1631018776133,2057
1631018776137,2058
1631018776141,2059
1631018776145,2060
1631018776149,2061
1631018776153,2062
1631018776157,2064
1631018776161,2065
1631018776165,2066
1631018776169,2066
1631018776173,2066
1631018776177,2066
1631018776181,2068
1631018776185,2070
1631018776189,2072
1631018776193,2073
1631018776197,2073
1631018776201,2072
1631018776205,2070
1631018776209,2069
1631018776213,2068
1631018776217,2067
1631018776221,2066
1631018776225,2065
1631018776229,2063
1631018776233,2061
1631018776237,2059
1631018776241,2058
1631018776245,2056
1631018776249,2053
1631018776253,2051
1631018776257,2050
1631018776261,2050
1631018776265,2050
1631018776269,2050
1631018776273,2050
1631018776277,2049
1631018776281,2049
1631018776285,2048
1631018776289,2048
1631018776293,2048
1631018776297,2047
1631018776301,2047
1631018776305,2047
1631018776309,2048
1631018776313,2048
1631018776317,2048
1631018776321,2048
1631018776325,2048
1631018776329,2047
1631018776333,2048
1631018776337,2048
1631018776341,2050
1631018776345,2051
1631018776349,2051
1631018776353,2050
1631018776357,2049
1631018776361,2048
1631018776365,2048
1631018776369,2049
1631018776373,2050
1631018776377,2050
1631018776381,2050
1631018776385,2050
1631018776389,2049
1631018776393,2048
1631018776397,2048
1631018776401,2048
1631018776405,2048
1631018776409,2048
1631018776413,2048
1631018776417,2048
1631018776421,2049
1631018776425,2049
1631018776429,2050
1631018776433,2050
1631018776437,2049
1631018776441,2048
1631018776445,2047
1631018776449,2047
1631018776453,2047
1631018776457,2047
1631018776461,2048
1631018776465,2048
1631018776469,2049
1631018776473,2050
1631018776477,2049
1631018776481,2049
1631018776485,2049
1631018776489,2048
1631018776493,2048
1631018776497,2048
1631018776501,2048
1631018776505,2048
1631018776509,2048
1631018776513,2049
1631018776517,2049
1631018776521,2048
1631018776525,2048
1631018776529,2048
1631018776533,2048
1631018776537,2049
1631018776541,2051
1631018776545,2053
1631018776549,2055
1631018776553,2056
1631018776557,2057
1631018776561,2058
1631018776565,2060
1631018776569,2061
1631018776573,2062
1631018776577,2062
1631018776581,2062
1631018776585,2062
1631018776589,2061
1631018776593,2061
1631018776597,2060
1631018776601,2059
1631018776605,2057
1631018776609,2055
1631018776613,2053
1631018776617,2052
1631018776621,2052
1631018776625,2052
1631018776629,2052
1631018776633,2051
1631018776637,2051
1631018776641,2051
1631018776645,2051
1631018776649,2052
1631018776653,2052
1631018776657,2053
1631018776661,2053
1631018776665,2052
1631018776669,2050
1631018776673,2049
1631018776677,2048
1631018776681,2046
1631018776685,2050
1631018776689,2065
1631018776693,2090
1631018776697,2115
1631018776701,2130
1631018776705,2125
1631018776709,2100
1631018776713,2064
1631018776717,2034
1631018776721,2017
1631018776725,2016
1631018776729,2027
1631018776733,2040
1631018776737,2048
1631018776741,2052
1631018776745,2054
1631018776749,2054
1631018776753,2053
1631018776757,2052
1631018776761,2051
1631018776765,2052
1631018776769,2053
1631018776773,2054
1631018776777,2054
1631018776781,2054
1631018776785,2054
1631018776789,2055
1631018776793,2055
1631018776797,2055
1631018776801,2056
1631018776805,2056
1631018776809,2056
1631018776813,2056
1631018776817,2057
1631018776821,2057
1631018776825,2058
1631018776829,2058
1631018776833,2058
1631018776837,2058
1631018776841,2058
1631018776845,2058
1631018776849,2058
1631018776853,2059
1631018776857,2060
1631018776861,2062
1631018776865,2064
1631018776869,2065
1631018776873,2066
1631018776877,2066
1631018776881,2065
1631018776885,2065
1631018776889,2065
1631018776893,2067
1631018776897,2069
1631018776901,2071
1631018776905,2073
1631018776909,2074
1631018776913,2076
1631018776917,2076
1631018776921,2077
1631018776925,2077
1631018776929,2077
1631018776933,2078
1631018776937,2078
1631018776941,2078
1631018776945,2077
1631018776949,2075
1631018776953,2074
1631018776957,2073
1631018776961,2072
1631018776965,2072
1631018776969,2070
1631018776973,2069
1631018776977,2067
1631018776981,2065
1631018776985,2063
1631018776989,2061
1631018776993,2059
1631018776997,2058
1631018777001,2058
1631018777005,2058
1631018777009,2058
1631018777013,2056
1631018777017,2055
1631018777021,2053
1631018777025,2052
1631018777029,2052
1631018777033,2054
1631018777037,2054
1631018777041,2055
1631018777045,2054
1631018777049,2052
1631018777053,2051
1631018777057,2050
1631018777061,2051
1631018777065,2053
1631018777069,2055
1631018777073,2056
1631018777077,2056
1631018777081,2056
1631018777085,2054
1631018777089,2053
1631018777093,2053
1631018777097,2053
1631018777101,2054
1631018777105,2055
1631018777109,2056
1631018777113,2056
1631018777117,2056
1631018777121,2055
1631018777125,2054
1631018777129,2053
1631018777133,2053
1631018777137,2053
1631018777141,2054
1631018777145,2055
1631018777149,2055
1631018777153,2055
1631018777157,2053
1631018777161,2052
1631018777165,2051
1631018777169,2052
1631018777173,2053
1631018777177,2053
1631018777181,2053
1631018777185,2052
1631018777189,2051
1631018777193,2051
1631018777197,2052
1631018777201,2053
1631018777205,2053
1631018777209,2053
1631018777213,2052
1631018777217,2051
1631018777221,2051
1631018777225,2051
1631018777229,2051
1631018777233,2051
1631018777237,2051
1631018777241,2052
1631018777245,2052
1631018777249,2052
1631018777253,2052
1631018777257,2051
1631018777261,2052
1631018777265,2055
1631018777269,2060
1631018777273,2064
1631018777277,2066
1631018777281,2065
1631018777285,2062
1631018777289,2058
1631018777293,2055
1631018777297,2053
1631018777301,2054
1631018777305,2056
1631018777309,2057
1631018777313,2056
1631018777317,2054
1631018777321,2051
1631018777325,2048
1631018777329,2046
1631018777333,2045
1631018777337,2045
1631018777341,2046
1631018777345,2048
1631018777349,2048
1631018777353,2048
1631018777357,2048
1631018777361,2045
1631018777365,2044
1631018777369,2043
1631018777373,2043
1631018777377,2044
1631018777381,2045
1631018777385,2044
1631018777389,2043
1631018777393,2049
1631018777397,2065
1631018777401,2089
1631018777405,2112
1631018777409,2121
1631018777413,2110
1631018777417,2082
1631018777421,2049
1631018777425,2023
1631018777429,2011
1631018777433,2013
1631018777437,2023
1631018777441,2033
1631018777445,2040
1631018777449,2044
1631018777453,2046
1631018777457,2047
1631018777461,2047
1631018777465,2046
1631018777469,2047
1631018777473,2047
1631018777477,2048
1631018777481,2048
1631018777485,2048
1631018777489,2047
1631018777493,2047
1631018777497,2047
1631018777501,2048
1631018777505,2049
1631018777509,2051
1631018777513,2053
1631018777517,2053
1631018777521,2053
1631018777525,2052
1631018777529,2051
1631018777533,2050
1631018777537,2050
1631018777541,2052
1631018777545,2053
1631018777549,2053
1631018777553,2053
1631018777557,2052
1631018777561,2052
1631018777565,2053
1631018777569,2055
1631018777573,2056
1631018777577,2058
1631018777581,2059
1631018777585,2060
1631018777589,2061
1631018777593,2062
1631018777597,2064
1631018777601,2065
1631018777605,2065
1631018777609,2065
1631018777613,2066
1631018777617,2067
1631018777621,2069
1631018777625,2071
1631018777629,2072
1631018777633,2071
1631018777637,2070
1631018777641,2068
1631018777645,2068
1631018777649,2069
1631018777653,2071
1631018777657,2071
1631018777661,2070
1631018777665,2067
1631018777669,2065
1631018777673,2062
1631018777677,2061
1631018777681,2061
1631018777685,2061
1631018777689,2060
1631018777693,2059
1631018777697,2056
1631018777701,2055
1631018777705,2054
1631018777709,2054
1631018777713,2053
1631018777717,2050
1631018777721,2048
1631018777725,2046
1631018777729,2045
1631018777733,2047
1631018777737,2048
1631018777741,2050
1631018777745,2050
1631018777749,2049
1631018777753,2048
1631018777757,2048
1631018777761,2048
1631018777765,2048
1631018777769,2048
1631018777773,2048
1631018777777,2048
1631018777781,2049
1631018777785,2049
1631018777789,2050
1631018777793,2050
1631018777797,2050
1631018777801,2050
1631018777805,2050
1631018777809,2050
1631018777813,2050
1631018777817,2049
1631018777821,2048
1631018777825,2048
1631018777829,2049
1631018777833,2050
1631018777837,2050
1631018777841,2050
1631018777845,2049
1631018777849,2048
1631018777853,2047
1631018777857,2047
1631018777861,2048
1631018777865,2049
1631018777869,2050
1631018777873,2050
1631018777877,2049
1631018777881,2048
1631018777885,2048
1631018777889,2047
1631018777893,2046
1631018777897,2046
1631018777901,2046
1631018777905,2047
1631018777909,2048
1631018777913,2049
1631018777917,2049
1631018777921,2048
1631018777925,2047
1631018777929,2046
1631018777933,2045
1631018777937,2045
1631018777941,2046
1631018777945,2047
1631018777949,2048
1631018777953,2048
1631018777957,2049
1631018777961,2049
1631018777965,2051
1631018777969,2053
1631018777973,2056
1631018777977,2059
1631018777981,2061
1631018777985,2061
1631018777989,2058
1631018777993,2055
1631018777997,2053
1631018778001,2053
1631018778005,2054
1631018778009,2055
1631018778013,2054
1631018778017,2051
1631018778021,2048
1631018778025,2046
1631018778029,2045
1631018778033,2045
1631018778037,2045
1631018778041,2045
1631018778045,2045
1631018778049,2045
1631018778053,2044
1631018778057,2044
1631018778061,2043
1631018778065,2043
1631018778069,2044
1631018778073,2044
1631018778077,2045
1631018778081,2045
1631018778085,2043
1631018778089,2039
1631018778093,2039
1631018778097,2047
1631018778101,2066
1631018778105,2094
1631018778109,2118
1631018778113,2126
1631018778117,2112
1631018778121,2079
1631018778125,2042
1631018778129,2014
1631018778133,2002
1631018778137,2006
1631018778141,2020
1631018778145,2033
1631018778149,2041
1631018778153,2045
1631018778157,2046
1631018778161,2047
1631018778165,2047
1631018778169,2047
1631018778173,2047
1631018778177,2046
1631018778181,2045
1631018778185,2044
1631018778189,2045
1631018778193,2047
1631018778197,2048
1631018778201,2048
1631018778205,2047
1631018778209,2046
1631018778213,2046
1631018778217,2048
1631018778221,2049
1631018778225,2050
1631018778229,2050
1631018778233,2049
1631018778237,2048
1631018778241,2048
1631018778245,2048
1631018778249,2048
1631018778253,2049
1631018778257,2050
1631018778261,2052
1631018778265,2054
1631018778269,2055
1631018778273,2054
1631018778277,2054
1631018778281,2054
1631018778285,2054
1631018778289,2055
1631018778293,2057
1631018778297,2059
1631018778301,2061
1631018778305,2063
1631018778309,2064
1631018778313,2064
1631018778317,2065
1631018778321,2065
1631018778325,2066
1631018778329,2067
1631018778333,2068
1631018778337,2068
1631018778341,2068
1631018778345,2068
1631018778349,2068
1631018778353,2068
1631018778357,2068
1631018778361,2067
1631018778365,2066
1631018778369,2065
1631018778373,2063
1631018778377,2061
1631018778381,2060
1631018778385,2059
1631018778389,2058
1631018778393,2057
1631018778397,2055
1631018778401,2053
1631018778405,2051
1631018778409,2049
1631018778413,2048
1631018778417,2048
1631018778421,2048
1631018778425,2048
1631018778429,2048
1631018778433,2047
1631018778437,2047
1631018778441,2047
1631018778445,2047
1631018778449,2046
1631018778453,2046
1631018778457,2046
1631018778461,2047
1631018778465,2048
1631018778469,2049
1631018778473,2050
1631018778477,2049
1631018778481,2048
1631018778485,2048
1631018778489,2047
1631018778493,2048
1631018778497,2048
1631018778501,2048
1631018778505,2048
1631018778509,2048
1631018778513,2048
1631018778517,2048
1631018778521,2047
1631018778525,2047
1631018778529,2048
1631018778533,2048
1631018778537,2048
1631018778541,2048
1631018778545,2048
1631018778549,2048
1631018778553,2048
1631018778557,2048
1631018778561,2048
1631018778565,2047
1631018778569,2046
1631018778573,2045
1631018778577,2046
1631018778581,2047
1631018778585,2048
1631018778589,2048
1631018778593,2048
1631018778597,2047
1631018778601,2046
1631018778605,2045
1631018778609,2045
1631018778613,2045
1631018778617,2045
1631018778621,2046
1631018778625,2045
1631018778629,2045
1631018778633,2044
1631018778637,2044
1631018778641,2044
1631018778645,2044
1631018778649,2045
1631018778653,2046
1631018778657,2047
1631018778661,2048
1631018778665,2048
1631018778669,2048
1631018778673,2048
1631018778677,2048
1631018778681,2048
1631018778685,2050
1631018778689,2054
1631018778693,2057
1631018778697,2059
1631018778701,2059
1631018778705,2058
1631018778709,2057
1631018778713,2057
1631018778717,2056
1631018778721,2054
1631018778725,2050
1631018778729,2047
1631018778733,2045
1631018778737,2046
1631018778741,2048
1631018778745,2050
1631018778749,2052
1631018778753,2052
1631018778757,2051
1631018778761,2049
1631018778765,2048
1631018778769,2046
1631018778773,2045
1631018778777,2046
1631018778781,2048
1631018778785,2049
1631018778789,2050
1631018778793,2050
1631018778797,2048
1631018778801,2046
1631018778805,2042
1631018778809,2044
1631018778813,2056
1631018778817,2079
1631018778821,2107
1631018778825,2127
1631018778829,2128
1631018778833,2107
1631018778837,2071
1631018778841,2038
1631018778845,2017
1631018778849,2013
1631018778853,2023
1631018778857,2037
1631018778861,2048
1631018778865,2053
1631018778869,2056
1631018778873,2056
1631018778877,2055
1631018778881,2054
1631018778885,2054
1631018778889,2054
1631018778893,2054
1631018778897,2054
1631018778901,2055
1631018778905,2056
1631018778909,2056
1631018778913,2056
1631018778917,2056
1631018778921,2057
1631018778925,2057
1631018778929,2058
1631018778933,2059
1631018778937,2059
1631018778941,2060
1631018778945,2060
1631018778949,2060
1631018778953,2060
1631018778957,2060
1631018778961,2061
1631018778965,2061
1631018778969,2062
1631018778973,2061
1631018778977,2061
1631018778981,2061
1631018778985,2062
1631018778989,2063
1631018778993,2064
1631018778997,2065
1631018779001,2065
1631018779005,2066
1631018779009,2067
1631018779013,2068
1631018779017,2069
1631018779021,2070
1631018779025,2072
1631018779029,2073
1631018779033,2073
1631018779037,2074
1631018779041,2075
1631018779045,2075
1631018779049,2075
1631018779053,2075
1631018779057,2075
1631018779061,2076
1631018779065,2077
1631018779069,2077
1631018779073,2077
1631018779077,2075
1631018779081,2073
1631018779085,2071
1631018779089,2069
1631018779093,2069
1631018779097,2068
1631018779101,2067
1631018779105,2065
1631018779109,2063
1631018779113,2062
1631018779117,2061
1631018779121,2060
1631018779125,2059
1631018779129,2058
1631018779133,2057
