timestamp,ecg_waveform
1630067051816,2124
1630067051820,2037
1630067051824,1983
1630067051828,1975
1630067051832,1999
1630067051836,2032
1630067051840,2051
1630067051844,2053
1630067051848,2046
1630067051852,2040
1630067051856,2037
1630067051860,2037
1630067051864,2038
1630067051868,2038
1630067051872,2039
1630067051876,2040
1630067051880,2041
1630067051884,2041
1630067051888,2042
1630067051892,2043
1630067051896,2043
1630067051900,2044
1630067051904,2044
1630067051908,2045
1630067051912,2045
1630067051916,2046
1630067051920,2048
1630067051924,2048
1630067051928,2049
1630067051932,2050
1630067051936,2051
1630067051940,2051
1630067051944,2052
1630067051948,2053
1630067051952,2055
1630067051956,2057
1630067051960,2058
1630067051964,2060
1630067051968,2061
1630067051972,2062
1630067051976,2064
1630067051980,2066
1630067051984,2068
1630067051988,2070
1630067051992,2072
1630067051996,2074
1630067052000,2076
1630067052004,2079
1630067052008,2082
1630067052012,2085
1630067052016,2088
1630067052020,2090
1630067052024,2093
1630067052028,2096
1630067052032,2098
1630067052036,2099
1630067052040,2101
1630067052044,2102
1630067052048,2103
1630067052052,2104
1630067052056,2104
1630067052060,2103
1630067052064,2102
1630067052068,2099
1630067052072,2095
1630067052076,2091
1630067052080,2085
1630067052084,2079
1630067052088,2073
1630067052092,2066
1630067052096,2060
1630067052100,2055
1630067052104,2050
1630067052108,2047
1630067052112,2043
1630067052116,2041
1630067052120,2038
1630067052124,2036
1630067052128,2033
1630067052132,2031
1630067052136,2030
1630067052140,2029
1630067052144,2029
1630067052148,2029
1630067052152,2030
1630067052156,2030
1630067052160,2031
1630067052164,2030
1630067052168,2030
1630067052172,2030
1630067052176,2029
1630067052180,2029
1630067052184,2029
1630067052188,2030
1630067052192,2031
1630067052196,2032
1630067052200,2033
1630067052204,2033
1630067052208,2033
1630067052212,2033
1630067052216,2034
1630067052220,2034
1630067052224,2034
1630067052228,2034
1630067052232,2034
1630067052236,2035
1630067052240,2034
1630067052244,2034
1630067052248,2034
1630067052252,2033
1630067052256,2032
1630067052260,2032
1630067052264,2032
1630067052268,2033
1630067052272,2033
1630067052276,2033
1630067052280,2032
1630067052284,2031
1630067052288,2031
1630067052292,2031
1630067052296,2031
1630067052300,2030
1630067052304,2030
1630067052308,2029
1630067052312,2029
1630067052316,2030
1630067052320,2030
1630067052324,2031
1630067052328,2031
1630067052332,2030
1630067052336,2029
1630067052340,2029
1630067052344,2028
1630067052348,2029
1630067052352,2030
1630067052356,2031
1630067052360,2031
1630067052364,2031
1630067052368,2031
1630067052372,2031
1630067052376,2030
1630067052380,2030
1630067052384,2031
1630067052388,2032
1630067052392,2033
1630067052396,2033
1630067052400,2034
1630067052404,2034
1630067052408,2034
1630067052412,2033
1630067052416,2033
1630067052420,2032
1630067052424,2032
1630067052428,2032
1630067052432,2032
1630067052436,2033
1630067052440,2033
1630067052444,2033
1630067052448,2033
1630067052452,2032
1630067052456,2032
1630067052460,2032
1630067052464,2032
1630067052468,2033
1630067052472,2034
1630067052476,2036
1630067052480,2036
1630067052484,2036
1630067052488,2036
1630067052492,2036
1630067052496,2035
1630067052500,2035
1630067052504,2034
1630067052508,2035
1630067052512,2035
1630067052516,2035
1630067052520,2036
1630067052524,2036
1630067052528,2035
1630067052532,2034
1630067052536,2033
1630067052540,2033
1630067052544,2033
1630067052548,2034
1630067052552,2035
1630067052556,2037
1630067052560,2038
1630067052564,2040
1630067052568,2043
1630067052572,2045
1630067052576,2048
1630067052580,2048
1630067052584,2049
1630067052588,2048
1630067052592,2047
1630067052596,2045
1630067052600,2042
1630067052604,2040
1630067052608,2039
1630067052612,2038
1630067052616,2038
1630067052620,2037
1630067052624,2036
1630067052628,2035
1630067052632,2035
1630067052636,2035
1630067052640,2036
1630067052644,2036
1630067052648,2036
1630067052652,2035
1630067052656,2036
1630067052660,2037
1630067052664,2037
1630067052668,2035
1630067052672,2029
1630067052676,2020
1630067052680,2014
1630067052684,2017
1630067052688,2043
1630067052692,2099
1630067052696,2173
1630067052700,2237
1630067052704,2261
1630067052708,2227
1630067052712,2146
1630067052716,2051
1630067052720,1983
1630067052724,1960
1630067052728,1978
1630067052732,2013
1630067052736,2043
1630067052740,2052
1630067052744,2048
1630067052748,2042
1630067052752,2038
1630067052756,2036
1630067052760,2036
1630067052764,2037
1630067052768,2038
1630067052772,2039
1630067052776,2040
1630067052780,2041
1630067052784,2043
1630067052788,2044
1630067052792,2045
1630067052796,2046
1630067052800,2047
1630067052804,2048
1630067052808,2048
1630067052812,2048
1630067052816,2049
1630067052820,2050
1630067052824,2051
1630067052828,2052
1630067052832,2053
1630067052836,2055
1630067052840,2056
1630067052844,2058
1630067052848,2059
1630067052852,2061
1630067052856,2062
1630067052860,2063
1630067052864,2065
1630067052868,2067
1630067052872,2069
1630067052876,2071
1630067052880,2073
1630067052884,2075
1630067052888,2077
1630067052892,2079
1630067052896,2081
1630067052900,2082
1630067052904,2085
1630067052908,2087
1630067052912,2090
1630067052916,2093
1630067052920,2096
1630067052924,2099
1630067052928,2101
1630067052932,2102
1630067052936,2103
1630067052940,2104
1630067052944,2104
1630067052948,2105
1630067052952,2106
1630067052956,2106
1630067052960,2106
1630067052964,2104
1630067052968,2101
1630067052972,2097
1630067052976,2091
1630067052980,2085
1630067052984,2079
1630067052988,2074
1630067052992,2068
1630067052996,2063
1630067053000,2059
1630067053004,2056
1630067053008,2052
1630067053012,2049
1630067053016,2047
1630067053020,2044
1630067053024,2041
1630067053028,2039
1630067053032,2038
1630067053036,2038
1630067053040,2038
1630067053044,2039
1630067053048,2039
1630067053052,2039
1630067053056,2039
1630067053060,2038
1630067053064,2038
1630067053068,2037
1630067053072,2038
1630067053076,2039
1630067053080,2041
1630067053084,2042
1630067053088,2043
1630067053092,2044
1630067053096,2043
1630067053100,2043
1630067053104,2043
1630067053108,2043
1630067053112,2043
1630067053116,2045
1630067053120,2045
1630067053124,2046
1630067053128,2047
1630067053132,2047
1630067053136,2046
1630067053140,2045
1630067053144,2045
1630067053148,2045
1630067053152,2045
1630067053156,2046
1630067053160,2046
1630067053164,2045
1630067053168,2045
1630067053172,2044
1630067053176,2044
1630067053180,2044
1630067053184,2044
1630067053188,2044
1630067053192,2043
1630067053196,2043
1630067053200,2043
1630067053204,2043
1630067053208,2043
1630067053212,2042
1630067053216,2041
1630067053220,2040
1630067053224,2040
1630067053228,2040
1630067053232,2041
1630067053236,2042
1630067053240,2042
1630067053244,2042
1630067053248,2042
1630067053252,2042
1630067053256,2042
1630067053260,2041
1630067053264,2041
1630067053268,2040
1630067053272,2040
1630067053276,2040
1630067053280,2041
1630067053284,2041
1630067053288,2041
1630067053292,2042
1630067053296,2041
1630067053300,2041
1630067053304,2041
1630067053308,2041
1630067053312,2042
1630067053316,2042
1630067053320,2043
1630067053324,2043
1630067053328,2042
1630067053332,2042
1630067053336,2041
1630067053340,2041
1630067053344,2041
1630067053348,2041
1630067053352,2041
1630067053356,2042
1630067053360,2042
1630067053364,2042
1630067053368,2042
1630067053372,2043
1630067053376,2043
1630067053380,2043
1630067053384,2044
1630067053388,2045
1630067053392,2045
1630067053396,2046
1630067053400,2046
1630067053404,2047
1630067053408,2047
1630067053412,2047
1630067053416,2047
1630067053420,2047
1630067053424,2047
1630067053428,2047
1630067053432,2047
1630067053436,2048
1630067053440,2048
1630067053444,2048
1630067053448,2048
1630067053452,2048
1630067053456,2048
1630067053460,2048
1630067053464,2047
1630067053468,2047
1630067053472,2046
1630067053476,2046
1630067053480,2047
1630067053484,2048
1630067053488,2048
1630067053492,2050
1630067053496,2053
1630067053500,2054
1630067053504,2056
1630067053508,2058
1630067053512,2060
1630067053516,2062
1630067053520,2063
1630067053524,2063
1630067053528,2062
1630067053532,2060
1630067053536,2058
1630067053540,2056
1630067053544,2054
1630067053548,2053
1630067053552,2052
1630067053556,2052
1630067053560,2051
1630067053564,2050
1630067053568,2050
1630067053572,2050
1630067053576,2049
1630067053580,2048
1630067053584,2048
1630067053588,2049
1630067053592,2050
1630067053596,2052
1630067053600,2053
1630067053604,2050
1630067053608,2044
1630067053612,2035
1630067053616,2028
1630067053620,2033
1630067053624,2061
1630067053628,2121
1630067053632,2197
1630067053636,2264
1630067053640,2289
1630067053644,2256
1630067053648,2176
1630067053652,2083
1630067053656,2018
1630067053660,1995
1630067053664,2010
1630067053668,2040
1630067053672,2062
1630067053676,2066
1630067053680,2058
1630067053684,2051
1630067053688,2048
1630067053692,2047
1630067053696,2048
1630067053700,2048
1630067053704,2048
1630067053708,2048
1630067053712,2048
1630067053716,2049
1630067053720,2050
1630067053724,2051
1630067053728,2052
1630067053732,2053
1630067053736,2053
1630067053740,2054
1630067053744,2054
1630067053748,2055
1630067053752,2056
1630067053756,2058
1630067053760,2059
1630067053764,2060
1630067053768,2061
1630067053772,2061
1630067053776,2062
1630067053780,2062
1630067053784,2064
1630067053788,2065
1630067053792,2067
1630067053796,2069
1630067053800,2071
1630067053804,2072
1630067053808,2074
1630067053812,2076
1630067053816,2077
1630067053820,2079
1630067053824,2081
1630067053828,2083
1630067053832,2085
1630067053836,2088
1630067053840,2090
1630067053844,2093
1630067053848,2095
1630067053852,2097
1630067053856,2100
1630067053860,2101
1630067053864,2103
1630067053868,2105
1630067053872,2107
1630067053876,2109
1630067053880,2110
1630067053884,2111
1630067053888,2112
1630067053892,2111
1630067053896,2110
1630067053900,2108
1630067053904,2106
1630067053908,2102
1630067053912,2098
1630067053916,2093
1630067053920,2088
1630067053924,2082
1630067053928,2076
1630067053932,2071
1630067053936,2066
1630067053940,2061
1630067053944,2057
1630067053948,2053
1630067053952,2049
1630067053956,2048
1630067053960,2045
1630067053964,2044
1630067053968,2043
1630067053972,2042
1630067053976,2041
1630067053980,2041
1630067053984,2040
1630067053988,2040
1630067053992,2040
1630067053996,2040
1630067054000,2041
1630067054004,2042
1630067054008,2042
1630067054012,2042
1630067054016,2042
1630067054020,2042
1630067054024,2042
1630067054028,2043
1630067054032,2043
1630067054036,2044
1630067054040,2044
1630067054044,2044
1630067054048,2044
1630067054052,2044
1630067054056,2044
1630067054060,2044
1630067054064,2044
1630067054068,2044
1630067054072,2045
1630067054076,2045
1630067054080,2045
1630067054084,2045
1630067054088,2045
1630067054092,2044
1630067054096,2044
1630067054100,2044
1630067054104,2044
1630067054108,2043
1630067054112,2044
1630067054116,2044
1630067054120,2043
1630067054124,2042
1630067054128,2041
1630067054132,2040
1630067054136,2040
1630067054140,2039
1630067054144,2039
1630067054148,2039
1630067054152,2039
1630067054156,2039
1630067054160,2039
1630067054164,2040
1630067054168,2040
1630067054172,2039
1630067054176,2039
1630067054180,2038
1630067054184,2037
1630067054188,2038
1630067054192,2038
1630067054196,2040
1630067054200,2041
1630067054204,2041
1630067054208,2041
1630067054212,2041
1630067054216,2041
1630067054220,2041
1630067054224,2040
1630067054228,2041
1630067054232,2040
1630067054236,2041
1630067054240,2040
1630067054244,2040
1630067054248,2040
1630067054252,2040
1630067054256,2041
1630067054260,2041
1630067054264,2041
1630067054268,2041
1630067054272,2042
1630067054276,2042
1630067054280,2042
1630067054284,2042
1630067054288,2043
1630067054292,2043
1630067054296,2043
1630067054300,2043
1630067054304,2043
1630067054308,2043
1630067054312,2043
1630067054316,2043
1630067054320,2043
1630067054324,2044
1630067054328,2045
1630067054332,2046
1630067054336,2046
1630067054340,2045
1630067054344,2044
1630067054348,2043
1630067054352,2043
1630067054356,2043
1630067054360,2044
1630067054364,2045
1630067054368,2046
1630067054372,2046
1630067054376,2045
1630067054380,2045
1630067054384,2045
1630067054388,2045
1630067054392,2045
1630067054396,2046
1630067054400,2046
1630067054404,2045
1630067054408,2045
1630067054412,2044
1630067054416,2044
1630067054420,2044
1630067054424,2045
1630067054428,2048
1630067054432,2049
1630067054436,2053
1630067054440,2056
1630067054444,2057
1630067054448,2058
1630067054452,2056
1630067054456,2055
1630067054460,2052
1630067054464,2050
1630067054468,2048
1630067054472,2047
1630067054476,2046
1630067054480,2045
1630067054484,2044
1630067054488,2043
1630067054492,2042
1630067054496,2042
1630067054500,2041
1630067054504,2041
1630067054508,2041
1630067054512,2041
1630067054516,2043
1630067054520,2045
1630067054524,2047
1630067054528,2048
1630067054532,2044
1630067054536,2036
1630067054540,2025
1630067054544,2019
1630067054548,2026
1630067054552,2059
1630067054556,2123
1630067054560,2199
1630067054564,2257
1630067054568,2268
1630067054572,2221
1630067054576,2133
1630067054580,2042
1630067054584,1983
1630067054588,1971
1630067054592,1994
1630067054596,2029
1630067054600,2052
1630067054604,2058
1630067054608,2051
1630067054612,2045
1630067054616,2041
1630067054620,2040
1630067054624,2039
1630067054628,2040
1630067054632,2040
1630067054636,2041
1630067054640,2041
1630067054644,2042
1630067054648,2043
1630067054652,2044
1630067054656,2044
1630067054660,2044
1630067054664,2045
1630067054668,2046
1630067054672,2048
1630067054676,2049
1630067054680,2051
1630067054684,2053
1630067054688,2054
1630067054692,2054
1630067054696,2054
1630067054700,2055
1630067054704,2056
1630067054708,2057
1630067054712,2058
1630067054716,2059
1630067054720,2059
1630067054724,2060
1630067054728,2062
1630067054732,2063
1630067054736,2065
1630067054740,2067
1630067054744,2068
1630067054748,2070
1630067054752,2073
1630067054756,2076
1630067054760,2078
1630067054764,2081
1630067054768,2083
1630067054772,2085
1630067054776,2087
1630067054780,2090
1630067054784,2092
1630067054788,2095
1630067054792,2098
1630067054796,2101
1630067054800,2103
1630067054804,2105
1630067054808,2107
1630067054812,2106
1630067054816,2106
1630067054820,2104
1630067054824,2102
1630067054828,2100
1630067054832,2097
1630067054836,2095
1630067054840,2090
1630067054844,2085
1630067054848,2079
1630067054852,2072
1630067054856,2066
1630067054860,2060
1630067054864,2055
1630067054868,2051
1630067054872,2048
1630067054876,2044
1630067054880,2041
1630067054884,2038
1630067054888,2035
1630067054892,2033
1630067054896,2031
1630067054900,2029
1630067054904,2029
1630067054908,2028
1630067054912,2029
1630067054916,2029
1630067054920,2028
1630067054924,2028
1630067054928,2029
1630067054932,2029
1630067054936,2029
1630067054940,2029
1630067054944,2029
1630067054948,2030
1630067054952,2031
1630067054956,2031
1630067054960,2032
1630067054964,2032
1630067054968,2033
1630067054972,2033
1630067054976,2033
1630067054980,2034
1630067054984,2034
1630067054988,2034
1630067054992,2034
1630067054996,2035
1630067055000,2035
1630067055004,2036
1630067055008,2036
1630067055012,2035
1630067055016,2035
1630067055020,2034
1630067055024,2033
1630067055028,2033
1630067055032,2033
1630067055036,2033
1630067055040,2033
1630067055044,2033
1630067055048,2033
1630067055052,2032
1630067055056,2031
1630067055060,2030
1630067055064,2031
1630067055068,2031
1630067055072,2031
1630067055076,2032
1630067055080,2033
1630067055084,2033
1630067055088,2033
1630067055092,2032
1630067055096,2032
1630067055100,2032
1630067055104,2032
1630067055108,2032
1630067055112,2033
1630067055116,2034
1630067055120,2034
1630067055124,2034
1630067055128,2034
1630067055132,2033
1630067055136,2032
1630067055140,2031
1630067055144,2032
1630067055148,2034
1630067055152,2035
1630067055156,2036
1630067055160,2037
1630067055164,2037
1630067055168,2038
1630067055172,2038
1630067055176,2038
1630067055180,2038
1630067055184,2037
1630067055188,2037
1630067055192,2037
1630067055196,2038
1630067055200,2039
1630067055204,2040
1630067055208,2041
1630067055212,2041
1630067055216,2040
1630067055220,2039
1630067055224,2039
1630067055228,2040
1630067055232,2040
1630067055236,2042
1630067055240,2042
1630067055244,2042
1630067055248,2042
1630067055252,2042
1630067055256,2043
1630067055260,2043
1630067055264,2045
1630067055268,2047
1630067055272,2048
1630067055276,2051
1630067055280,2054
1630067055284,2056
1630067055288,2058
1630067055292,2058
1630067055296,2058
1630067055300,2056
1630067055304,2054
1630067055308,2052
1630067055312,2051
1630067055316,2050
1630067055320,2049
1630067055324,2048
1630067055328,2048
1630067055332,2048
1630067055336,2047
1630067055340,2046
1630067055344,2046
1630067055348,2046
1630067055352,2046
1630067055356,2047
1630067055360,2048
1630067055364,2049
1630067055368,2051
1630067055372,2052
1630067055376,2049
1630067055380,2042
1630067055384,2033
1630067055388,2028
1630067055392,2034
1630067055396,2065
1630067055400,2127
1630067055404,2204
1630067055408,2265
1630067055412,2280
1630067055416,2236
1630067055420,2145
1630067055424,2048
1630067055428,1983
1630067055432,1967
1630067055436,1992
1630067055440,2031
1630067055444,2060
1630067055448,2069
1630067055452,2063
1630067055456,2055
1630067055460,2049
1630067055464,2048
1630067055468,2048
1630067055472,2048
1630067055476,2050
1630067055480,2052
1630067055484,2053
1630067055488,2054
1630067055492,2055
1630067055496,2055
1630067055500,2056
1630067055504,2057
1630067055508,2058
1630067055512,2059
1630067055516,2060
1630067055520,2061
1630067055524,2061
1630067055528,2062
1630067055532,2063
1630067055536,2065
1630067055540,2066
1630067055544,2067
1630067055548,2068
1630067055552,2069
1630067055556,2070
1630067055560,2072
1630067055564,2074
1630067055568,2076
1630067055572,2077
1630067055576,2078
1630067055580,2079
1630067055584,2081
1630067055588,2082
1630067055592,2084
1630067055596,2087
1630067055600,2089
1630067055604,2091
1630067055608,2093
1630067055612,2095
1630067055616,2097
1630067055620,2100
1630067055624,2103
1630067055628,2106
1630067055632,2109
1630067055636,2112
1630067055640,2114
1630067055644,2116
1630067055648,2117
1630067055652,2117
1630067055656,2118
1630067055660,2118
1630067055664,2117
1630067055668,2116
1630067055672,2113
1630067055676,2109
1630067055680,2104
1630067055684,2097
1630067055688,2090
1630067055692,2083
1630067055696,2077
1630067055700,2071
1630067055704,2066
1630067055708,2061
1630067055712,2056
1630067055716,2053
1630067055720,2050
1630067055724,2048
1630067055728,2046
1630067055732,2044
1630067055736,2042
1630067055740,2039
1630067055744,2038
1630067055748,2037
1630067055752,2037
1630067055756,2038
1630067055760,2038
1630067055764,2039
1630067055768,2039
1630067055772,2039
1630067055776,2040
1630067055780,2040
1630067055784,2040
1630067055788,2041
1630067055792,2041
1630067055796,2042
1630067055800,2043
1630067055804,2043
1630067055808,2044
1630067055812,2044
1630067055816,2044
1630067055820,2044
1630067055824,2044
1630067055828,2045
1630067055832,2045
1630067055836,2046
1630067055840,2046
1630067055844,2046
1630067055848,2046
1630067055852,2046
1630067055856,2046
1630067055860,2046
1630067055864,2046
1630067055868,2045
1630067055872,2045
1630067055876,2044
1630067055880,2044
1630067055884,2044
1630067055888,2044
1630067055892,2044
1630067055896,2043
1630067055900,2042
1630067055904,2042
1630067055908,2041
1630067055912,2041
1630067055916,2041
1630067055920,2040
1630067055924,2040
1630067055928,2040
1630067055932,2040
1630067055936,2040
1630067055940,2040
1630067055944,2040
1630067055948,2040
1630067055952,2040
1630067055956,2040
1630067055960,2040
1630067055964,2041
1630067055968,2041
1630067055972,2041
1630067055976,2041
1630067055980,2040
1630067055984,2040
1630067055988,2040
1630067055992,2040
1630067055996,2041
1630067056000,2041
1630067056004,2041
1630067056008,2041
1630067056012,2041
1630067056016,2041
1630067056020,2041
1630067056024,2041
1630067056028,2041
1630067056032,2041
1630067056036,2042
1630067056040,2043
1630067056044,2043
1630067056048,2043
1630067056052,2043
1630067056056,2043
1630067056060,2043
1630067056064,2042
1630067056068,2043
1630067056072,2043
1630067056076,2043
1630067056080,2044
1630067056084,2044
1630067056088,2044
1630067056092,2043
1630067056096,2041
1630067056100,2040
1630067056104,2040
1630067056108,2041
1630067056112,2043
1630067056116,2045
1630067056120,2047
1630067056124,2048
1630067056128,2050
1630067056132,2051
1630067056136,2053
1630067056140,2054
1630067056144,2055
1630067056148,2056
1630067056152,2055
1630067056156,2054
1630067056160,2053
1630067056164,2051
1630067056168,2049
1630067056172,2048
1630067056176,2048
1630067056180,2046
1630067056184,2045
1630067056188,2045
1630067056192,2044
1630067056196,2044
1630067056200,2044
1630067056204,2044
1630067056208,2044
1630067056212,2045
1630067056216,2047
1630067056220,2048
1630067056224,2047
1630067056228,2043
1630067056232,2034
1630067056236,2027
1630067056240,2024
1630067056244,2036
1630067056248,2075
1630067056252,2143
1630067056256,2221
1630067056260,2277
1630067056264,2283
1630067056268,2230
1630067056272,2139
1630067056276,2048
1630067056280,1994
1630067056284,1986
1630067056288,2010
1630067056292,2042
1630067056296,2060
1630067056300,2060
1630067056304,2052
1630067056308,2046
1630067056312,2044
1630067056316,2043
1630067056320,2044
1630067056324,2045
1630067056328,2046
1630067056332,2047
1630067056336,2048
1630067056340,2048
1630067056344,2048
1630067056348,2050
1630067056352,2051
1630067056356,2052
1630067056360,2053
1630067056364,2054
1630067056368,2054
1630067056372,2055
1630067056376,2056
1630067056380,2057
1630067056384,2058
1630067056388,2059
1630067056392,2060
1630067056396,2061
1630067056400,2062
1630067056404,2063
1630067056408,2065
1630067056412,2066
1630067056416,2067
1630067056420,2068
1630067056424,2069
1630067056428,2071
1630067056432,2072
1630067056436,2074
1630067056440,2076
1630067056444,2079
1630067056448,2081
1630067056452,2084
1630067056456,2086
1630067056460,2089
1630067056464,2091
1630067056468,2094
1630067056472,2096
1630067056476,2099
1630067056480,2101
1630067056484,2104
1630067056488,2106
1630067056492,2108
1630067056496,2110
1630067056500,2111
1630067056504,2111
1630067056508,2112
1630067056512,2112
1630067056516,2112
1630067056520,2111
1630067056524,2108
1630067056528,2105
1630067056532,2100
1630067056536,2094
1630067056540,2088
1630067056544,2082
1630067056548,2075
1630067056552,2069
1630067056556,2064
1630067056560,2059
1630067056564,2055
1630067056568,2051
1630067056572,2048
1630067056576,2044
1630067056580,2042
1630067056584,2039
1630067056588,2038
1630067056592,2037
1630067056596,2037
1630067056600,2037
1630067056604,2037
1630067056608,2037
1630067056612,2037
1630067056616,2037
1630067056620,2036
1630067056624,2036
1630067056628,2036
1630067056632,2036
1630067056636,2037
1630067056640,2037
1630067056644,2038
1630067056648,2039
1630067056652,2039
1630067056656,2040
1630067056660,2040
1630067056664,2040
1630067056668,2040
1630067056672,2041
1630067056676,2041
1630067056680,2042
1630067056684,2043
1630067056688,2043
1630067056692,2043
1630067056696,2043
1630067056700,2043
1630067056704,2042
1630067056708,2042
1630067056712,2041
1630067056716,2041
1630067056720,2042
1630067056724,2043
1630067056728,2043
1630067056732,2043
1630067056736,2042
1630067056740,2041
1630067056744,2040
1630067056748,2040
1630067056752,2040
1630067056756,2040
1630067056760,2040
1630067056764,2040
1630067056768,2040
1630067056772,2039
1630067056776,2039
1630067056780,2038
1630067056784,2038
1630067056788,2037
1630067056792,2037
1630067056796,2037
1630067056800,2037
1630067056804,2038
1630067056808,2038
1630067056812,2038
1630067056816,2038
1630067056820,2038
1630067056824,2038
1630067056828,2039
1630067056832,2039
1630067056836,2040
1630067056840,2040
1630067056844,2041
1630067056848,2041
1630067056852,2041
1630067056856,2040
1630067056860,2040
1630067056864,2040
1630067056868,2040
1630067056872,2040
1630067056876,2041
1630067056880,2042
1630067056884,2042
1630067056888,2042
1630067056892,2042
1630067056896,2042
1630067056900,2041
1630067056904,2041
1630067056908,2042
1630067056912,2042
1630067056916,2043
1630067056920,2044
1630067056924,2044
1630067056928,2044
1630067056932,2045
1630067056936,2045
1630067056940,2044
1630067056944,2044
1630067056948,2044
1630067056952,2043
1630067056956,2043
1630067056960,2042
1630067056964,2042
1630067056968,2042
1630067056972,2042
1630067056976,2043
1630067056980,2044
1630067056984,2045
1630067056988,2047
1630067056992,2048
1630067056996,2050
1630067057000,2053
1630067057004,2056
1630067057008,2057
1630067057012,2058
1630067057016,2057
1630067057020,2055
1630067057024,2053
1630067057028,2051
1630067057032,2049
1630067057036,2048
1630067057040,2048
1630067057044,2047
1630067057048,2047
1630067057052,2046
1630067057056,2045
1630067057060,2044
1630067057064,2044
1630067057068,2043
1630067057072,2043
1630067057076,2044
1630067057080,2045
1630067057084,2047
1630067057088,2048
1630067057092,2047
1630067057096,2041
1630067057100,2032
1630067057104,2025
1630067057108,2024
1630067057112,2042
1630067057116,2089
1630067057120,2162
1630067057124,2237
1630067057128,2281
1630067057132,2271
1630067057136,2205
1630067057140,2110
1630067057144,2029
1630067057148,1987
1630067057152,1991
1630067057156,2020
1630067057160,2049
1630067057164,2062
1630067057168,2058
1630067057172,2049
1630067057176,2045
1630067057180,2042
1630067057184,2043
1630067057188,2044
1630067057192,2045
1630067057196,2045
1630067057200,2046
1630067057204,2047
1630067057208,2048
1630067057212,2048
1630067057216,2048
1630067057220,2048
1630067057224,2048
1630067057228,2049
1630067057232,2050
1630067057236,2052
1630067057240,2053
1630067057244,2055
1630067057248,2056
1630067057252,2056
1630067057256,2057
1630067057260,2057
1630067057264,2058
1630067057268,2060
1630067057272,2061
1630067057276,2063
1630067057280,2064
1630067057284,2066
1630067057288,2068
1630067057292,2069
1630067057296,2070
1630067057300,2071
1630067057304,2073
1630067057308,2075
1630067057312,2077
1630067057316,2080
1630067057320,2082
1630067057324,2084
1630067057328,2086
1630067057332,2088
1630067057336,2091
1630067057340,2093
1630067057344,2096
1630067057348,2099
1630067057352,2102
1630067057356,2105
1630067057360,2108
1630067057364,2110
1630067057368,2111
1630067057372,2111
1630067057376,2111
1630067057380,2110
1630067057384,2109
1630067057388,2107
1630067057392,2105
1630067057396,2101
1630067057400,2097
1630067057404,2091
1630067057408,2085
1630067057412,2078
1630067057416,2071
1630067057420,2064
1630067057424,2059
1630067057428,2055
1630067057432,2052
1630067057436,2049
1630067057440,2047
1630067057444,2044
1630067057448,2041
1630067057452,2038
1630067057456,2036
1630067057460,2035
1630067057464,2034
1630067057468,2034
1630067057472,2033
1630067057476,2034
1630067057480,2034
1630067057484,2034
1630067057488,2034
1630067057492,2035
1630067057496,2035
1630067057500,2034
1630067057504,2034
1630067057508,2034
1630067057512,2034
1630067057516,2034
1630067057520,2035
1630067057524,2037
1630067057528,2037
1630067057532,2038
1630067057536,2038
1630067057540,2038
1630067057544,2038
1630067057548,2038
1630067057552,2039
1630067057556,2039
1630067057560,2039
1630067057564,2039
1630067057568,2038
1630067057572,2038
1630067057576,2038
1630067057580,2037
1630067057584,2037
1630067057588,2037
1630067057592,2037
1630067057596,2037
1630067057600,2036
1630067057604,2035
1630067057608,2035
1630067057612,2034
1630067057616,2034
1630067057620,2034
1630067057624,2034
1630067057628,2033
1630067057632,2033
1630067057636,2033
1630067057640,2032
1630067057644,2032
1630067057648,2032
1630067057652,2032
1630067057656,2032
1630067057660,2032
1630067057664,2033
1630067057668,2033
1630067057672,2034
1630067057676,2034
1630067057680,2033
1630067057684,2033
1630067057688,2033
1630067057692,2032
1630067057696,2032
1630067057700,2032
1630067057704,2032
1630067057708,2032
1630067057712,2032
1630067057716,2032
1630067057720,2033
1630067057724,2033
1630067057728,2034
1630067057732,2034
1630067057736,2033
1630067057740,2032
1630067057744,2032
1630067057748,2032
1630067057752,2032
1630067057756,2033
1630067057760,2033
1630067057764,2033
1630067057768,2033
1630067057772,2034
1630067057776,2034
1630067057780,2034
1630067057784,2034
1630067057788,2034
1630067057792,2033
1630067057796,2034
1630067057800,2034
1630067057804,2034
1630067057808,2035
1630067057812,2035
1630067057816,2034
1630067057820,2034
1630067057824,2033
1630067057828,2033
1630067057832,2033
1630067057836,2033
1630067057840,2033
1630067057844,2033
1630067057848,2033
1630067057852,2033
1630067057856,2033
1630067057860,2033
1630067057864,2033
1630067057868,2034
1630067057872,2034
1630067057876,2036
1630067057880,2037
1630067057884,2039
1630067057888,2041
1630067057892,2043
1630067057896,2044
1630067057900,2044
1630067057904,2044
1630067057908,2044
1630067057912,2043
1630067057916,2041
1630067057920,2040
1630067057924,2038
1630067057928,2036
1630067057932,2034
1630067057936,2033
1630067057940,2032
1630067057944,2032
1630067057948,2032
1630067057952,2032
1630067057956,2032
1630067057960,2033
1630067057964,2033
1630067057968,2033
1630067057972,2033
1630067057976,2035
1630067057980,2035
1630067057984,2033
1630067057988,2025
1630067057992,2017
1630067057996,2011
1630067058000,2017
1630067058004,2048
1630067058008,2108
1630067058012,2182
1630067058016,2241
1630067058020,2254
1630067058024,2209
1630067058028,2121
1630067058032,2027
1630067058036,1964
1630067058040,1949
1630067058044,1972
1630067058048,2010
1630067058052,2040
1630067058056,2049
1630067058060,2046
1630067058064,2041
1630067058068,2037
1630067058072,2035
1630067058076,2035
1630067058080,2037
1630067058084,2039
1630067058088,2040
1630067058092,2041
1630067058096,2042
1630067058100,2042
1630067058104,2043
1630067058108,2045
1630067058112,2046
1630067058116,2048
1630067058120,2048
1630067058124,2048
1630067058128,2048
1630067058132,2049
1630067058136,2050
1630067058140,2051
1630067058144,2053
1630067058148,2055
1630067058152,2056
1630067058156,2058
1630067058160,2060
1630067058164,2061
1630067058168,2063
1630067058172,2064
1630067058176,2064
1630067058180,2065
1630067058184,2066
1630067058188,2067
1630067058192,2069
1630067058196,2072
1630067058200,2074
1630067058204,2076
1630067058208,2078
1630067058212,2080
1630067058216,2083
1630067058220,2085
1630067058224,2087
1630067058228,2091
1630067058232,2094
1630067058236,2097
1630067058240,2100
1630067058244,2103
1630067058248,2104
1630067058252,2106
1630067058256,2107
1630067058260,2108
1630067058264,2109
1630067058268,2109
1630067058272,2109
1630067058276,2108
1630067058280,2106
1630067058284,2103
1630067058288,2099
1630067058292,2094
1630067058296,2088
1630067058300,2081
1630067058304,2075
1630067058308,2069
1630067058312,2064
1630067058316,2059
1630067058320,2055
1630067058324,2052
1630067058328,2048
1630067058332,2046
1630067058336,2043
1630067058340,2040
1630067058344,2039
1630067058348,2038
1630067058352,2037
1630067058356,2037
1630067058360,2037
1630067058364,2036
1630067058368,2036
1630067058372,2036
1630067058376,2036
1630067058380,2037
1630067058384,2037
1630067058388,2038
1630067058392,2039
1630067058396,2040
1630067058400,2041
1630067058404,2041
1630067058408,2042
1630067058412,2043
1630067058416,2043
1630067058420,2043
1630067058424,2043
1630067058428,2044
1630067058432,2044
1630067058436,2044
1630067058440,2044
1630067058444,2045
1630067058448,2045
1630067058452,2045
1630067058456,2046
1630067058460,2045
1630067058464,2045
1630067058468,2044
1630067058472,2043
1630067058476,2043
1630067058480,2043
1630067058484,2044
1630067058488,2044
1630067058492,2044
1630067058496,2044
1630067058500,2043
1630067058504,2042
1630067058508,2042
1630067058512,2041
1630067058516,2042
1630067058520,2041
1630067058524,2041
1630067058528,2041
1630067058532,2041
1630067058536,2041
1630067058540,2041
1630067058544,2041
1630067058548,2041
1630067058552,2041
1630067058556,2041
1630067058560,2041
1630067058564,2041
1630067058568,2042
1630067058572,2042
1630067058576,2042
1630067058580,2041
1630067058584,2041
1630067058588,2041
1630067058592,2041
1630067058596,2041
1630067058600,2042
1630067058604,2042
1630067058608,2042
1630067058612,2042
1630067058616,2042
1630067058620,2042
1630067058624,2042
1630067058628,2042
1630067058632,2042
1630067058636,2042
1630067058640,2043
1630067058644,2043
1630067058648,2044
1630067058652,2044
1630067058656,2044
1630067058660,2043
1630067058664,2043
1630067058668,2043
1630067058672,2043
1630067058676,2043
1630067058680,2044
1630067058684,2044
1630067058688,2045
1630067058692,2045
1630067058696,2045
1630067058700,2044
1630067058704,2044
1630067058708,2044
1630067058712,2044
1630067058716,2044
1630067058720,2045
1630067058724,2046
1630067058728,2046
1630067058732,2046
1630067058736,2047
1630067058740,2046
1630067058744,2046
1630067058748,2046
1630067058752,2045
1630067058756,2046
1630067058760,2046
1630067058764,2045
1630067058768,2045
1630067058772,2046
1630067058776,2047
1630067058780,2048
1630067058784,2049
1630067058788,2050
1630067058792,2052
1630067058796,2054
1630067058800,2057
1630067058804,2059
1630067058808,2060
1630067058812,2061
1630067058816,2060
1630067058820,2058
1630067058824,2056
1630067058828,2054
1630067058832,2051
1630067058836,2050
1630067058840,2049
1630067058844,2049
1630067058848,2048
1630067058852,2048
1630067058856,2048
1630067058860,2047
1630067058864,2047
1630067058868,2047
1630067058872,2047
1630067058876,2048
1630067058880,2049
1630067058884,2051
1630067058888,2051
1630067058892,2047
1630067058896,2038
1630067058900,2030
1630067058904,2026
1630067058908,2038
1630067058912,2078
1630067058916,2148
1630067058920,2227
1630067058924,2283
1630067058928,2289
1630067058932,2235
1630067058936,2143
1630067058940,2052
1630067058944,1998
1630067058948,1991
1630067058952,2014
1630067058956,2046
1630067058960,2064
1630067058964,2064
1630067058968,2056
1630067058972,2049
1630067058976,2047
1630067058980,2046
1630067058984,2046
1630067058988,2047
1630067058992,2047
1630067058996,2048
1630067059000,2048
1630067059004,2049
1630067059008,2050
1630067059012,2051
1630067059016,2051
1630067059020,2052
1630067059024,2052
1630067059028,2053
1630067059032,2053
1630067059036,2054
1630067059040,2055
1630067059044,2057
1630067059048,2058
1630067059052,2059
1630067059056,2060
1630067059060,2061
1630067059064,2062
1630067059068,2062
1630067059072,2063
1630067059076,2064
1630067059080,2066
1630067059084,2068
1630067059088,2069
1630067059092,2071
1630067059096,2073
1630067059100,2074
1630067059104,2076
1630067059108,2078
1630067059112,2080
1630067059116,2082
1630067059120,2084
1630067059124,2087
1630067059128,2089
1630067059132,2092
1630067059136,2094
1630067059140,2096
1630067059144,2099
1630067059148,2101
1630067059152,2103
1630067059156,2106
1630067059160,2108
1630067059164,2109
1630067059168,2111
1630067059172,2111
1630067059176,2111
1630067059180,2109
1630067059184,2108
1630067059188,2105
1630067059192,2102
1630067059196,2098
1630067059200,2093
1630067059204,2087
1630067059208,2080
1630067059212,2073
1630067059216,2067
1630067059220,2061
1630067059224,2057
1630067059228,2052
1630067059232,2048
1630067059236,2046
1630067059240,2043
1630067059244,2040
1630067059248,2038
1630067059252,2036
1630067059256,2035
1630067059260,2034
1630067059264,2033
1630067059268,2032
1630067059272,2031
1630067059276,2032
1630067059280,2032
1630067059284,2033
1630067059288,2033
1630067059292,2033
1630067059296,2033
1630067059300,2033
1630067059304,2033
1630067059308,2033
1630067059312,2034
1630067059316,2034
1630067059320,2034
1630067059324,2035
1630067059328,2036
1630067059332,2036
1630067059336,2036
1630067059340,2036
1630067059344,2036
1630067059348,2037
1630067059352,2038
1630067059356,2038
1630067059360,2038
1630067059364,2038
1630067059368,2038
1630067059372,2037
1630067059376,2036
1630067059380,2036
1630067059384,2036
1630067059388,2037
1630067059392,2037
1630067059396,2037
1630067059400,2037
1630067059404,2036
1630067059408,2035
1630067059412,2033
1630067059416,2033
1630067059420,2032
1630067059424,2032
1630067059428,2032
1630067059432,2032
1630067059436,2033
1630067059440,2033
1630067059444,2033
1630067059448,2033
1630067059452,2033
1630067059456,2032
1630067059460,2031
1630067059464,2031
1630067059468,2030
1630067059472,2030
1630067059476,2031
1630067059480,2032
1630067059484,2033
1630067059488,2033
1630067059492,2032
1630067059496,2032
1630067059500,2031
1630067059504,2031
1630067059508,2031
1630067059512,2031
1630067059516,2032
1630067059520,2033
1630067059524,2033
1630067059528,2033
1630067059532,2033
1630067059536,2032
1630067059540,2032
1630067059544,2032
1630067059548,2033
1630067059552,2033
1630067059556,2033
1630067059560,2034
1630067059564,2034
1630067059568,2034
1630067059572,2033
1630067059576,2032
1630067059580,2031
1630067059584,2031
1630067059588,2032
1630067059592,2033
1630067059596,2034
1630067059600,2034
1630067059604,2034
1630067059608,2034
1630067059612,2034
1630067059616,2034
1630067059620,2034
1630067059624,2034
1630067059628,2034
1630067059632,2034
1630067059636,2034
1630067059640,2035
1630067059644,2035
1630067059648,2034
1630067059652,2034
1630067059656,2033
1630067059660,2033
1630067059664,2034
1630067059668,2034
1630067059672,2035
1630067059676,2036
1630067059680,2037
1630067059684,2039
1630067059688,2042
1630067059692,2044
1630067059696,2046
1630067059700,2047
1630067059704,2047
1630067059708,2045
1630067059712,2044
1630067059716,2042
1630067059720,2040
1630067059724,2039
1630067059728,2038
1630067059732,2036
1630067059736,2035
1630067059740,2033
1630067059744,2032
1630067059748,2032
1630067059752,2032
1630067059756,2032
1630067059760,2033
1630067059764,2033
1630067059768,2034
1630067059772,2034
1630067059776,2035
1630067059780,2035
1630067059784,2033
1630067059788,2025
1630067059792,2017
1630067059796,2012
1630067059800,2019
1630067059804,2049
1630067059808,2111
1630067059812,2187
1630067059816,2249
1630067059820,2265
1630067059824,2224
1630067059828,2138
1630067059832,2044
1630067059836,1980
1630067059840,1963
1630067059844,1983
1630067059848,2018
1630067059852,2045
1630067059856,2051
1630067059860,2047
1630067059864,2040
1630067059868,2035
1630067059872,2033
1630067059876,2033
1630067059880,2035
1630067059884,2036
1630067059888,2036
1630067059892,2037
1630067059896,2037
1630067059900,2037
1630067059904,2038
1630067059908,2040
1630067059912,2042
1630067059916,2043
1630067059920,2044
1630067059924,2045
1630067059928,2046
1630067059932,2046
1630067059936,2047
1630067059940,2048
1630067059944,2048
1630067059948,2048
1630067059952,2049
1630067059956,2050
1630067059960,2051
1630067059964,2053
1630067059968,2054
1630067059972,2054
1630067059976,2054
1630067059980,2054
1630067059984,2055
1630067059988,2055
1630067059992,2057
1630067059996,2059
1630067060000,2061
1630067060004,2064
1630067060008,2066
1630067060012,2069
1630067060016,2071
1630067060020,2074
1630067060024,2077
1630067060028,2080
1630067060032,2084
1630067060036,2088
1630067060040,2093
1630067060044,2097
1630067060048,2100
1630067060052,2103
1630067060056,2105
1630067060060,2105
1630067060064,2106
1630067060068,2106
1630067060072,2105
1630067060076,2104
1630067060080,2102
1630067060084,2099
1630067060088,2095
1630067060092,2090
1630067060096,2084
1630067060100,2077
1630067060104,2071
1630067060108,2064
1630067060112,2058
1630067060116,2053
1630067060120,2049
1630067060124,2045
1630067060128,2040
1630067060132,2036
1630067060136,2032
1630067060140,2028
1630067060144,2026
1630067060148,2025
1630067060152,2025
1630067060156,2025
1630067060160,2024
1630067060164,2024
1630067060168,2024
1630067060172,2024
1630067060176,2025
1630067060180,2025
1630067060184,2025
1630067060188,2024
1630067060192,2023
1630067060196,2023
1630067060200,2024
1630067060204,2024
1630067060208,2025
1630067060212,2026
1630067060216,2027
1630067060220,2027
1630067060224,2027
1630067060228,2027
1630067060232,2027
1630067060236,2028
1630067060240,2028
1630067060244,2029
1630067060248,2029
1630067060252,2028
1630067060256,2028
1630067060260,2027
1630067060264,2027
1630067060268,2027
1630067060272,2027
1630067060276,2027
1630067060280,2026
1630067060284,2026
1630067060288,2026
1630067060292,2027
1630067060296,2026
1630067060300,2025
1630067060304,2023
1630067060308,2022
1630067060312,2022
1630067060316,2022
1630067060320,2021
1630067060324,2021
1630067060328,2020
1630067060332,2021
1630067060336,2021
1630067060340,2021
1630067060344,2022
1630067060348,2021
1630067060352,2022
1630067060356,2022
1630067060360,2023
1630067060364,2024
1630067060368,2023
1630067060372,2022
1630067060376,2019
1630067060380,2018
1630067060384,2018
1630067060388,2019
1630067060392,2021
1630067060396,2024
1630067060400,2025
1630067060404,2026
1630067060408,2025
1630067060412,2022
1630067060416,2021
1630067060420,2019
1630067060424,2019
1630067060428,2021
1630067060432,2022
1630067060436,2024
1630067060440,2024
1630067060444,2023
1630067060448,2023
1630067060452,2022
1630067060456,2022
1630067060460,2022
1630067060464,2021
1630067060468,2021
1630067060472,2020
1630067060476,2020
1630067060480,2021
1630067060484,2023
1630067060488,2025
1630067060492,2026
1630067060496,2027
1630067060500,2027
1630067060504,2029
1630067060508,2031
1630067060512,2034
1630067060516,2036
1630067060520,2037
1630067060524,2035
1630067060528,2033
1630067060532,2030
1630067060536,2028
1630067060540,2025
1630067060544,2024
1630067060548,2023
1630067060552,2022
1630067060556,2023
1630067060560,2023
1630067060564,2022
1630067060568,2021
1630067060572,2021
1630067060576,2021
1630067060580,2021
1630067060584,2021
1630067060588,2021
1630067060592,2020
1630067060596,2021
1630067060600,2022
1630067060604,2019
1630067060608,2011
1630067060612,2003
1630067060616,2000
1630067060620,2013
1630067060624,2057
1630067060628,2127
1630067060632,2197
1630067060636,2235
1630067060640,2216
1630067060644,2142
1630067060648,2041
1630067060652,1952
1630067060656,1909
1630067060660,1915
1630067060664,1952
1630067060668,1995
1630067060672,2023
1630067060676,2031
1630067060680,2030
1630067060684,2027
1630067060688,2024
1630067060692,2023
1630067060696,2024
1630067060700,2025
1630067060704,2026
1630067060708,2026
1630067060712,2026
1630067060716,2027
1630067060720,2028
1630067060724,2028
1630067060728,2028
1630067060732,2028
1630067060736,2028
1630067060740,2028
1630067060744,2028
1630067060748,2028
1630067060752,2028
1630067060756,2028
1630067060760,2028
1630067060764,2030
1630067060768,2033
1630067060772,2035
1630067060776,2036
1630067060780,2036
1630067060784,2035
1630067060788,2035
1630067060792,2036
1630067060796,2038
1630067060800,2041
1630067060804,2044
1630067060808,2047
1630067060812,2048
1630067060816,2050
1630067060820,2052
1630067060824,2054
1630067060828,2056
1630067060832,2059
1630067060836,2062
1630067060840,2066
1630067060844,2070
1630067060848,2073
1630067060852,2076
1630067060856,2079
1630067060860,2081
1630067060864,2085
1630067060868,2087
1630067060872,2090
1630067060876,2092
1630067060880,2093
1630067060884,2094
1630067060888,2094
1630067060892,2093
1630067060896,2090
1630067060900,2086
1630067060904,2081
1630067060908,2075
1630067060912,2069
1630067060916,2063
1630067060920,2056
1630067060924,2050
1630067060928,2045
1630067060932,2039
1630067060936,2033
1630067060940,2029
1630067060944,2025
1630067060948,2022
1630067060952,2020
1630067060956,2018
1630067060960,2017
1630067060964,2016
1630067060968,2015
1630067060972,2014
1630067060976,2013
1630067060980,2012
1630067060984,2012
1630067060988,2013
1630067060992,2013
1630067060996,2015
1630067061000,2016
1630067061004,2018
1630067061008,2018
1630067061012,2018
1630067061016,2018
1630067061020,2017
1630067061024,2017
1630067061028,2018
1630067061032,2020
1630067061036,2022
1630067061040,2024
1630067061044,2025
1630067061048,2025
1630067061052,2025
1630067061056,2024
1630067061060,2023
1630067061064,2024
1630067061068,2024
1630067061072,2025
1630067061076,2026
1630067061080,2026
1630067061084,2025
1630067061088,2025
1630067061092,2024
1630067061096,2024
1630067061100,2024
1630067061104,2025
1630067061108,2026
1630067061112,2026
1630067061116,2027
1630067061120,2026
1630067061124,2026
1630067061128,2025
1630067061132,2025
1630067061136,2025
1630067061140,2025
1630067061144,2025
1630067061148,2025
1630067061152,2026
1630067061156,2026
1630067061160,2027
1630067061164,2028
1630067061168,2029
1630067061172,2029
1630067061176,2029
1630067061180,2028
1630067061184,2029
1630067061188,2029
1630067061192,2029
1630067061196,2030
1630067061200,2030
1630067061204,2030
1630067061208,2030
1630067061212,2030
1630067061216,2030
1630067061220,2029
1630067061224,2028
1630067061228,2027
1630067061232,2026
1630067061236,2028
1630067061240,2029
1630067061244,2032
1630067061248,2035
1630067061252,2038
1630067061256,2041
1630067061260,2043
1630067061264,2044
1630067061268,2044
1630067061272,2045
1630067061276,2046
1630067061280,2046
1630067061284,2046
1630067061288,2044
1630067061292,2042
1630067061296,2039
1630067061300,2037
1630067061304,2035
1630067061308,2035
1630067061312,2036
1630067061316,2036
1630067061320,2037
1630067061324,2037
1630067061328,2037
1630067061332,2036
1630067061336,2036
1630067061340,2035
1630067061344,2036
1630067061348,2039
1630067061352,2041
1630067061356,2041
1630067061360,2036
1630067061364,2027
1630067061368,2019
1630067061372,2020
1630067061376,2042
1630067061380,2096
1630067061384,2173
1630067061388,2242
1630067061392,2271
1630067061396,2240
1630067061400,2156
1630067061404,2053
1630067061408,1975
1630067061412,1945
1630067061416,1961
1630067061420,2001
1630067061424,2038
1630067061428,2055
1630067061432,2055
1630067061436,2050
1630067061440,2046
1630067061444,2043
1630067061448,2043
1630067061452,2043
1630067061456,2045
1630067061460,2047
1630067061464,2048
1630067061468,2048
1630067061472,2049
1630067061476,2050
1630067061480,2051
1630067061484,2052
1630067061488,2054
1630067061492,2055
1630067061496,2055
1630067061500,2056
1630067061504,2057
1630067061508,2057
1630067061512,2059
1630067061516,2060
1630067061520,2062
1630067061524,2063
1630067061528,2064
1630067061532,2064
1630067061536,2065
1630067061540,2066
1630067061544,2068
1630067061548,2071
1630067061552,2073
1630067061556,2074
1630067061560,2075
1630067061564,2077
1630067061568,2078
1630067061572,2080
1630067061576,2082
1630067061580,2084
1630067061584,2087
1630067061588,2089
1630067061592,2092
1630067061596,2095
1630067061600,2098
1630067061604,2102
1630067061608,2105
1630067061612,2109
1630067061616,2111
1630067061620,2113
1630067061624,2114
1630067061628,2116
1630067061632,2117
1630067061636,2118
1630067061640,2118
1630067061644,2117
1630067061648,2115
1630067061652,2111
1630067061656,2105
1630067061660,2098
1630067061664,2091
1630067061668,2084
1630067061672,2078
1630067061676,2072
1630067061680,2067
1630067061684,2062
1630067061688,2057
1630067061692,2051
1630067061696,2047
1630067061700,2043
1630067061704,2040
1630067061708,2038
1630067061712,2037
1630067061716,2036
1630067061720,2035
1630067061724,2034
1630067061728,2033
1630067061732,2033
1630067061736,2032
1630067061740,2032
1630067061744,2031
1630067061748,2031
1630067061752,2031
1630067061756,2032
1630067061760,2033
1630067061764,2034
1630067061768,2034
1630067061772,2035
1630067061776,2036
1630067061780,2036
1630067061784,2036
1630067061788,2037
1630067061792,2037
1630067061796,2039
1630067061800,2040
1630067061804,2041
1630067061808,2042
1630067061812,2042
1630067061816,2043
1630067061820,2042
1630067061824,2042
1630067061828,2043
1630067061832,2043
1630067061836,2043
1630067061840,2044
1630067061844,2044
1630067061848,2043
1630067061852,2043
1630067061856,2043
1630067061860,2042
1630067061864,2042
1630067061868,2042
1630067061872,2041
1630067061876,2041
1630067061880,2041
1630067061884,2041
1630067061888,2040
1630067061892,2040
1630067061896,2039
1630067061900,2038
1630067061904,2037
1630067061908,2037
1630067061912,2038
1630067061916,2039
1630067061920,2039
1630067061924,2041
1630067061928,2041
1630067061932,2042
1630067061936,2042
1630067061940,2041
1630067061944,2040
1630067061948,2040
1630067061952,2040
1630067061956,2041
1630067061960,2041
1630067061964,2041
1630067061968,2041
1630067061972,2041
1630067061976,2041
1630067061980,2040
1630067061984,2039
1630067061988,2038
1630067061992,2038
1630067061996,2038
1630067062000,2038
1630067062004,2040
1630067062008,2042
1630067062012,2044
1630067062016,2047
1630067062020,2048
1630067062024,2050
1630067062028,2051
1630067062032,2052
1630067062036,2052
1630067062040,2052
1630067062044,2052
1630067062048,2052
1630067062052,2050
1630067062056,2049
1630067062060,2047
1630067062064,2045
1630067062068,2045
1630067062072,2044
1630067062076,2044
1630067062080,2044
1630067062084,2043
1630067062088,2043
1630067062092,2043
1630067062096,2043
1630067062100,2043
1630067062104,2044
1630067062108,2045
1630067062112,2046
1630067062116,2044
1630067062120,2038
1630067062124,2030
1630067062128,2024
1630067062132,2026
1630067062136,2048
1630067062140,2104
1630067062144,2183
1630067062148,2259
1630067062152,2296
1630067062156,2272
1630067062160,2190
1630067062164,2085
1630067062168,2003
1630067062172,1969
1630067062176,1982
1630067062180,2018
1630067062184,2051
1630067062188,2064
1630067062192,2058
1630067062196,2050
1630067062200,2046
1630067062204,2045
1630067062208,2046
1630067062212,2047
1630067062216,2048
1630067062220,2048
1630067062224,2048
1630067062228,2048
1630067062232,2049
1630067062236,2051
1630067062240,2052
1630067062244,2054
1630067062248,2055
1630067062252,2056
1630067062256,2057
1630067062260,2057
1630067062264,2057
1630067062268,2058
1630067062272,2059
1630067062276,2060
1630067062280,2061
1630067062284,2063
1630067062288,2064
1630067062292,2066
1630067062296,2067
1630067062300,2067
1630067062304,2069
1630067062308,2070
1630067062312,2071
1630067062316,2073
1630067062320,2075
1630067062324,2076
1630067062328,2078
1630067062332,2080
1630067062336,2082
1630067062340,2084
1630067062344,2086
1630067062348,2089
1630067062352,2092
1630067062356,2095
1630067062360,2099
1630067062364,2102
1630067062368,2105
1630067062372,2107
1630067062376,2110
1630067062380,2112
1630067062384,2115
1630067062388,2118
1630067062392,2120
1630067062396,2122
1630067062400,2123
1630067062404,2123
1630067062408,2121
1630067062412,2119
1630067062416,2114
1630067062420,2109
1630067062424,2102
1630067062428,2095
1630067062432,2088
1630067062436,2082
1630067062440,2076
1630067062444,2070
1630067062448,2065
1630067062452,2061
1630067062456,2057
1630067062460,2053
1630067062464,2050
1630067062468,2048
1630067062472,2048
1630067062476,2047
1630067062480,2046
1630067062484,2045
1630067062488,2045
1630067062492,2043
1630067062496,2042
1630067062500,2041
1630067062504,2040
1630067062508,2039
1630067062512,2039
1630067062516,2040
1630067062520,2041
1630067062524,2041
1630067062528,2042
1630067062532,2043
1630067062536,2043
1630067062540,2044
1630067062544,2045
1630067062548,2047
1630067062552,2048
1630067062556,2048
1630067062560,2049
1630067062564,2049
1630067062568,2049
1630067062572,2049
1630067062576,2049
1630067062580,2049
1630067062584,2050
1630067062588,2050
1630067062592,2050
1630067062596,2051
1630067062600,2051
1630067062604,2051
1630067062608,2051
1630067062612,2051
1630067062616,2051
1630067062620,2050
1630067062624,2050
1630067062628,2049
1630067062632,2049
1630067062636,2049
1630067062640,2049
1630067062644,2049
1630067062648,2049
1630067062652,2048
1630067062656,2048
1630067062660,2048
1630067062664,2047
1630067062668,2047
1630067062672,2047
1630067062676,2048
1630067062680,2048
1630067062684,2048
1630067062688,2048
1630067062692,2048
1630067062696,2047
1630067062700,2047
1630067062704,2046
1630067062708,2046
1630067062712,2046
1630067062716,2047
1630067062720,2046
1630067062724,2046
1630067062728,2045
1630067062732,2044
1630067062736,2044
1630067062740,2044
1630067062744,2044
1630067062748,2045
1630067062752,2047
1630067062756,2049
1630067062760,2052
1630067062764,2055
1630067062768,2057
1630067062772,2059
1630067062776,2059
1630067062780,2059
1630067062784,2058
1630067062788,2057
1630067062792,2056
1630067062796,2055
1630067062800,2054
1630067062804,2053
1630067062808,2053
1630067062812,2052
1630067062816,2050
1630067062820,2049
1630067062824,2048
1630067062828,2048
1630067062832,2048
1630067062836,2048
1630067062840,2048
1630067062844,2049
1630067062848,2050
1630067062852,2051
1630067062856,2053
1630067062860,2051
1630067062864,2047
1630067062868,2038
1630067062872,2030
1630067062876,2029
1630067062880,2045
1630067062884,2090
1630067062888,2166
1630067062892,2247
1630067062896,2299
1630067062900,2294
1630067062904,2226
1630067062908,2123
1630067062912,2030
1630067062916,1980
1630067062920,1980
1630067062924,2012
1630067062928,2048
1630067062932,2066
1630067062936,2065
1630067062940,2056
1630067062944,2050
1630067062948,2049
1630067062952,2049
1630067062956,2051
1630067062960,2053
1630067062964,2053
1630067062968,2054
1630067062972,2054
1630067062976,2054
1630067062980,2055
1630067062984,2056
1630067062988,2057
1630067062992,2058
1630067062996,2059
1630067063000,2059
1630067063004,2060
1630067063008,2061
1630067063012,2061
1630067063016,2062
1630067063020,2062
1630067063024,2063
1630067063028,2064
1630067063032,2065
1630067063036,2067
1630067063040,2068
1630067063044,2070
1630067063048,2072
1630067063052,2073
1630067063056,2074
1630067063060,2075
1630067063064,2077
1630067063068,2079
1630067063072,2082
1630067063076,2085
1630067063080,2087
1630067063084,2089
1630067063088,2092
1630067063092,2094
1630067063096,2097
1630067063100,2101
1630067063104,2104
1630067063108,2108
1630067063112,2112
1630067063116,2115
1630067063120,2119
1630067063124,2122
1630067063128,2124
1630067063132,2125
1630067063136,2127
1630067063140,2127
1630067063144,2127
1630067063148,2126
1630067063152,2124
1630067063156,2121
1630067063160,2117
1630067063164,2111
1630067063168,2104
1630067063172,2096
1630067063176,2088
1630067063180,2080
1630067063184,2073
1630067063188,2067
1630067063192,2062
1630067063196,2058
1630067063200,2055
1630067063204,2052
1630067063208,2049
1630067063212,2047
1630067063216,2044
1630067063220,2042
1630067063224,2041
1630067063228,2041
1630067063232,2041
1630067063236,2041
1630067063240,2041
1630067063244,2040
1630067063248,2039
1630067063252,2038
1630067063256,2038
1630067063260,2038
1630067063264,2039
1630067063268,2039
1630067063272,2039
1630067063276,2040
1630067063280,2040
1630067063284,2041
1630067063288,2042
1630067063292,2043
1630067063296,2043
1630067063300,2043
1630067063304,2044
1630067063308,2044
1630067063312,2044
1630067063316,2045
1630067063320,2046
1630067063324,2047
1630067063328,2048
1630067063332,2048
1630067063336,2048
1630067063340,2047
1630067063344,2047
1630067063348,2047
1630067063352,2047
1630067063356,2048
1630067063360,2048
1630067063364,2048
1630067063368,2047
1630067063372,2047
1630067063376,2047
1630067063380,2047
1630067063384,2048
1630067063388,2048
1630067063392,2048
1630067063396,2048
1630067063400,2047
1630067063404,2047
1630067063408,2047
1630067063412,2047
1630067063416,2046
1630067063420,2046
1630067063424,2046
1630067063428,2045
1630067063432,2045
1630067063436,2045
1630067063440,2046
1630067063444,2046
1630067063448,2046
1630067063452,2045
1630067063456,2045
1630067063460,2044
1630067063464,2044
1630067063468,2045
1630067063472,2046
1630067063476,2046
1630067063480,2046
1630067063484,2046
1630067063488,2046
1630067063492,2046
1630067063496,2046
1630067063500,2046
1630067063504,2047
1630067063508,2047
1630067063512,2047
1630067063516,2047
1630067063520,2047
1630067063524,2048
1630067063528,2048
1630067063532,2047
1630067063536,2047
1630067063540,2047
1630067063544,2046
1630067063548,2046
1630067063552,2046
1630067063556,2047
1630067063560,2047
1630067063564,2047
1630067063568,2048
1630067063572,2048
1630067063576,2048
1630067063580,2047
1630067063584,2046
1630067063588,2046
1630067063592,2047
1630067063596,2048
1630067063600,2048
1630067063604,2048
1630067063608,2048
1630067063612,2048
1630067063616,2048
1630067063620,2048
1630067063624,2048
1630067063628,2048
1630067063632,2048
1630067063636,2048
1630067063640,2048
1630067063644,2048
1630067063648,2048
1630067063652,2048
1630067063656,2048
1630067063660,2048
1630067063664,2048
1630067063668,2048
1630067063672,2048
1630067063676,2048
1630067063680,2048
1630067063684,2048
1630067063688,2048
1630067063692,2048
1630067063696,2048
1630067063700,2048
1630067063704,2048
1630067063708,2048
1630067063712,2048
1630067063716,2048
1630067063720,2048
1630067063724,2048
1630067063728,2048
1630067063732,2048
1630067063736,2047
1630067063740,2047
1630067063744,2047
1630067063748,2048
1630067063752,2048
1630067063756,2050
1630067063760,2053
1630067063764,2055
1630067063768,2057
1630067063772,2058
1630067063776,2059
1630067063780,2059
1630067063784,2059
1630067063788,2059
1630067063792,2058
1630067063796,2057
1630067063800,2055
1630067063804,2054
1630067063808,2053
1630067063812,2051
1630067063816,2050
1630067063820,2049
1630067063824,2048
1630067063828,2048
1630067063832,2047
1630067063836,2046
1630067063840,2047
1630067063844,2047
1630067063848,2047
1630067063852,2047
1630067063856,2047
1630067063860,2048
1630067063864,2048
1630067063868,2044
1630067063872,2037
1630067063876,2028
1630067063880,2022
1630067063884,2025
1630067063888,2050
1630067063892,2109
1630067063896,2191
1630067063900,2267
1630067063904,2303
1630067063908,2278
1630067063912,2198
1630067063916,2097
1630067063920,2019
1630067063924,1986
1630067063928,1996
1630067063932,2026
1630067063936,2050
1630067063940,2057
1630067063944,2049
1630067063948,2042
1630067063952,2038
1630067063956,2038
1630067063960,2038
1630067063964,2039
1630067063968,2040
1630067063972,2041
1630067063976,2041
1630067063980,2041
1630067063984,2042
1630067063988,2043
1630067063992,2044
1630067063996,2045
1630067064000,2046
1630067064004,2046
1630067064008,2046
1630067064012,2046
1630067064016,2047
1630067064020,2047
1630067064024,2048
1630067064028,2049
1630067064032,2050
1630067064036,2052
1630067064040,2053
1630067064044,2054
1630067064048,2055
1630067064052,2056
1630067064056,2058
1630067064060,2059
1630067064064,2061
1630067064068,2062
1630067064072,2063
1630067064076,2065
1630067064080,2068
1630067064084,2070
1630067064088,2072
1630067064092,2075
1630067064096,2076
1630067064100,2078
1630067064104,2080
1630067064108,2082
1630067064112,2085
1630067064116,2089
1630067064120,2093
1630067064124,2096
1630067064128,2098
1630067064132,2100
1630067064136,2101
1630067064140,2103
1630067064144,2105
1630067064148,2108
1630067064152,2109
1630067064156,2110
1630067064160,2110
1630067064164,2108
1630067064168,2106
1630067064172,2103
1630067064176,2099
1630067064180,2094
1630067064184,2088
1630067064188,2082
1630067064192,2075
1630067064196,2069
1630067064200,2064
1630067064204,2059
1630067064208,2055
1630067064212,2051
1630067064216,2048
1630067064220,2045
1630067064224,2042
1630067064228,2040
1630067064232,2039
1630067064236,2038
1630067064240,2038
1630067064244,2038
1630067064248,2038
1630067064252,2037
1630067064256,2037
1630067064260,2036
1630067064264,2035
1630067064268,2035
1630067064272,2035
1630067064276,2036
1630067064280,2037
1630067064284,2037
1630067064288,2037
1630067064292,2037
1630067064296,2037
1630067064300,2038
1630067064304,2038
1630067064308,2039
1630067064312,2040
1630067064316,2040
1630067064320,2041
1630067064324,2041
1630067064328,2041
1630067064332,2041
1630067064336,2041
1630067064340,2040
1630067064344,2040
1630067064348,2040
1630067064352,2040
1630067064356,2040
1630067064360,2041
1630067064364,2041
1630067064368,2041
1630067064372,2042
1630067064376,2041
1630067064380,2041
1630067064384,2041
1630067064388,2041
1630067064392,2040
1630067064396,2040
1630067064400,2040
1630067064404,2040
1630067064408,2039
1630067064412,2039
1630067064416,2038
1630067064420,2038
1630067064424,2037
1630067064428,2037
1630067064432,2037
1630067064436,2037
1630067064440,2037
1630067064444,2037
1630067064448,2037
1630067064452,2037
1630067064456,2037
1630067064460,2037
1630067064464,2037
1630067064468,2037
1630067064472,2037
1630067064476,2038
1630067064480,2038
1630067064484,2038
1630067064488,2038
1630067064492,2038
1630067064496,2039
1630067064500,2038
1630067064504,2038
1630067064508,2038
1630067064512,2038
1630067064516,2039
1630067064520,2039
1630067064524,2039
1630067064528,2039
1630067064532,2039
1630067064536,2039
1630067064540,2038
1630067064544,2038
1630067064548,2038
1630067064552,2039
1630067064556,2040
1630067064560,2040
1630067064564,2041
1630067064568,2041
1630067064572,2041
1630067064576,2040
1630067064580,2040
1630067064584,2040
1630067064588,2040
1630067064592,2041
1630067064596,2041
1630067064600,2041
1630067064604,2041
1630067064608,2041
1630067064612,2041
1630067064616,2041
1630067064620,2041
1630067064624,2042
1630067064628,2042
1630067064632,2042
1630067064636,2043
1630067064640,2044
1630067064644,2044
1630067064648,2044
1630067064652,2044
1630067064656,2044
1630067064660,2043
1630067064664,2043
1630067064668,2043
1630067064672,2044
1630067064676,2044
1630067064680,2044
1630067064684,2045
1630067064688,2045
1630067064692,2044
1630067064696,2044
1630067064700,2044
1630067064704,2044
1630067064708,2045
1630067064712,2045
1630067064716,2045
1630067064720,2045
1630067064724,2045
1630067064728,2045
1630067064732,2045
1630067064736,2045
1630067064740,2045
1630067064744,2045
1630067064748,2046
1630067064752,2046
1630067064756,2046
1630067064760,2047
1630067064764,2047
1630067064768,2047
1630067064772,2047
1630067064776,2047
1630067064780,2046
1630067064784,2046
1630067064788,2046
1630067064792,2046
1630067064796,2046
1630067064800,2046
1630067064804,2047
1630067064808,2047
1630067064812,2047
1630067064816,2048
1630067064820,2047
1630067064824,2047
1630067064828,2047
1630067064832,2047
1630067064836,2048
1630067064840,2048
1630067064844,2048
1630067064848,2048
1630067064852,2048
1630067064856,2048
1630067064860,2048
1630067064864,2048
1630067064868,2048
1630067064872,2048
1630067064876,2048
1630067064880,2048
1630067064884,2048
1630067064888,2048
1630067064892,2047
1630067064896,2046
1630067064900,2046
1630067064904,2047
1630067064908,2048
1630067064912,2049
1630067064916,2051
1630067064920,2053
1630067064924,2055
1630067064928,2057
1630067064932,2059
1630067064936,2060
1630067064940,2060
1630067064944,2060
1630067064948,2058
1630067064952,2057
1630067064956,2055
1630067064960,2054
1630067064964,2052
1630067064968,2051
1630067064972,2050
1630067064976,2049
1630067064980,2048
1630067064984,2048
1630067064988,2048
1630067064992,2048
1630067064996,2048
1630067065000,2048
1630067065004,2048
1630067065008,2049
1630067065012,2050
1630067065016,2051
1630067065020,2051
1630067065024,2048
1630067065028,2041
1630067065032,2032
1630067065036,2027
1630067065040,2032
1630067065044,2062
1630067065048,2125
1630067065052,2207
1630067065056,2278
1630067065060,2305
1630067065064,2272
1630067065068,2189
1630067065072,2091
1630067065076,2022
1630067065080,1997
1630067065084,2011
1630067065088,2040
1630067065092,2061
1630067065096,2064
1630067065100,2055
1630067065104,2048
1630067065108,2045
1630067065112,2044
1630067065116,2046
1630067065120,2047
1630067065124,2048
1630067065128,2048
1630067065132,2047
1630067065136,2047
1630067065140,2047
1630067065144,2048
1630067065148,2049
1630067065152,2050
1630067065156,2051
1630067065160,2052
1630067065164,2052
1630067065168,2053
1630067065172,2054
1630067065176,2055
1630067065180,2056
1630067065184,2057
1630067065188,2057
1630067065192,2058
1630067065196,2059
1630067065200,2061
1630067065204,2063
1630067065208,2064
1630067065212,2065
1630067065216,2066
1630067065220,2066
1630067065224,2067
1630067065228,2069
1630067065232,2071
1630067065236,2073
1630067065240,2075
1630067065244,2078
1630067065248,2080
1630067065252,2081
1630067065256,2083
1630067065260,2084
1630067065264,2086
1630067065268,2089
1630067065272,2092
1630067065276,2096
1630067065280,2099
1630067065284,2102
1630067065288,2105
1630067065292,2107
1630067065296,2108
1630067065300,2108
1630067065304,2109
1630067065308,2110
1630067065312,2111
1630067065316,2111
1630067065320,2110
1630067065324,2109
1630067065328,2106
1630067065332,2101
1630067065336,2096
1630067065340,2090
1630067065344,2085
1630067065348,2079
1630067065352,2074
1630067065356,2069
1630067065360,2065
1630067065364,2061
1630067065368,2056
1630067065372,2053
1630067065376,2049
1630067065380,2047
1630067065384,2045
1630067065388,2043
1630067065392,2042
1630067065396,2041
1630067065400,2041
1630067065404,2040
1630067065408,2040
1630067065412,2040
1630067065416,2040
1630067065420,2040
1630067065424,2039
1630067065428,2039
1630067065432,2039
1630067065436,2040
1630067065440,2040
1630067065444,2041
1630067065448,2042
1630067065452,2042
1630067065456,2043
1630067065460,2043
1630067065464,2043
1630067065468,2044
1630067065472,2044
1630067065476,2045
1630067065480,2045
1630067065484,2046
1630067065488,2046
1630067065492,2046
1630067065496,2046
1630067065500,2045
1630067065504,2045
1630067065508,2045
1630067065512,2046
1630067065516,2046
1630067065520,2047
1630067065524,2047
1630067065528,2046
1630067065532,2045
1630067065536,2044
1630067065540,2043
1630067065544,2043
1630067065548,2044
1630067065552,2044
1630067065556,2044
1630067065560,2044
1630067065564,2043
1630067065568,2043
1630067065572,2043
1630067065576,2043
1630067065580,2042
1630067065584,2042
1630067065588,2041
1630067065592,2041
1630067065596,2041
1630067065600,2042
1630067065604,2042
1630067065608,2042
1630067065612,2042
1630067065616,2041
1630067065620,2040
1630067065624,2040
1630067065628,2039
1630067065632,2039
1630067065636,2039
1630067065640,2039
1630067065644,2040
1630067065648,2039
1630067065652,2039
1630067065656,2039
1630067065660,2039
1630067065664,2040
1630067065668,2040
1630067065672,2040
1630067065676,2040
1630067065680,2040
1630067065684,2041
1630067065688,2041
1630067065692,2041
1630067065696,2041
1630067065700,2040
1630067065704,2040
1630067065708,2040
1630067065712,2039
1630067065716,2040
1630067065720,2041
1630067065724,2041
1630067065728,2042
1630067065732,2042
1630067065736,2041
1630067065740,2041
1630067065744,2040
1630067065748,2040
1630067065752,2040
1630067065756,2040
1630067065760,2041
1630067065764,2042
1630067065768,2043
1630067065772,2043
1630067065776,2043
1630067065780,2043
1630067065784,2042
1630067065788,2042
1630067065792,2041
1630067065796,2042
1630067065800,2042
1630067065804,2043
1630067065808,2043
1630067065812,2044
1630067065816,2044
1630067065820,2044
1630067065824,2044
1630067065828,2044
1630067065832,2044
1630067065836,2044
1630067065840,2044
1630067065844,2044
1630067065848,2044
1630067065852,2044
1630067065856,2045
1630067065860,2044
1630067065864,2044
1630067065868,2044
1630067065872,2044
1630067065876,2045
1630067065880,2045
1630067065884,2046
1630067065888,2046
1630067065892,2046
1630067065896,2047
1630067065900,2047
1630067065904,2048
1630067065908,2048
1630067065912,2048
1630067065916,2048
1630067065920,2048
1630067065924,2048
1630067065928,2048
1630067065932,2048
1630067065936,2048
1630067065940,2048
1630067065944,2048
1630067065948,2048
1630067065952,2048
1630067065956,2048
1630067065960,2049
1630067065964,2049
1630067065968,2049
1630067065972,2049
1630067065976,2049
1630067065980,2049
1630067065984,2049
1630067065988,2049
1630067065992,2049
1630067065996,2050
1630067066000,2050
1630067066004,2051
1630067066008,2051
1630067066012,2051
1630067066016,2052
1630067066020,2054
1630067066024,2056
1630067066028,2059
1630067066032,2060
1630067066036,2059
1630067066040,2057
1630067066044,2055
1630067066048,2053
1630067066052,2052
1630067066056,2051
1630067066060,2050
1630067066064,2049
1630067066068,2048
1630067066072,2048
1630067066076,2048
1630067066080,2048
1630067066084,2048
1630067066088,2048
1630067066092,2048
1630067066096,2049
1630067066100,2050
1630067066104,2051
1630067066108,2048
1630067066112,2042
1630067066116,2033
1630067066120,2027
1630067066124,2030
1630067066128,2054
1630067066132,2111
1630067066136,2187
1630067066140,2255
1630067066144,2284
1630067066148,2255
1630067066152,2175
1630067066156,2078
1630067066160,2004
1630067066164,1975
1630067066168,1989
1630067066172,2022
1630067066176,2051
1630067066180,2062
1630067066184,2057
1630067066188,2049
1630067066192,2045
1630067066196,2043
1630067066200,2043
1630067066204,2044
1630067066208,2046
1630067066212,2046
1630067066216,2047
1630067066220,2047
1630067066224,2047
1630067066228,2048
1630067066232,2048
1630067066236,2049
1630067066240,2051
1630067066244,2052
1630067066248,2052
1630067066252,2052
1630067066256,2052
1630067066260,2053
1630067066264,2054
1630067066268,2055
1630067066272,2057
1630067066276,2058
1630067066280,2058
1630067066284,2059
1630067066288,2060
1630067066292,2061
1630067066296,2063
1630067066300,2063
1630067066304,2064
1630067066308,2065
1630067066312,2066
1630067066316,2067
1630067066320,2069
1630067066324,2071
1630067066328,2074
1630067066332,2076
1630067066336,2078
1630067066340,2079
1630067066344,2081
1630067066348,2084
1630067066352,2086
1630067066356,2090
1630067066360,2093
1630067066364,2096
1630067066368,2100
1630067066372,2102
1630067066376,2105
1630067066380,2107
1630067066384,2108
1630067066388,2109
1630067066392,2110
1630067066396,2110
1630067066400,2110
1630067066404,2109
1630067066408,2108
1630067066412,2105
1630067066416,2101
1630067066420,2095
1630067066424,2088
1630067066428,2082
1630067066432,2075
1630067066436,2070
1630067066440,2064
1630067066444,2060
1630067066448,2055
1630067066452,2051
1630067066456,2048
1630067066460,2044
1630067066464,2041
1630067066468,2038
1630067066472,2036
1630067066476,2035
1630067066480,2034
1630067066484,2034
1630067066488,2034
1630067066492,2033
1630067066496,2033
1630067066500,2033
1630067066504,2033
1630067066508,2033
1630067066512,2033
1630067066516,2034
1630067066520,2035
1630067066524,2036
1630067066528,2037
1630067066532,2037
1630067066536,2038
1630067066540,2038
1630067066544,2039
1630067066548,2040
1630067066552,2040
1630067066556,2041
1630067066560,2041
1630067066564,2042
1630067066568,2042
1630067066572,2043
1630067066576,2043
1630067066580,2042
1630067066584,2043
1630067066588,2043
1630067066592,2043
1630067066596,2043
1630067066600,2043
1630067066604,2043
1630067066608,2043
1630067066612,2043
1630067066616,2043
1630067066620,2043
1630067066624,2042
1630067066628,2041
1630067066632,2041
1630067066636,2041
1630067066640,2041
1630067066644,2041
1630067066648,2041
1630067066652,2040
1630067066656,2040
1630067066660,2039
1630067066664,2039
1630067066668,2039
1630067066672,2039
1630067066676,2039
1630067066680,2039
1630067066684,2039
1630067066688,2040
1630067066692,2040
1630067066696,2040
1630067066700,2039
1630067066704,2039
1630067066708,2040
1630067066712,2040
1630067066716,2041
1630067066720,2041
1630067066724,2042
1630067066728,2042
1630067066732,2042
1630067066736,2041
1630067066740,2041
1630067066744,2041
1630067066748,2041
1630067066752,2041
1630067066756,2041
1630067066760,2041
1630067066764,2042
1630067066768,2042
1630067066772,2043
1630067066776,2043
1630067066780,2042
1630067066784,2042
1630067066788,2041
1630067066792,2041
1630067066796,2042
1630067066800,2042
1630067066804,2043
1630067066808,2043
1630067066812,2043
1630067066816,2044
1630067066820,2044
1630067066824,2044
1630067066828,2045
1630067066832,2045
1630067066836,2045
1630067066840,2045
1630067066844,2045
1630067066848,2045
1630067066852,2044
1630067066856,2044
1630067066860,2044
1630067066864,2044
1630067066868,2044
1630067066872,2044
1630067066876,2045
1630067066880,2045
1630067066884,2045
1630067066888,2045
1630067066892,2046
1630067066896,2046
1630067066900,2046
1630067066904,2046
1630067066908,2046
1630067066912,2046
1630067066916,2047
1630067066920,2047
1630067066924,2047
1630067066928,2047
1630067066932,2048
1630067066936,2048
1630067066940,2048
1630067066944,2048
1630067066948,2048
1630067066952,2048
1630067066956,2048
1630067066960,2049
1630067066964,2049
1630067066968,2049
1630067066972,2049
1630067066976,2048
1630067066980,2048
1630067066984,2048
1630067066988,2048
1630067066992,2048
1630067066996,2048
1630067067000,2048
1630067067004,2049
1630067067008,2050
1630067067012,2050
1630067067016,2050
1630067067020,2049
1630067067024,2049
1630067067028,2048
1630067067032,2048
1630067067036,2049
1630067067040,2050
1630067067044,2050
1630067067048,2051
1630067067052,2051
1630067067056,2053
1630067067060,2056
1630067067064,2058
1630067067068,2060
1630067067072,2060
1630067067076,2059
1630067067080,2056
1630067067084,2053
1630067067088,2051
1630067067092,2050
1630067067096,2050
1630067067100,2049
1630067067104,2048
1630067067108,2048
1630067067112,2048
1630067067116,2048
1630067067120,2049
1630067067124,2049
1630067067128,2050
1630067067132,2051
1630067067136,2052
1630067067140,2051
1630067067144,2048
1630067067148,2042
1630067067152,2033
1630067067156,2027
1630067067160,2033
1630067067164,2062
1630067067168,2124
1630067067172,2203
1630067067176,2270
1630067067180,2293
1630067067184,2257
1630067067188,2172
1630067067192,2074
1630067067196,2004
1630067067200,1981
1630067067204,1998
1630067067208,2033
1630067067212,2059
1630067067216,2067
1630067067220,2060
1630067067224,2052
1630067067228,2048
1630067067232,2046
1630067067236,2047
1630067067240,2048
1630067067244,2049
1630067067248,2049
1630067067252,2049
1630067067256,2050
1630067067260,2050
1630067067264,2051
1630067067268,2052
1630067067272,2053
1630067067276,2054
1630067067280,2055
1630067067284,2056
1630067067288,2057
1630067067292,2058
1630067067296,2058
1630067067300,2059
1630067067304,2060
1630067067308,2061
1630067067312,2062
1630067067316,2064
1630067067320,2065
1630067067324,2066
1630067067328,2067
1630067067332,2068
1630067067336,2069
1630067067340,2070
1630067067344,2072
1630067067348,2073
1630067067352,2075
1630067067356,2077
1630067067360,2079
1630067067364,2081
1630067067368,2082
1630067067372,2085
1630067067376,2087
1630067067380,2089
1630067067384,2093
1630067067388,2095
1630067067392,2098
1630067067396,2101
1630067067400,2103
1630067067404,2106
1630067067408,2109
1630067067412,2111
1630067067416,2113
1630067067420,2114
1630067067424,2115
1630067067428,2116
1630067067432,2117
1630067067436,2116
1630067067440,2116
1630067067444,2114
1630067067448,2111
1630067067452,2107
1630067067456,2102
1630067067460,2095
1630067067464,2087
1630067067468,2080
1630067067472,2074
1630067067476,2069
1630067067480,2065
1630067067484,2061
1630067067488,2058
1630067067492,2054
1630067067496,2050
1630067067500,2046
1630067067504,2042
1630067067508,2040
1630067067512,2038
1630067067516,2038
1630067067520,2038
1630067067524,2038
1630067067528,2038
1630067067532,2037
1630067067536,2037
1630067067540,2037
1630067067544,2038
1630067067548,2038
1630067067552,2039
1630067067556,2039
1630067067560,2039
1630067067564,2039
1630067067568,2040
1630067067572,2041
1630067067576,2042
1630067067580,2042
1630067067584,2043
1630067067588,2043
1630067067592,2043
1630067067596,2044
1630067067600,2044
1630067067604,2045
1630067067608,2045
1630067067612,2045
1630067067616,2045
1630067067620,2045
1630067067624,2045
1630067067628,2046
1630067067632,2046
1630067067636,2046
1630067067640,2046
1630067067644,2045
1630067067648,2045
1630067067652,2045
1630067067656,2045
1630067067660,2044
1630067067664,2044
1630067067668,2043
1630067067672,2042
1630067067676,2042
1630067067680,2042
1630067067684,2042
1630067067688,2043
1630067067692,2043
1630067067696,2042
1630067067700,2041
1630067067704,2041
1630067067708,2041
1630067067712,2041
1630067067716,2041
1630067067720,2041
1630067067724,2041
1630067067728,2041
1630067067732,2041
1630067067736,2041
1630067067740,2040
1630067067744,2041
1630067067748,2041
1630067067752,2042
1630067067756,2042
1630067067760,2042
1630067067764,2042
1630067067768,2042
1630067067772,2042
1630067067776,2043
1630067067780,2043
1630067067784,2043
1630067067788,2043
1630067067792,2043
1630067067796,2043
1630067067800,2044
1630067067804,2044
1630067067808,2045
1630067067812,2044
1630067067816,2044
1630067067820,2043
1630067067824,2043
1630067067828,2043
1630067067832,2042
1630067067836,2043
1630067067840,2043
1630067067844,2044
1630067067848,2044
1630067067852,2044
1630067067856,2044
1630067067860,2044
1630067067864,2044
1630067067868,2044
1630067067872,2044
1630067067876,2045
1630067067880,2045
1630067067884,2045
1630067067888,2045
1630067067892,2045
1630067067896,2045
1630067067900,2045
1630067067904,2045
1630067067908,2045
1630067067912,2045
1630067067916,2046
1630067067920,2045
1630067067924,2045
1630067067928,2045
1630067067932,2045
1630067067936,2046
1630067067940,2046
1630067067944,2046
1630067067948,2046
1630067067952,2046
1630067067956,2046
1630067067960,2047
1630067067964,2047
1630067067968,2047
1630067067972,2047
1630067067976,2047
1630067067980,2047
1630067067984,2048
1630067067988,2048
1630067067992,2048
1630067067996,2048
1630067068000,2048
1630067068004,2048
1630067068008,2048
1630067068012,2048
1630067068016,2048
1630067068020,2048
1630067068024,2048
1630067068028,2049
1630067068032,2049
1630067068036,2049
1630067068040,2049
1630067068044,2049
1630067068048,2049
1630067068052,2049
1630067068056,2049
1630067068060,2048
1630067068064,2048
1630067068068,2049
1630067068072,2052
1630067068076,2056
1630067068080,2059
1630067068084,2061
1630067068088,2061
1630067068092,2058
1630067068096,2055
1630067068100,2052
1630067068104,2050
1630067068108,2050
1630067068112,2050
1630067068116,2050
1630067068120,2049
1630067068124,2049
1630067068128,2048
1630067068132,2048
1630067068136,2048
1630067068140,2047
1630067068144,2048
1630067068148,2049
1630067068152,2050
1630067068156,2050
1630067068160,2047
1630067068164,2038
1630067068168,2030
1630067068172,2026
1630067068176,2038
1630067068180,2077
1630067068184,2146
1630067068188,2224
1630067068192,2280
1630067068196,2285
1630067068200,2231
1630067068204,2138
1630067068208,2048
1630067068212,1992
1630067068216,1984
1630067068220,2009
1630067068224,2042
1630067068228,2062
1630067068232,2063
1630067068236,2056
1630067068240,2050
1630067068244,2048
1630067068248,2047
1630067068252,2047
1630067068256,2048
1630067068260,2048
1630067068264,2048
1630067068268,2048
1630067068272,2048
1630067068276,2049
1630067068280,2049
1630067068284,2051
1630067068288,2051
1630067068292,2052
1630067068296,2053
1630067068300,2053
1630067068304,2054
1630067068308,2055
1630067068312,2057
1630067068316,2059
1630067068320,2060
1630067068324,2061
1630067068328,2062
1630067068332,2062
1630067068336,2063
1630067068340,2063
1630067068344,2064
1630067068348,2066
1630067068352,2068
1630067068356,2070
1630067068360,2072
1630067068364,2073
1630067068368,2075
1630067068372,2076
1630067068376,2077
1630067068380,2078
1630067068384,2080
1630067068388,2083
1630067068392,2086
1630067068396,2089
1630067068400,2092
1630067068404,2095
1630067068408,2097
1630067068412,2099
1630067068416,2102
1630067068420,2104
1630067068424,2107
1630067068428,2109
1630067068432,2111
1630067068436,2113
1630067068440,2114
1630067068444,2115
1630067068448,2115
1630067068452,2114
1630067068456,2113
1630067068460,2110
1630067068464,2107
1630067068468,2102
1630067068472,2097
1630067068476,2091
1630067068480,2085
1630067068484,2079
1630067068488,2073
1630067068492,2067
1630067068496,2062
1630067068500,2056
1630067068504,2051
1630067068508,2048
1630067068512,2045
1630067068516,2043
1630067068520,2042
1630067068524,2040
1630067068528,2039
1630067068532,2038
1630067068536,2036
1630067068540,2036
1630067068544,2036
1630067068548,2036
1630067068552,2036
1630067068556,2037
1630067068560,2038
1630067068564,2038
1630067068568,2038
1630067068572,2038
1630067068576,2038
1630067068580,2038
1630067068584,2038
1630067068588,2039
1630067068592,2040
1630067068596,2040
1630067068600,2041
1630067068604,2042
1630067068608,2042
1630067068612,2042
1630067068616,2042
1630067068620,2042
1630067068624,2042
1630067068628,2042
1630067068632,2042
1630067068636,2043
1630067068640,2043
1630067068644,2044
1630067068648,2044
1630067068652,2044
1630067068656,2043
1630067068660,2042
1630067068664,2041
1630067068668,2040
1630067068672,2040
1630067068676,2041
1630067068680,2041
1630067068684,2041
1630067068688,2041
1630067068692,2041
1630067068696,2040
1630067068700,2039
1630067068704,2039
1630067068708,2039
1630067068712,2039
1630067068716,2039
1630067068720,2040
1630067068724,2040
1630067068728,2039
1630067068732,2039
1630067068736,2039
1630067068740,2038
1630067068744,2038
1630067068748,2038
1630067068752,2038
1630067068756,2039
1630067068760,2039
1630067068764,2039
1630067068768,2040
1630067068772,2040
1630067068776,2040
1630067068780,2039
1630067068784,2039
1630067068788,2039
1630067068792,2039
1630067068796,2039
1630067068800,2040
1630067068804,2040
1630067068808,2041
1630067068812,2041
1630067068816,2041
1630067068820,2041
1630067068824,2041
1630067068828,2042
1630067068832,2042
1630067068836,2042
1630067068840,2042
1630067068844,2042
1630067068848,2042
1630067068852,2042
1630067068856,2042
1630067068860,2042
1630067068864,2042
1630067068868,2042
1630067068872,2042
1630067068876,2042
1630067068880,2042
1630067068884,2043
1630067068888,2044
1630067068892,2044
1630067068896,2044
1630067068900,2043
1630067068904,2043
1630067068908,2042
1630067068912,2042
1630067068916,2043
1630067068920,2043
1630067068924,2044
1630067068928,2044
1630067068932,2044
1630067068936,2045
1630067068940,2044
1630067068944,2045
1630067068948,2045
1630067068952,2045
1630067068956,2046
1630067068960,2046
1630067068964,2046
1630067068968,2046
1630067068972,2046
1630067068976,2046
1630067068980,2046
1630067068984,2045
1630067068988,2045
1630067068992,2045
1630067068996,2046
1630067069000,2046
1630067069004,2046
1630067069008,2047
1630067069012,2047
1630067069016,2047
1630067069020,2047
1630067069024,2047
1630067069028,2047
1630067069032,2047
1630067069036,2047
1630067069040,2047
1630067069044,2048
1630067069048,2048
1630067069052,2048
1630067069056,2050
1630067069060,2053
1630067069064,2057
1630067069068,2059
1630067069072,2058
1630067069076,2056
1630067069080,2053
1630067069084,2050
1630067069088,2048
1630067069092,2048
1630067069096,2047
1630067069100,2046
1630067069104,2046
1630067069108,2046
1630067069112,2046
1630067069116,2047
1630067069120,2047
1630067069124,2047
1630067069128,2047
1630067069132,2048
1630067069136,2048
1630067069140,2048
1630067069144,2042
1630067069148,2033
1630067069152,2025
1630067069156,2024
1630067069160,2040
1630067069164,2085
1630067069168,2158
1630067069172,2233
1630067069176,2280
1630067069180,2273
1630067069184,2210
1630067069188,2114
1630067069192,2029
1630067069196,1983
1630067069200,1983
1630067069204,2012
1630067069208,2046
1630067069212,2062
1630067069216,2060
1630067069220,2052
1630067069224,2047
1630067069228,2044
1630067069232,2043
1630067069236,2044
1630067069240,2045
1630067069244,2046
1630067069248,2046
1630067069252,2047
1630067069256,2048
1630067069260,2048
1630067069264,2048
1630067069268,2049
1630067069272,2050
1630067069276,2051
1630067069280,2052
1630067069284,2053
1630067069288,2054
1630067069292,2056
1630067069296,2057
1630067069300,2057
1630067069304,2058
1630067069308,2059
1630067069312,2060
1630067069316,2060
1630067069320,2061
1630067069324,2063
1630067069328,2064
1630067069332,2066
1630067069336,2067
1630067069340,2068
1630067069344,2070
1630067069348,2071
1630067069352,2073
1630067069356,2075
1630067069360,2077
1630067069364,2079
1630067069368,2081
1630067069372,2084
1630067069376,2086
1630067069380,2089
1630067069384,2091
1630067069388,2093
1630067069392,2096
1630067069396,2099
1630067069400,2102
1630067069404,2105
1630067069408,2107
1630067069412,2109
1630067069416,2111
1630067069420,2111
1630067069424,2112
1630067069428,2113
1630067069432,2114
1630067069436,2113
1630067069440,2112
1630067069444,2110
1630067069448,2106
1630067069452,2101
1630067069456,2094
1630067069460,2088
1630067069464,2082
1630067069468,2076
1630067069472,2070
1630067069476,2065
1630067069480,2061
1630067069484,2056
1630067069488,2051
1630067069492,2048
1630067069496,2045
1630067069500,2042
1630067069504,2040
1630067069508,2038
1630067069512,2036
1630067069516,2035
1630067069520,2035
1630067069524,2035
1630067069528,2035
1630067069532,2035
1630067069536,2035
1630067069540,2036
1630067069544,2036
1630067069548,2036
1630067069552,2036
1630067069556,2037
1630067069560,2037
1630067069564,2038
1630067069568,2038
1630067069572,2039
1630067069576,2039
1630067069580,2039
1630067069584,2039
1630067069588,2039
1630067069592,2039
1630067069596,2040
1630067069600,2040
1630067069604,2041
1630067069608,2041
1630067069612,2041
1630067069616,2041
1630067069620,2041
1630067069624,2041
1630067069628,2041
1630067069632,2040
1630067069636,2040
1630067069640,2040
1630067069644,2040
1630067069648,2039
1630067069652,2039
1630067069656,2039
1630067069660,2038
1630067069664,2038
1630067069668,2038
1630067069672,2037
1630067069676,2037
1630067069680,2037
1630067069684,2037
1630067069688,2036
1630067069692,2036
1630067069696,2036
1630067069700,2035
1630067069704,2034
1630067069708,2034
1630067069712,2034
1630067069716,2035
1630067069720,2036
1630067069724,2037
1630067069728,2037
1630067069732,2036
1630067069736,2036
1630067069740,2035
1630067069744,2034
1630067069748,2034
1630067069752,2035
1630067069756,2035
1630067069760,2035
1630067069764,2036
1630067069768,2036
1630067069772,2036
1630067069776,2036
1630067069780,2036
1630067069784,2036
1630067069788,2036
1630067069792,2036
1630067069796,2037
1630067069800,2037
1630067069804,2037
1630067069808,2038
1630067069812,2037
1630067069816,2037
1630067069820,2037
1630067069824,2036
1630067069828,2036
1630067069832,2036
1630067069836,2037
1630067069840,2038
1630067069844,2038
1630067069848,2038
1630067069852,2037
1630067069856,2037
1630067069860,2037
1630067069864,2037
1630067069868,2038
1630067069872,2038
1630067069876,2039
1630067069880,2039
1630067069884,2039
1630067069888,2039
1630067069892,2039
1630067069896,2039
1630067069900,2039
1630067069904,2039
1630067069908,2039
1630067069912,2039
1630067069916,2039
1630067069920,2040
1630067069924,2040
1630067069928,2040
1630067069932,2040
1630067069936,2040
1630067069940,2039
1630067069944,2039
1630067069948,2039
1630067069952,2040
1630067069956,2042
1630067069960,2044
1630067069964,2046
1630067069968,2048
1630067069972,2050
1630067069976,2052
1630067069980,2053
1630067069984,2052
1630067069988,2051
1630067069992,2048
1630067069996,2047
1630067070000,2045
1630067070004,2044
1630067070008,2043
1630067070012,2042
1630067070016,2041
1630067070020,2040
1630067070024,2040
1630067070028,2040
1630067070032,2040
1630067070036,2040
1630067070040,2041
1630067070044,2041
1630067070048,2043
1630067070052,2044
1630067070056,2043
1630067070060,2038
1630067070064,2029
1630067070068,2022
1630067070072,2021
1630067070076,2039
1630067070080,2086
1630067070084,2157
1630067070088,2228
1630067070092,2267
1630067070096,2250
1630067070100,2180
1630067070104,2082
1630067070108,2000
1630067070112,1960
1630067070116,1966
1630067070120,1999
1630067070124,2035
1630067070128,2052
1630067070132,2051
1630067070136,2045
1630067070140,2040
1630067070144,2037
1630067070148,2038
1630067070152,2039
1630067070156,2041
1630067070160,2042
1630067070164,2041
1630067070168,2041
1630067070172,2041
1630067070176,2041
1630067070180,2042
1630067070184,2044
1630067070188,2046
1630067070192,2047
1630067070196,2048
1630067070200,2048
1630067070204,2048
1630067070208,2048
1630067070212,2049
1630067070216,2050
1630067070220,2052
1630067070224,2053
1630067070228,2055
1630067070232,2056
1630067070236,2058
1630067070240,2059
1630067070244,2060
1630067070248,2060
1630067070252,2061
1630067070256,2062
1630067070260,2063
1630067070264,2064
1630067070268,2066
1630067070272,2068
1630067070276,2070
1630067070280,2072
1630067070284,2075
1630067070288,2077
1630067070292,2080
1630067070296,2082
1630067070300,2085
1630067070304,2088
1630067070308,2091
1630067070312,2093
1630067070316,2096
1630067070320,2098
1630067070324,2101
1630067070328,2104
1630067070332,2107
1630067070336,2109
1630067070340,2109
1630067070344,2109
1630067070348,2109
1630067070352,2108
1630067070356,2106
1630067070360,2104
1630067070364,2100
1630067070368,2094
1630067070372,2087
1630067070376,2080
1630067070380,2072
1630067070384,2066
1630067070388,2060
1630067070392,2055
1630067070396,2050
1630067070400,2046
1630067070404,2042
1630067070408,2038
1630067070412,2035
1630067070416,2032
1630067070420,2029
1630067070424,2028
1630067070428,2027
1630067070432,2026
1630067070436,2025
1630067070440,2025
1630067070444,2026
1630067070448,2026
1630067070452,2025
1630067070456,2025
1630067070460,2025
1630067070464,2025
1630067070468,2026
1630067070472,2027
1630067070476,2029
1630067070480,2030
1630067070484,2031
1630067070488,2031
1630067070492,2030
1630067070496,2030
1630067070500,2029
1630067070504,2029
1630067070508,2030
1630067070512,2030
1630067070516,2031
1630067070520,2032
1630067070524,2032
1630067070528,2032
1630067070532,2031
1630067070536,2031
1630067070540,2030
1630067070544,2029
1630067070548,2029
1630067070552,2029
1630067070556,2028
1630067070560,2028
1630067070564,2028
1630067070568,2027
1630067070572,2027
1630067070576,2027
1630067070580,2027
1630067070584,2027
1630067070588,2026
1630067070592,2026
1630067070596,2025
1630067070600,2024
1630067070604,2024
1630067070608,2024
1630067070612,2024
1630067070616,2024
1630067070620,2024
1630067070624,2023
1630067070628,2023
1630067070632,2023
1630067070636,2023
1630067070640,2023
1630067070644,2023
1630067070648,2023
1630067070652,2023
1630067070656,2022
1630067070660,2022
1630067070664,2022
1630067070668,2022
1630067070672,2023
1630067070676,2023
1630067070680,2024
1630067070684,2024
1630067070688,2023
1630067070692,2023
1630067070696,2023
1630067070700,2022
1630067070704,2022
1630067070708,2022
1630067070712,2022
1630067070716,2023
1630067070720,2024
1630067070724,2025
1630067070728,2025
1630067070732,2024
1630067070736,2023
1630067070740,2021
1630067070744,2020
1630067070748,2020
1630067070752,2020
1630067070756,2020
1630067070760,2020
1630067070764,2021
1630067070768,2022
1630067070772,2023
1630067070776,2024
1630067070780,2026
1630067070784,2027
1630067070788,2030
1630067070792,2031
1630067070796,2033
1630067070800,2035
1630067070804,2035
1630067070808,2034
1630067070812,2033
1630067070816,2031
1630067070820,2029
1630067070824,2026
1630067070828,2024
1630067070832,2022
1630067070836,2021
1630067070840,2021
1630067070844,2020
1630067070848,2020
1630067070852,2020
1630067070856,2021
1630067070860,2021
1630067070864,2021
1630067070868,2021
1630067070872,2022
1630067070876,2023
1630067070880,2025
1630067070884,2026
1630067070888,2023
1630067070892,2016
1630067070896,2009
1630067070900,2007
1630067070904,2022
1630067070908,2066
1630067070912,2135
1630067070916,2204
1630067070920,2241
1630067070924,2222
1630067070928,2149
1630067070932,2049
1630067070936,1964
1630067070940,1922
1630067070944,1929
1630067070948,1965
1630067070952,2006
1630067070956,2033
1630067070960,2040
1630067070964,2038
1630067070968,2034
1630067070972,2031
1630067070976,2029
1630067070980,2028
1630067070984,2029
1630067070988,2031
1630067070992,2032
1630067070996,2035
1630067071000,2037
1630067071004,2039
1630067071008,2041
1630067071012,2042
1630067071016,2043
1630067071020,2044
1630067071024,2045
1630067071028,2046
1630067071032,2047
1630067071036,2048
1630067071040,2049
1630067071044,2050
1630067071048,2051
1630067071052,2052
1630067071056,2052
1630067071060,2052
1630067071064,2053
1630067071068,2055
1630067071072,2057
1630067071076,2059
1630067071080,2062
1630067071084,2063
1630067071088,2065
1630067071092,2066
1630067071096,2067
1630067071100,2069
1630067071104,2071
1630067071108,2073
1630067071112,2076
1630067071116,2078
1630067071120,2081
1630067071124,2085
1630067071128,2088
1630067071132,2091
1630067071136,2094
1630067071140,2097
1630067071144,2099
1630067071148,2102
1630067071152,2104
1630067071156,2107
1630067071160,2109
1630067071164,2111
1630067071168,2112
1630067071172,2113
1630067071176,2112
1630067071180,2111
1630067071184,2109
1630067071188,2105
1630067071192,2100
1630067071196,2094
1630067071200,2088
1630067071204,2081
1630067071208,2074
1630067071212,2068
1630067071216,2062
1630067071220,2055
1630067071224,2049
1630067071228,2046
1630067071232,2042
1630067071236,2039
1630067071240,2037
1630067071244,2036
1630067071248,2034
1630067071252,2033
1630067071256,2033
1630067071260,2032
1630067071264,2032
1630067071268,2032
1630067071272,2032
1630067071276,2032
1630067071280,2032
1630067071284,2033
1630067071288,2033
1630067071292,2034
1630067071296,2033
1630067071300,2033
1630067071304,2033
1630067071308,2033
1630067071312,2034
1630067071316,2036
1630067071320,2037
1630067071324,2038
1630067071328,2039
1630067071332,2039
1630067071336,2040
1630067071340,2039
1630067071344,2040
1630067071348,2040
1630067071352,2040
1630067071356,2040
1630067071360,2041
1630067071364,2041
1630067071368,2041
1630067071372,2041
1630067071376,2041
1630067071380,2041
1630067071384,2040
1630067071388,2039
1630067071392,2038
1630067071396,2038
1630067071400,2038
1630067071404,2038
1630067071408,2038
1630067071412,2038
1630067071416,2038
1630067071420,2038
1630067071424,2038
1630067071428,2038
1630067071432,2037
1630067071436,2038
1630067071440,2038
1630067071444,2038
1630067071448,2038
1630067071452,2039
1630067071456,2039
1630067071460,2039
1630067071464,2039
1630067071468,2039
1630067071472,2039
1630067071476,2040
1630067071480,2040
1630067071484,2040
1630067071488,2040
1630067071492,2040
1630067071496,2040
1630067071500,2040
1630067071504,2039
1630067071508,2040
1630067071512,2040
1630067071516,2041
1630067071520,2042
1630067071524,2042
1630067071528,2042
1630067071532,2042
1630067071536,2041
1630067071540,2041
1630067071544,2041
1630067071548,2042
1630067071552,2042
1630067071556,2043
1630067071560,2043
1630067071564,2042
1630067071568,2041
1630067071572,2041
1630067071576,2041
1630067071580,2041
1630067071584,2042
1630067071588,2045
1630067071592,2047
1630067071596,2049
1630067071600,2052
1630067071604,2054
1630067071608,2056
1630067071612,2056
1630067071616,2056
1630067071620,2055
1630067071624,2054
1630067071628,2052
1630067071632,2050
1630067071636,2049
1630067071640,2048
1630067071644,2048
1630067071648,2048
1630067071652,2048
1630067071656,2047
1630067071660,2046
1630067071664,2045
1630067071668,2045
1630067071672,2045
1630067071676,2046
1630067071680,2047
1630067071684,2048
1630067071688,2049
1630067071692,2049
1630067071696,2047
1630067071700,2039
1630067071704,2030
1630067071708,2025
1630067071712,2033
1630067071716,2066
1630067071720,2131
1630067071724,2209
1630067071728,2270
1630067071732,2284
1630067071736,2236
1630067071740,2143
1630067071744,2046
1630067071748,1981
1630067071752,1967
1630067071756,1991
1630067071760,2030
1630067071764,2057
1630067071768,2064
1630067071772,2058
1630067071776,2051
1630067071780,2048
1630067071784,2047
1630067071788,2047
1630067071792,2047
1630067071796,2048
1630067071800,2048
1630067071804,2048
1630067071808,2050
1630067071812,2051
1630067071816,2053
1630067071820,2053
1630067071824,2054
1630067071828,2054
1630067071832,2055
1630067071836,2056
1630067071840,2058
1630067071844,2059
1630067071848,2060
1630067071852,2061
1630067071856,2061
1630067071860,2061
1630067071864,2062
1630067071868,2064
1630067071872,2065
1630067071876,2067
1630067071880,2069
1630067071884,2071
1630067071888,2072
1630067071892,2074
1630067071896,2075
1630067071900,2077
1630067071904,2078
1630067071908,2080
1630067071912,2081
1630067071916,2084
1630067071920,2086
1630067071924,2089
1630067071928,2092
1630067071932,2094
1630067071936,2097
1630067071940,2100
1630067071944,2103
1630067071948,2106
1630067071952,2108
1630067071956,2111
1630067071960,2114
1630067071964,2116
1630067071968,2118
1630067071972,2119
1630067071976,2120
1630067071980,2120
1630067071984,2120
1630067071988,2119
1630067071992,2116
1630067071996,2113
1630067072000,2108
1630067072004,2103
1630067072008,2097
1630067072012,2090
1630067072016,2083
1630067072020,2076
1630067072024,2070
1630067072028,2064
1630067072032,2059
1630067072036,2055
1630067072040,2051
1630067072044,2048
1630067072048,2047
1630067072052,2045
1630067072056,2044
1630067072060,2042
1630067072064,2041
1630067072068,2040
1630067072072,2039
1630067072076,2038
1630067072080,2038
1630067072084,2038
1630067072088,2038
1630067072092,2039
1630067072096,2039
1630067072100,2039
1630067072104,2039
1630067072108,2040
1630067072112,2040
1630067072116,2041
1630067072120,2042
1630067072124,2043
1630067072128,2043
1630067072132,2043
1630067072136,2043
1630067072140,2043
1630067072144,2044
1630067072148,2045
1630067072152,2045
1630067072156,2046
1630067072160,2047
1630067072164,2047
1630067072168,2048
1630067072172,2047
1630067072176,2047
1630067072180,2046
1630067072184,2045
1630067072188,2045
1630067072192,2045
1630067072196,2046
1630067072200,2045
1630067072204,2045
1630067072208,2045
1630067072212,2045
1630067072216,2045
1630067072220,2044
1630067072224,2044
1630067072228,2044
1630067072232,2043
1630067072236,2043
1630067072240,2043
1630067072244,2043
1630067072248,2042
1630067072252,2042
1630067072256,2042
1630067072260,2041
1630067072264,2041
1630067072268,2041
1630067072272,2042
1630067072276,2042
1630067072280,2042
1630067072284,2042
1630067072288,2042
1630067072292,2042
1630067072296,2042
1630067072300,2042
1630067072304,2042
1630067072308,2042
1630067072312,2043
1630067072316,2043
1630067072320,2043
1630067072324,2044
1630067072328,2043
1630067072332,2043
1630067072336,2043
1630067072340,2043
1630067072344,2043
1630067072348,2044
1630067072352,2044
1630067072356,2044
1630067072360,2044
1630067072364,2044
1630067072368,2043
1630067072372,2042
1630067072376,2041
1630067072380,2040
1630067072384,2040
1630067072388,2041
1630067072392,2043
1630067072396,2046
1630067072400,2048
1630067072404,2050
1630067072408,2052
1630067072412,2054
1630067072416,2055
1630067072420,2056
1630067072424,2056
1630067072428,2055
1630067072432,2054
1630067072436,2053
1630067072440,2052
1630067072444,2050
1630067072448,2049
1630067072452,2048
1630067072456,2047
1630067072460,2045
1630067072464,2045
1630067072468,2044
1630067072472,2044
1630067072476,2044
1630067072480,2044
1630067072484,2045
1630067072488,2045
1630067072492,2046
1630067072496,2048
1630067072500,2048
1630067072504,2047
1630067072508,2041
1630067072512,2032
1630067072516,2024
1630067072520,2024
1630067072524,2042
1630067072528,2090
1630067072532,2165
1630067072536,2241
1630067072540,2286
1630067072544,2275
1630067072548,2205
1630067072552,2106
1630067072556,2020
1630067072560,1976
1630067072564,1980
1630067072568,2011
1630067072572,2044
1630067072576,2059
1630067072580,2057
1630067072584,2049
1630067072588,2045
1630067072592,2043
1630067072596,2044
1630067072600,2045
1630067072604,2046
1630067072608,2047
1630067072612,2047
1630067072616,2047
1630067072620,2048
1630067072624,2048
1630067072628,2048
1630067072632,2049
1630067072636,2050
1630067072640,2052
1630067072644,2053
1630067072648,2053
1630067072652,2054
1630067072656,2054
1630067072660,2054
1630067072664,2055
1630067072668,2057
1630067072672,2058
1630067072676,2059
1630067072680,2061
1630067072684,2063
1630067072688,2064
1630067072692,2066
1630067072696,2067
1630067072700,2068
1630067072704,2069
1630067072708,2071
1630067072712,2073
1630067072716,2075
1630067072720,2077
1630067072724,2080
1630067072728,2082
1630067072732,2084
1630067072736,2086
1630067072740,2088
1630067072744,2091
1630067072748,2093
1630067072752,2096
1630067072756,2100
1630067072760,2103
1630067072764,2107
1630067072768,2110
1630067072772,2113
1630067072776,2115
1630067072780,2116
1630067072784,2117
1630067072788,2118
1630067072792,2119
1630067072796,2119
1630067072800,2118
1630067072804,2116
1630067072808,2112
1630067072812,2107
1630067072816,2100
1630067072820,2093
1630067072824,2086
1630067072828,2079
1630067072832,2073
1630067072836,2067
1630067072840,2063
1630067072844,2058
1630067072848,2054
1630067072852,2050
1630067072856,2048
1630067072860,2044
1630067072864,2042
1630067072868,2040
1630067072872,2038
1630067072876,2038
1630067072880,2038
1630067072884,2039
1630067072888,2039
1630067072892,2039
1630067072896,2039
1630067072900,2039
1630067072904,2039
1630067072908,2039
1630067072912,2039
1630067072916,2040
1630067072920,2040
1630067072924,2041
1630067072928,2041
1630067072932,2041
1630067072936,2041
1630067072940,2041
1630067072944,2042
1630067072948,2042
1630067072952,2043
1630067072956,2045
1630067072960,2046
1630067072964,2047
1630067072968,2047
1630067072972,2047
1630067072976,2047
1630067072980,2046
1630067072984,2047
1630067072988,2047
1630067072992,2048
1630067072996,2048
1630067073000,2048
1630067073004,2048
1630067073008,2048
1630067073012,2047
1630067073016,2047
1630067073020,2046
1630067073024,2046
1630067073028,2046
1630067073032,2046
1630067073036,2046
1630067073040,2046
1630067073044,2046
1630067073048,2046
1630067073052,2046
1630067073056,2046
1630067073060,2045
1630067073064,2045
1630067073068,2044
1630067073072,2044
1630067073076,2044
1630067073080,2044
1630067073084,2045
1630067073088,2045
1630067073092,2044
1630067073096,2044
1630067073100,2044
1630067073104,2044
1630067073108,2044
1630067073112,2045
1630067073116,2045
1630067073120,2046
1630067073124,2045
1630067073128,2045
1630067073132,2045
1630067073136,2045
1630067073140,2045
1630067073144,2045
1630067073148,2045
1630067073152,2045
1630067073156,2046
1630067073160,2046
1630067073164,2047
1630067073168,2048
1630067073172,2047
1630067073176,2046
1630067073180,2046
1630067073184,2045
1630067073188,2046
1630067073192,2046
1630067073196,2046
1630067073200,2046
1630067073204,2046
1630067073208,2046
1630067073212,2045
1630067073216,2045
1630067073220,2043
1630067073224,2043
1630067073228,2043
1630067073232,2043
1630067073236,2044
1630067073240,2045
1630067073244,2046
1630067073248,2047
1630067073252,2047
1630067073256,2048
1630067073260,2049
1630067073264,2051
1630067073268,2054
1630067073272,2057
1630067073276,2060
1630067073280,2061
1630067073284,2063
1630067073288,2063
1630067073292,2063
1630067073296,2062
1630067073300,2061
1630067073304,2060
1630067073308,2058
1630067073312,2056
1630067073316,2055
1630067073320,2055
1630067073324,2055
1630067073328,2055
1630067073332,2055
1630067073336,2054
1630067073340,2053
1630067073344,2053
1630067073348,2053
1630067073352,2053
1630067073356,2054
1630067073360,2055
1630067073364,2056
1630067073368,2056
1630067073372,2054
1630067073376,2048
1630067073380,2041
1630067073384,2037
1630067073388,2040
1630067073392,2062
1630067073396,2115
1630067073400,2188
1630067073404,2255
1630067073408,2285
1630067073412,2257
1630067073416,2179
1630067073420,2081
1630067073424,2007
1630067073428,1977
1630067073432,1990
1630067073436,2026
1630067073440,2057
1630067073444,2070
1630067073448,2066
1630067073452,2059
1630067073456,2054
1630067073460,2051
1630067073464,2051
1630067073468,2052
1630067073472,2053
1630067073476,2054
1630067073480,2054
1630067073484,2055
1630067073488,2055
1630067073492,2055
1630067073496,2056
1630067073500,2057
1630067073504,2058
1630067073508,2059
1630067073512,2060
1630067073516,2061
1630067073520,2062
1630067073524,2063
1630067073528,2063
1630067073532,2064
1630067073536,2064
1630067073540,2065
1630067073544,2066
1630067073548,2068
1630067073552,2069
1630067073556,2070
1630067073560,2072
1630067073564,2073
1630067073568,2074
1630067073572,2075
1630067073576,2076
1630067073580,2076
1630067073584,2078
1630067073588,2079
1630067073592,2082
1630067073596,2084
1630067073600,2087
1630067073604,2090
1630067073608,2092
1630067073612,2094
1630067073616,2096
1630067073620,2098
1630067073624,2101
1630067073628,2104
1630067073632,2107
1630067073636,2110
1630067073640,2113
1630067073644,2115
1630067073648,2116
1630067073652,2117
1630067073656,2118
1630067073660,2118
1630067073664,2118
1630067073668,2117
1630067073672,2114
1630067073676,2110
1630067073680,2104
1630067073684,2099
1630067073688,2092
1630067073692,2085
1630067073696,2078
1630067073700,2070
1630067073704,2064
1630067073708,2058
1630067073712,2053
1630067073716,2050
1630067073720,2048
1630067073724,2044
1630067073728,2041
1630067073732,2038
1630067073736,2036
1630067073740,2034
1630067073744,2033
1630067073748,2032
1630067073752,2031
1630067073756,2032
1630067073760,2033
1630067073764,2033
1630067073768,2033
1630067073772,2033
1630067073776,2032
1630067073780,2031
1630067073784,2030
1630067073788,2030
1630067073792,2031
1630067073796,2032
1630067073800,2034
1630067073804,2035
1630067073808,2035
1630067073812,2034
1630067073816,2033
1630067073820,2033
1630067073824,2033
1630067073828,2034
1630067073832,2035
1630067073836,2037
1630067073840,2037
1630067073844,2036
1630067073848,2035
1630067073852,2034
1630067073856,2033
1630067073860,2034
1630067073864,2034
1630067073868,2035
1630067073872,2034
1630067073876,2034
1630067073880,2033
1630067073884,2033
1630067073888,2031
1630067073892,2031
1630067073896,2030
1630067073900,2030
1630067073904,2029
1630067073908,2029
1630067073912,2028
1630067073916,2027
1630067073920,2027
1630067073924,2028
1630067073928,2029
1630067073932,2029
1630067073936,2030
1630067073940,2030
1630067073944,2029
1630067073948,2028
1630067073952,2026
1630067073956,2026
1630067073960,2025
1630067073964,2026
1630067073968,2026
1630067073972,2026
1630067073976,2027
1630067073980,2026
1630067073984,2026
1630067073988,2026
1630067073992,2025
1630067073996,2025
1630067074000,2025
1630067074004,2025
1630067074008,2025
1630067074012,2025
1630067074016,2025
1630067074020,2025
1630067074024,2025
1630067074028,2024
1630067074032,2023
1630067074036,2023
1630067074040,2023
1630067074044,2023
1630067074048,2024
1630067074052,2024
1630067074056,2025
1630067074060,2025
1630067074064,2024
1630067074068,2024
1630067074072,2023
1630067074076,2024
1630067074080,2024
1630067074084,2024
1630067074088,2024
1630067074092,2025
1630067074096,2024
1630067074100,2023
1630067074104,2022
1630067074108,2022
1630067074112,2022
1630067074116,2023
1630067074120,2024
1630067074124,2027
1630067074128,2029
1630067074132,2031
1630067074136,2033
1630067074140,2034
1630067074144,2035
1630067074148,2035
1630067074152,2034
1630067074156,2034
1630067074160,2033
1630067074164,2032
1630067074168,2030
1630067074172,2028
1630067074176,2026
1630067074180,2025
1630067074184,2023
1630067074188,2023
1630067074192,2022
1630067074196,2023
1630067074200,2023
1630067074204,2023
1630067074208,2023
1630067074212,2023
1630067074216,2024
1630067074220,2024
1630067074224,2026
1630067074228,2027
1630067074232,2026
1630067074236,2020
1630067074240,2012
1630067074244,2005
1630067074248,2008
1630067074252,2034
1630067074256,2089
1630067074260,2161
1630067074264,2223
1630067074268,2243
1630067074272,2204
1630067074276,2118
1630067074280,2019
1630067074284,1948
1630067074288,1925
1630067074292,1946
1630067074296,1986
1630067074300,2022
1630067074304,2039
1630067074308,2038
1630067074312,2034
1630067074316,2031
1630067074320,2029
1630067074324,2030
1630067074328,2032
1630067074332,2034
1630067074336,2034
1630067074340,2035
1630067074344,2035
1630067074348,2036
1630067074352,2038
1630067074356,2040
1630067074360,2042
1630067074364,2043
1630067074368,2045
1630067074372,2045
1630067074376,2046
1630067074380,2046
1630067074384,2046
1630067074388,2047
1630067074392,2048
1630067074396,2049
1630067074400,2051
1630067074404,2053
1630067074408,2055
1630067074412,2057
1630067074416,2059
1630067074420,2059
1630067074424,2061
1630067074428,2062
1630067074432,2063
1630067074436,2065
1630067074440,2068
1630067074444,2070
1630067074448,2073
1630067074452,2075
1630067074456,2077
1630067074460,2078
1630067074464,2079
1630067074468,2081
1630067074472,2083
1630067074476,2087
1630067074480,2091
1630067074484,2096
1630067074488,2101
1630067074492,2104
1630067074496,2107
1630067074500,2109
1630067074504,2110
1630067074508,2111
1630067074512,2111
1630067074516,2112
1630067074520,2113
1630067074524,2112
1630067074528,2111
1630067074532,2108
1630067074536,2104
1630067074540,2098
1630067074544,2092
1630067074548,2085
1630067074552,2078
1630067074556,2071
1630067074560,2065
1630067074564,2060
1630067074568,2055
1630067074572,2050
1630067074576,2047
1630067074580,2044
1630067074584,2041
1630067074588,2038
1630067074592,2036
1630067074596,2035
1630067074600,2035
1630067074604,2035
1630067074608,2035
1630067074612,2035
1630067074616,2035
1630067074620,2034
1630067074624,2033
1630067074628,2033
1630067074632,2033
1630067074636,2035
1630067074640,2036
1630067074644,2037
1630067074648,2038
1630067074652,2038
1630067074656,2039
1630067074660,2039
1630067074664,2039
1630067074668,2039
1630067074672,2040
1630067074676,2041
1630067074680,2042
1630067074684,2043
1630067074688,2043
1630067074692,2044
1630067074696,2044
1630067074700,2044
1630067074704,2044
1630067074708,2044
1630067074712,2044
1630067074716,2044
1630067074720,2043
1630067074724,2043
1630067074728,2042
1630067074732,2042
1630067074736,2042
1630067074740,2041
1630067074744,2041
1630067074748,2041
1630067074752,2041
1630067074756,2042
1630067074760,2042
1630067074764,2042
1630067074768,2042
1630067074772,2041
1630067074776,2041
1630067074780,2040
1630067074784,2040
1630067074788,2040
1630067074792,2040
1630067074796,2040
1630067074800,2039
1630067074804,2039
1630067074808,2039
1630067074812,2040
1630067074816,2041
1630067074820,2041
1630067074824,2041
1630067074828,2040
1630067074832,2040
1630067074836,2040
1630067074840,2040
1630067074844,2040
1630067074848,2041
1630067074852,2041
1630067074856,2041
1630067074860,2041
1630067074864,2042
1630067074868,2043
1630067074872,2043
1630067074876,2044
1630067074880,2043
1630067074884,2043
1630067074888,2042
1630067074892,2041
1630067074896,2042
1630067074900,2042
1630067074904,2043
1630067074908,2043
1630067074912,2044
1630067074916,2044
1630067074920,2045
1630067074924,2046
1630067074928,2046
1630067074932,2046
1630067074936,2046
1630067074940,2045
1630067074944,2045
1630067074948,2045
1630067074952,2046
1630067074956,2048
1630067074960,2048
1630067074964,2048
1630067074968,2048
1630067074972,2046
1630067074976,2046
1630067074980,2046
1630067074984,2047
1630067074988,2048
1630067074992,2048
1630067074996,2049
1630067075000,2049
1630067075004,2049
1630067075008,2048
1630067075012,2048
1630067075016,2048
1630067075020,2048
1630067075024,2048
1630067075028,2048
1630067075032,2048
1630067075036,2048
1630067075040,2049
1630067075044,2050
1630067075048,2051
1630067075052,2052
1630067075056,2053
1630067075060,2054
1630067075064,2056
1630067075068,2058
1630067075072,2060
1630067075076,2062
1630067075080,2063
1630067075084,2063
1630067075088,2061
1630067075092,2059
1630067075096,2056
1630067075100,2054
1630067075104,2052
1630067075108,2051
1630067075112,2051
1630067075116,2052
1630067075120,2052
1630067075124,2051
1630067075128,2049
1630067075132,2047
1630067075136,2044
1630067075140,2043
1630067075144,2043
1630067075148,2044
1630067075152,2046
1630067075156,2047
1630067075160,2043
1630067075164,2036
1630067075168,2027
1630067075172,2021
1630067075176,2026
1630067075180,2053
1630067075184,2113
1630067075188,2191
1630067075192,2260
1630067075196,2288
1630067075200,2255
1630067075204,2171
1630067075208,2072
1630067075212,1999
1630067075216,1972
1630067075220,1987
1630067075224,2020
1630067075228,2048
1630067075232,2056
1630067075236,2051
1630067075240,2045
1630067075244,2040
1630067075248,2038
1630067075252,2038
1630067075256,2039
1630067075260,2039
1630067075264,2039
1630067075268,2039
1630067075272,2039
1630067075276,2041
1630067075280,2042
1630067075284,2045
1630067075288,2046
1630067075292,2048
1630067075296,2048
1630067075300,2048
1630067075304,2048
1630067075308,2048
1630067075312,2049
1630067075316,2050
1630067075320,2052
1630067075324,2052
1630067075328,2053
1630067075332,2053
1630067075336,2054
1630067075340,2054
1630067075344,2055
1630067075348,2056
1630067075352,2058
1630067075356,2060
1630067075360,2062
1630067075364,2064
1630067075368,2065
1630067075372,2066
1630067075376,2067
1630067075380,2068
1630067075384,2070
1630067075388,2072
1630067075392,2075
1630067075396,2079
1630067075400,2083
1630067075404,2088
1630067075408,2092
1630067075412,2095
1630067075416,2097
1630067075420,2099
1630067075424,2100
1630067075428,2102
1630067075432,2104
1630067075436,2106
1630067075440,2108
1630067075444,2110
1630067075448,2111
1630067075452,2111
1630067075456,2110
1630067075460,2107
1630067075464,2104
1630067075468,2099
1630067075472,2093
1630067075476,2087
1630067075480,2080
1630067075484,2074
1630067075488,2069
1630067075492,2063
1630067075496,2058
1630067075500,2053
1630067075504,2049
1630067075508,2046
1630067075512,2043
1630067075516,2041
1630067075520,2040
1630067075524,2038
1630067075528,2037
1630067075532,2034
1630067075536,2033
1630067075540,2032
1630067075544,2031
1630067075548,2031
1630067075552,2031
1630067075556,2031
1630067075560,2032
1630067075564,2033
1630067075568,2033
1630067075572,2033
1630067075576,2033
1630067075580,2033
1630067075584,2034
1630067075588,2035
1630067075592,2037
1630067075596,2038
1630067075600,2039
1630067075604,2039
1630067075608,2038
1630067075612,2038
1630067075616,2039
1630067075620,2039
1630067075624,2040
1630067075628,2040
1630067075632,2040
1630067075636,2041
1630067075640,2042
1630067075644,2043
1630067075648,2044
1630067075652,2043
1630067075656,2043
1630067075660,2041
1630067075664,2040
1630067075668,2040
1630067075672,2039
1630067075676,2040
1630067075680,2040
1630067075684,2040
1630067075688,2040
1630067075692,2040
1630067075696,2039
1630067075700,2038
1630067075704,2038
1630067075708,2037
1630067075712,2037
1630067075716,2037
1630067075720,2037
1630067075724,2037
1630067075728,2036
1630067075732,2035
1630067075736,2035
1630067075740,2035
1630067075744,2035
1630067075748,2036
1630067075752,2036
1630067075756,2037
1630067075760,2037
1630067075764,2038
1630067075768,2038
1630067075772,2038
1630067075776,2038
1630067075780,2038
1630067075784,2038
1630067075788,2038
1630067075792,2038
1630067075796,2039
1630067075800,2039
1630067075804,2039
1630067075808,2039
1630067075812,2038
1630067075816,2038
1630067075820,2038
1630067075824,2038
1630067075828,2038
1630067075832,2039
1630067075836,2040
1630067075840,2041
1630067075844,2041
1630067075848,2041
1630067075852,2041
1630067075856,2041
1630067075860,2040
1630067075864,2040
1630067075868,2040
1630067075872,2040
1630067075876,2040
1630067075880,2041
1630067075884,2042
1630067075888,2042
1630067075892,2043
1630067075896,2043
1630067075900,2043
1630067075904,2043
1630067075908,2043
1630067075912,2042
1630067075916,2043
1630067075920,2042
1630067075924,2042
1630067075928,2042
1630067075932,2043
1630067075936,2043
1630067075940,2043
1630067075944,2044
1630067075948,2044
1630067075952,2044
1630067075956,2043
1630067075960,2043
1630067075964,2043
1630067075968,2043
1630067075972,2044
1630067075976,2044
1630067075980,2044
1630067075984,2044
1630067075988,2044
1630067075992,2043
1630067075996,2043
1630067076000,2043
1630067076004,2043
1630067076008,2043
1630067076012,2043
1630067076016,2042
1630067076020,2042
1630067076024,2043
1630067076028,2043
1630067076032,2044
1630067076036,2046
1630067076040,2048
1630067076044,2049
1630067076048,2052
1630067076052,2054
1630067076056,2055
1630067076060,2055
1630067076064,2055
1630067076068,2053
1630067076072,2052
1630067076076,2050
1630067076080,2048
1630067076084,2048
1630067076088,2047
1630067076092,2046
1630067076096,2045
1630067076100,2043
1630067076104,2042
1630067076108,2040
1630067076112,2040
1630067076116,2041
1630067076120,2043
1630067076124,2043
1630067076128,2044
1630067076132,2044
1630067076136,2045
1630067076140,2044
1630067076144,2041
1630067076148,2034
1630067076152,2025
1630067076156,2020
1630067076160,2025
1630067076164,2051
1630067076168,2109
1630067076172,2186
1630067076176,2255
1630067076180,2285
1630067076184,2256
1630067076188,2177
1630067076192,2082
1630067076196,2010
1630067076200,1982
1630067076204,1995
1630067076208,2025
1630067076212,2050
1630067076216,2057
1630067076220,2050
1630067076224,2043
1630067076228,2038
1630067076232,2036
1630067076236,2037
1630067076240,2039
1630067076244,2040
1630067076248,2041
1630067076252,2042
1630067076256,2042
1630067076260,2043
1630067076264,2044
1630067076268,2044
1630067076272,2045
1630067076276,2045
1630067076280,2045
1630067076284,2046
1630067076288,2047
1630067076292,2048
1630067076296,2048
1630067076300,2049
1630067076304,2050
1630067076308,2051
1630067076312,2053
1630067076316,2054
1630067076320,2055
1630067076324,2055
1630067076328,2056
1630067076332,2057
1630067076336,2059
1630067076340,2060
1630067076344,2061
1630067076348,2062
1630067076352,2063
1630067076356,2064
1630067076360,2066
1630067076364,2068
1630067076368,2070
1630067076372,2073
1630067076376,2076
1630067076380,2078
1630067076384,2080
1630067076388,2081
1630067076392,2084
1630067076396,2086
1630067076400,2090
1630067076404,2093
1630067076408,2096
1630067076412,2098
1630067076416,2100
1630067076420,2101
1630067076424,2102
1630067076428,2103
1630067076432,2104
1630067076436,2105
1630067076440,2105
1630067076444,2103
1630067076448,2101
1630067076452,2098
1630067076456,2093
1630067076460,2087
1630067076464,2080
1630067076468,2073
1630067076472,2066
1630067076476,2060
1630067076480,2055
1630067076484,2050
1630067076488,2047
1630067076492,2043
1630067076496,2039
1630067076500,2035
1630067076504,2032
1630067076508,2031
1630067076512,2030
1630067076516,2029
1630067076520,2029
1630067076524,2029
1630067076528,2028
1630067076532,2026
1630067076536,2025
1630067076540,2024
1630067076544,2024
1630067076548,2025
1630067076552,2027
1630067076556,2028
1630067076560,2029
1630067076564,2029
1630067076568,2029
1630067076572,2029
1630067076576,2029
1630067076580,2029
1630067076584,2030
1630067076588,2030
1630067076592,2031
1630067076596,2031
1630067076600,2032
1630067076604,2032
1630067076608,2032
1630067076612,2031
1630067076616,2031
1630067076620,2031
1630067076624,2030
1630067076628,2030
1630067076632,2029
1630067076636,2030
1630067076640,2029
1630067076644,2029
1630067076648,2029
1630067076652,2029
1630067076656,2028
1630067076660,2027
1630067076664,2026
1630067076668,2026
1630067076672,2026
1630067076676,2027
1630067076680,2027
1630067076684,2026
1630067076688,2025
1630067076692,2024
1630067076696,2023
1630067076700,2022
1630067076704,2023
1630067076708,2024
1630067076712,2025
1630067076716,2025
1630067076720,2025
1630067076724,2024
1630067076728,2024
1630067076732,2023
1630067076736,2023
1630067076740,2023
1630067076744,2024
1630067076748,2023
1630067076752,2023
1630067076756,2022
1630067076760,2022
1630067076764,2022
1630067076768,2023
1630067076772,2023
1630067076776,2024
1630067076780,2025
1630067076784,2025
1630067076788,2025
1630067076792,2024
1630067076796,2024
1630067076800,2025
1630067076804,2025
1630067076808,2026
1630067076812,2026
1630067076816,2026
1630067076820,2026
1630067076824,2026
1630067076828,2026
1630067076832,2025
1630067076836,2026
1630067076840,2026
1630067076844,2027
1630067076848,2028
1630067076852,2029
1630067076856,2030
1630067076860,2030
1630067076864,2029
1630067076868,2029
1630067076872,2029
1630067076876,2030
1630067076880,2030
1630067076884,2031
1630067076888,2031
1630067076892,2031
1630067076896,2032
1630067076900,2031
1630067076904,2031
1630067076908,2032
1630067076912,2032
1630067076916,2033
1630067076920,2033
1630067076924,2034
1630067076928,2034
1630067076932,2034
1630067076936,2034
1630067076940,2034
1630067076944,2034
1630067076948,2034
1630067076952,2034
1630067076956,2034
1630067076960,2034
1630067076964,2033
1630067076968,2033
1630067076972,2034
1630067076976,2035
1630067076980,2036
1630067076984,2037
1630067076988,2039
1630067076992,2041
1630067076996,2044
1630067077000,2046
1630067077004,2048
1630067077008,2049
1630067077012,2049
1630067077016,2048
1630067077020,2048
1630067077024,2046
1630067077028,2045
1630067077032,2043
1630067077036,2042
1630067077040,2042
1630067077044,2041
1630067077048,2041
1630067077052,2040
1630067077056,2039
1630067077060,2038
1630067077064,2038
1630067077068,2038
