timestamp,ecg_waveform
1631106796169,2061
1631106796173,2062
1631106796177,2064
1631106796181,2065
1631106796185,2067
1631106796189,2068
1631106796193,2068
1631106796197,2068
1631106796201,2069
1631106796205,2070
1631106796209,2071
1631106796213,2071
1631106796217,2072
1631106796221,2072
1631106796225,2072
1631106796229,2072
1631106796233,2072
1631106796237,2072
1631106796241,2071
1631106796245,2070
1631106796249,2068
1631106796253,2067
1631106796257,2065
1631106796261,2063
1631106796265,2061
1631106796269,2059
1631106796273,2057
1631106796277,2055
1631106796281,2052
1631106796285,2050
1631106796289,2048
1631106796293,2047
1631106796297,2046
1631106796301,2046
1631106796305,2045
1631106796309,2045
1631106796313,2044
1631106796317,2043
1631106796321,2042
1631106796325,2041
1631106796329,2041
1631106796333,2040
1631106796337,2040
1631106796341,2041
1631106796345,2041
1631106796349,2041
1631106796353,2041
1631106796357,2042
1631106796361,2042
1631106796365,2042
1631106796369,2041
1631106796373,2041
1631106796377,2041
1631106796381,2041
1631106796385,2042
1631106796389,2042
1631106796393,2043
1631106796397,2043
1631106796401,2042
1631106796405,2042
1631106796409,2042
1631106796413,2042
1631106796417,2042
1631106796421,2042
1631106796425,2043
1631106796429,2044
1631106796433,2044
1631106796437,2044
1631106796441,2043
1631106796445,2043
1631106796449,2043
1631106796453,2043
1631106796457,2043
1631106796461,2043
1631106796465,2043
1631106796469,2044
1631106796473,2044
1631106796477,2044
1631106796481,2044
1631106796485,2043
1631106796489,2042
1631106796493,2042
1631106796497,2042
1631106796501,2042
1631106796505,2043
1631106796509,2044
1631106796513,2043
1631106796517,2043
1631106796521,2043
1631106796525,2043
1631106796529,2043
1631106796533,2044
1631106796537,2043
1631106796541,2043
1631106796545,2043
1631106796549,2043
1631106796553,2043
1631106796557,2044
1631106796561,2044
1631106796565,2043
1631106796569,2043
1631106796573,2043
1631106796577,2043
1631106796581,2044
1631106796585,2044
1631106796589,2045
1631106796593,2044
1631106796597,2044
1631106796601,2043
1631106796605,2043
1631106796609,2042
1631106796613,2042
1631106796617,2043
1631106796621,2043
1631106796625,2044
1631106796629,2044
1631106796633,2045
1631106796637,2045
1631106796641,2044
1631106796645,2044
1631106796649,2043
1631106796653,2043
1631106796657,2043
1631106796661,2044
1631106796665,2045
1631106796669,2045
1631106796673,2045
1631106796677,2044
1631106796681,2044
1631106796685,2043
1631106796689,2043
1631106796693,2043
1631106796697,2043
1631106796701,2043
1631106796705,2044
1631106796709,2045
1631106796713,2046
1631106796717,2046
1631106796721,2047
1631106796725,2047
1631106796729,2048
1631106796733,2048
1631106796737,2048
1631106796741,2049
1631106796745,2049
1631106796749,2048
1631106796753,2048
1631106796757,2048
1631106796761,2048
1631106796765,2047
1631106796769,2046
1631106796773,2045
1631106796777,2044
1631106796781,2044
1631106796785,2044
1631106796789,2044
1631106796793,2044
1631106796797,2044
1631106796801,2044
1631106796805,2044
1631106796809,2044
1631106796813,2044
1631106796817,2044
1631106796821,2044
1631106796825,2043
1631106796829,2042
1631106796833,2041
1631106796837,2040
1631106796841,2043
1631106796845,2048
1631106796849,2060
1631106796853,2078
1631106796857,2101
1631106796861,2126
1631106796865,2143
1631106796869,2146
1631106796873,2130
1631106796877,2100
1631106796881,2064
1631106796885,2035
1631106796889,2019
1631106796893,2016
1631106796897,2022
1631106796901,2030
1631106796905,2036
1631106796909,2039
1631106796913,2041
1631106796917,2043
1631106796921,2044
1631106796925,2045
1631106796929,2045
1631106796933,2046
1631106796937,2046
1631106796941,2047
1631106796945,2048
1631106796949,2048
1631106796953,2048
1631106796957,2049
1631106796961,2049
1631106796965,2049
1631106796969,2050
1631106796973,2050
1631106796977,2050
1631106796981,2050
1631106796985,2051
1631106796989,2051
1631106796993,2051
1631106796997,2052
1631106797001,2052
1631106797005,2052
1631106797009,2053
1631106797013,2053
1631106797017,2054
1631106797021,2055
1631106797025,2056
1631106797029,2057
1631106797033,2057
1631106797037,2058
1631106797041,2058
1631106797045,2059
1631106797049,2059
1631106797053,2060
1631106797057,2061
1631106797061,2062
1631106797065,2064
1631106797069,2066
1631106797073,2067
1631106797077,2069
1631106797081,2070
1631106797085,2070
1631106797089,2071
1631106797093,2071
1631106797097,2072
1631106797101,2073
1631106797105,2074
1631106797109,2074
1631106797113,2074
1631106797117,2074
1631106797121,2073
1631106797125,2072
1631106797129,2070
1631106797133,2069
1631106797137,2067
1631106797141,2065
1631106797145,2064
1631106797149,2062
1631106797153,2059
1631106797157,2057
1631106797161,2054
1631106797165,2052
1631106797169,2050
1631106797173,2048
1631106797177,2048
1631106797181,2047
1631106797185,2046
1631106797189,2045
1631106797193,2044
1631106797197,2043
1631106797201,2042
1631106797205,2041
1631106797209,2041
1631106797213,2040
1631106797217,2040
1631106797221,2041
1631106797225,2041
1631106797229,2041
1631106797233,2041
1631106797237,2041
1631106797241,2041
1631106797245,2040
1631106797249,2040
1631106797253,2041
1631106797257,2041
1631106797261,2042
1631106797265,2043
1631106797269,2043
1631106797273,2043
1631106797277,2043
1631106797281,2043
1631106797285,2042
1631106797289,2042
1631106797293,2042
1631106797297,2042
1631106797301,2043
1631106797305,2044
1631106797309,2044
1631106797313,2044
1631106797317,2044
1631106797321,2044
1631106797325,2044
1631106797329,2044
1631106797333,2044
1631106797337,2044
1631106797341,2044
1631106797345,2044
1631106797349,2044
1631106797353,2044
1631106797357,2044
1631106797361,2044
1631106797365,2044
1631106797369,2044
1631106797373,2043
1631106797377,2043
1631106797381,2043
1631106797385,2044
1631106797389,2044
1631106797393,2044
1631106797397,2044
1631106797401,2043
1631106797405,2043
1631106797409,2043
1631106797413,2043
1631106797417,2043
1631106797421,2044
1631106797425,2044
1631106797429,2045
1631106797433,2045
1631106797437,2045
1631106797441,2045
1631106797445,2044
1631106797449,2044
1631106797453,2044
1631106797457,2045
1631106797461,2046
1631106797465,2046
1631106797469,2046
1631106797473,2046
1631106797477,2046
1631106797481,2046
1631106797485,2046
1631106797489,2045
1631106797493,2045
1631106797497,2045
1631106797501,2045
1631106797505,2045
1631106797509,2046
1631106797513,2046
1631106797517,2046
1631106797521,2046
1631106797525,2046
1631106797529,2045
1631106797533,2045
1631106797537,2046
1631106797541,2046
1631106797545,2047
1631106797549,2047
1631106797553,2048
1631106797557,2048
1631106797561,2047
1631106797565,2047
1631106797569,2047
1631106797573,2047
1631106797577,2047
1631106797581,2047
1631106797585,2047
1631106797589,2047
1631106797593,2047
1631106797597,2047
1631106797601,2048
1631106797605,2048
1631106797609,2048
1631106797613,2048
1631106797617,2049
1631106797621,2051
1631106797625,2052
1631106797629,2052
1631106797633,2052
1631106797637,2051
1631106797641,2051
1631106797645,2050
1631106797649,2050
1631106797653,2049
1631106797657,2049
1631106797661,2048
1631106797665,2048
1631106797669,2048
1631106797673,2047
1631106797677,2047
1631106797681,2047
1631106797685,2047
1631106797689,2047
1631106797693,2047
1631106797697,2047
1631106797701,2048
1631106797705,2048
1631106797709,2048
1631106797713,2048
1631106797717,2046
1631106797721,2044
1631106797725,2042
1631106797729,2042
1631106797733,2045
1631106797737,2054
1631106797741,2069
1631106797745,2090
1631106797749,2116
1631106797753,2140
1631106797757,2154
1631106797761,2152
1631106797765,2131
1631106797769,2098
1631106797773,2063
1631106797777,2037
1631106797781,2024
1631106797785,2024
1631106797789,2031
1631106797793,2038
1631106797797,2042
1631106797801,2044
1631106797805,2045
1631106797809,2045
1631106797813,2045
1631106797817,2046
1631106797821,2046
1631106797825,2046
1631106797829,2047
1631106797833,2047
1631106797837,2048
1631106797841,2048
1631106797845,2047
1631106797849,2047
1631106797853,2048
1631106797857,2048
1631106797861,2048
1631106797865,2049
1631106797869,2050
1631106797873,2050
1631106797877,2050
1631106797881,2050
1631106797885,2050
1631106797889,2050
1631106797893,2050
1631106797897,2051
1631106797901,2052
1631106797905,2053
1631106797909,2053
1631106797913,2054
1631106797917,2054
1631106797921,2055
1631106797925,2055
1631106797929,2055
1631106797933,2056
1631106797937,2057
1631106797941,2059
1631106797945,2060
1631106797949,2062
1631106797953,2063
1631106797957,2064
1631106797961,2064
1631106797965,2065
1631106797969,2066
1631106797973,2067
1631106797977,2068
1631106797981,2070
1631106797985,2070
1631106797989,2071
1631106797993,2072
1631106797997,2072
1631106798001,2072
1631106798005,2072
1631106798009,2072
1631106798013,2072
1631106798017,2071
1631106798021,2070
1631106798025,2069
1631106798029,2067
1631106798033,2066
1631106798037,2063
1631106798041,2061
1631106798045,2059
1631106798049,2056
1631106798053,2054
1631106798057,2052
1631106798061,2050
1631106798065,2049
1631106798069,2048
1631106798073,2048
1631106798077,2047
1631106798081,2046
1631106798085,2044
1631106798089,2043
1631106798093,2043
1631106798097,2042
1631106798101,2043
1631106798105,2043
1631106798109,2043
1631106798113,2043
1631106798117,2043
1631106798121,2042
1631106798125,2042
1631106798129,2042
1631106798133,2042
1631106798137,2042
1631106798141,2043
1631106798145,2043
1631106798149,2043
1631106798153,2043
1631106798157,2043
1631106798161,2043
1631106798165,2043
1631106798169,2043
1631106798173,2043
1631106798177,2043
1631106798181,2043
1631106798185,2044
1631106798189,2044
1631106798193,2044
1631106798197,2044
1631106798201,2044
1631106798205,2043
1631106798209,2043
1631106798213,2044
1631106798217,2044
1631106798221,2044
1631106798225,2045
1631106798229,2045
1631106798233,2045
1631106798237,2045
1631106798241,2044
1631106798245,2044
1631106798249,2044
1631106798253,2044
1631106798257,2044
1631106798261,2044
1631106798265,2045
1631106798269,2045
1631106798273,2045
1631106798277,2045
1631106798281,2045
1631106798285,2044
1631106798289,2044
1631106798293,2044
1631106798297,2044
1631106798301,2045
1631106798305,2045
1631106798309,2045
1631106798313,2045
1631106798317,2045
1631106798321,2045
1631106798325,2044
1631106798329,2044
1631106798333,2043
1631106798337,2043
1631106798341,2044
1631106798345,2044
1631106798349,2045
1631106798353,2045
1631106798357,2045
1631106798361,2045
1631106798365,2044
1631106798369,2044
1631106798373,2044
1631106798377,2045
1631106798381,2045
1631106798385,2046
1631106798389,2046
1631106798393,2046
1631106798397,2046
1631106798401,2045
1631106798405,2045
1631106798409,2044
1631106798413,2044
1631106798417,2044
1631106798421,2045
1631106798425,2045
1631106798429,2046
1631106798433,2046
1631106798437,2046
1631106798441,2046
1631106798445,2045
1631106798449,2045
1631106798453,2045
1631106798457,2045
1631106798461,2046
1631106798465,2047
1631106798469,2047
1631106798473,2048
1631106798477,2048
1631106798481,2047
1631106798485,2047
1631106798489,2047
1631106798493,2046
1631106798497,2046
1631106798501,2047
1631106798505,2047
1631106798509,2048
1631106798513,2048
1631106798517,2047
1631106798521,2047
1631106798525,2046
1631106798529,2046
1631106798533,2046
1631106798537,2046
1631106798541,2047
1631106798545,2048
1631106798549,2048
1631106798553,2048
1631106798557,2049
1631106798561,2049
1631106798565,2050
1631106798569,2050
1631106798573,2051
1631106798577,2051
1631106798581,2051
1631106798585,2051
1631106798589,2051
1631106798593,2051
1631106798597,2050
1631106798601,2050
1631106798605,2048
1631106798609,2048
1631106798613,2047
1631106798617,2046
1631106798621,2046
1631106798625,2047
1631106798629,2047
1631106798633,2047
1631106798637,2047
1631106798641,2047
1631106798645,2046
1631106798649,2046
1631106798653,2046
1631106798657,2046
1631106798661,2046
1631106798665,2045
1631106798669,2043
1631106798673,2042
1631106798677,2043
1631106798681,2047
1631106798685,2055
1631106798689,2070
1631106798693,2091
1631106798697,2116
1631106798701,2138
1631106798705,2150
1631106798709,2146
1631106798713,2125
1631106798717,2092
1631106798721,2059
1631106798725,2035
1631106798729,2025
1631106798733,2025
1631106798737,2032
1631106798741,2039
1631106798745,2043
1631106798749,2046
1631106798753,2047
1631106798757,2047
1631106798761,2047
1631106798765,2047
1631106798769,2047
1631106798773,2047
1631106798777,2048
1631106798781,2048
1631106798785,2048
1631106798789,2049
1631106798793,2049
1631106798797,2050
1631106798801,2050
1631106798805,2050
1631106798809,2050
1631106798813,2050
1631106798817,2050
1631106798821,2051
1631106798825,2051
1631106798829,2052
1631106798833,2052
1631106798837,2052
1631106798841,2052
1631106798845,2052
1631106798849,2053
1631106798853,2053
1631106798857,2054
1631106798861,2055
1631106798865,2056
1631106798869,2056
1631106798873,2057
1631106798877,2058
1631106798881,2058
1631106798885,2059
1631106798889,2059
1631106798893,2060
1631106798897,2061
1631106798901,2062
1631106798905,2064
1631106798909,2065
1631106798913,2066
1631106798917,2067
1631106798921,2068
1631106798925,2068
1631106798929,2069
1631106798933,2070
1631106798937,2070
1631106798941,2071
1631106798945,2072
1631106798949,2072
1631106798953,2073
1631106798957,2073
1631106798961,2072
1631106798965,2071
1631106798969,2070
1631106798973,2068
1631106798977,2067
1631106798981,2066
1631106798985,2064
1631106798989,2063
1631106798993,2061
1631106798997,2059
1631106799001,2056
1631106799005,2054
1631106799009,2053
1631106799013,2051
1631106799017,2050
1631106799021,2049
1631106799025,2049
1631106799029,2048
1631106799033,2048
1631106799037,2047
1631106799041,2047
1631106799045,2046
1631106799049,2046
1631106799053,2045
1631106799057,2045
1631106799061,2045
1631106799065,2046
1631106799069,2046
1631106799073,2046
1631106799077,2046
1631106799081,2046
1631106799085,2046
1631106799089,2046
1631106799093,2046
1631106799097,2046
1631106799101,2046
1631106799105,2047
1631106799109,2047
1631106799113,2047
1631106799117,2047
1631106799121,2046
1631106799125,2046
1631106799129,2045
1631106799133,2046
1631106799137,2046
1631106799141,2046
1631106799145,2047
1631106799149,2047
1631106799153,2047
1631106799157,2047
1631106799161,2047
1631106799165,2047
1631106799169,2046
1631106799173,2046
1631106799177,2046
1631106799181,2047
1631106799185,2047
1631106799189,2047
1631106799193,2047
1631106799197,2047
1631106799201,2047
1631106799205,2046
1631106799209,2046
1631106799213,2046
1631106799217,2046
1631106799221,2046
1631106799225,2047
1631106799229,2047
1631106799233,2047
1631106799237,2047
1631106799241,2047
1631106799245,2046
1631106799249,2046
1631106799253,2046
1631106799257,2046
1631106799261,2046
1631106799265,2046
1631106799269,2047
1631106799273,2047
1631106799277,2047
1631106799281,2047
1631106799285,2046
1631106799289,2046
1631106799293,2046
1631106799297,2046
1631106799301,2047
1631106799305,2047
1631106799309,2048
1631106799313,2048
1631106799317,2048
1631106799321,2048
1631106799325,2048
1631106799329,2048
1631106799333,2048
1631106799337,2048
1631106799341,2048
1631106799345,2048
1631106799349,2048
1631106799353,2048
1631106799357,2048
1631106799361,2048
1631106799365,2048
1631106799369,2047
1631106799373,2047
1631106799377,2047
1631106799381,2048
1631106799385,2048
1631106799389,2048
1631106799393,2049
1631106799397,2049
1631106799401,2048
1631106799405,2048
1631106799409,2048
1631106799413,2048
1631106799417,2048
1631106799421,2048
1631106799425,2048
1631106799429,2048
1631106799433,2049
1631106799437,2049
1631106799441,2048
1631106799445,2048
1631106799449,2048
1631106799453,2048
1631106799457,2048
1631106799461,2048
1631106799465,2049
1631106799469,2049
1631106799473,2050
1631106799477,2050
1631106799481,2050
1631106799485,2049
1631106799489,2049
1631106799493,2049
1631106799497,2049
1631106799501,2049
1631106799505,2049
1631106799509,2050
1631106799513,2050
1631106799517,2050
1631106799521,2049
1631106799525,2049
1631106799529,2049
1631106799533,2049
1631106799537,2049
1631106799541,2049
1631106799545,2050
1631106799549,2050
1631106799553,2050
1631106799557,2050
1631106799561,2050
1631106799565,2049
1631106799569,2049
1631106799573,2049
1631106799577,2049
1631106799581,2049
1631106799585,2050
1631106799589,2050
1631106799593,2050
1631106799597,2050
1631106799601,2050
1631106799605,2051
1631106799609,2051
1631106799613,2052
1631106799617,2054
1631106799621,2055
1631106799625,2055
1631106799629,2055
1631106799633,2055
1631106799637,2054
1631106799641,2054
1631106799645,2053
1631106799649,2052
1631106799653,2051
1631106799657,2050
1631106799661,2049
1631106799665,2049
1631106799669,2049
1631106799673,2050
1631106799677,2049
1631106799681,2049
1631106799685,2049
1631106799689,2048
1631106799693,2048
1631106799697,2048
1631106799701,2048
1631106799705,2049
1631106799709,2049
1631106799713,2048
1631106799717,2048
1631106799721,2046
1631106799725,2044
1631106799729,2044
1631106799733,2047
1631106799737,2055
1631106799741,2070
1631106799745,2091
1631106799749,2116
1631106799753,2138
1631106799757,2151
1631106799761,2147
1631106799765,2126
1631106799769,2094
1631106799773,2060
1631106799777,2037
1631106799781,2026
1631106799785,2026
1631106799789,2033
1631106799793,2039
1631106799797,2043
1631106799801,2045
1631106799805,2046
1631106799809,2046
1631106799813,2047
1631106799817,2047
1631106799821,2048
1631106799825,2048
1631106799829,2048
1631106799833,2049
1631106799837,2049
1631106799841,2049
1631106799845,2049
1631106799849,2048
1631106799853,2049
1631106799857,2049
1631106799861,2049
1631106799865,2050
1631106799869,2051
1631106799873,2051
1631106799877,2052
1631106799881,2052
1631106799885,2052
1631106799889,2052
1631106799893,2052
1631106799897,2052
1631106799901,2053
1631106799905,2054
1631106799909,2055
1631106799913,2056
1631106799917,2056
1631106799921,2056
1631106799925,2056
1631106799929,2057
1631106799933,2058
1631106799937,2058
1631106799941,2060
1631106799945,2061
1631106799949,2062
1631106799953,2063
1631106799957,2063
1631106799961,2064
1631106799965,2065
1631106799969,2065
1631106799973,2066
1631106799977,2067
1631106799981,2068
1631106799985,2069
1631106799989,2070
1631106799993,2070
1631106799997,2071
1631106800001,2071
1631106800005,2071
1631106800009,2071
1631106800013,2071
1631106800017,2071
1631106800021,2070
1631106800025,2069
1631106800029,2068
1631106800033,2067
1631106800037,2065
1631106800041,2063
1631106800045,2061
1631106800049,2059
1631106800053,2057
1631106800057,2056
1631106800061,2054
1631106800065,2053
1631106800069,2052
1631106800073,2050
1631106800077,2049
1631106800081,2048
1631106800085,2047
1631106800089,2045
1631106800093,2044
1631106800097,2044
1631106800101,2044
1631106800105,2044
1631106800109,2044
1631106800113,2044
1631106800117,2043
1631106800121,2043
1631106800125,2043
1631106800129,2042
1631106800133,2043
1631106800137,2043
1631106800141,2044
1631106800145,2044
1631106800149,2044
1631106800153,2044
1631106800157,2044
1631106800161,2044
1631106800165,2044
1631106800169,2044
1631106800173,2044
1631106800177,2044
1631106800181,2044
1631106800185,2045
1631106800189,2046
1631106800193,2046
1631106800197,2046
1631106800201,2045
1631106800205,2045
1631106800209,2044
1631106800213,2045
1631106800217,2045
1631106800221,2045
1631106800225,2046
1631106800229,2046
1631106800233,2046
1631106800237,2046
1631106800241,2045
1631106800245,2044
1631106800249,2044
1631106800253,2044
1631106800257,2045
1631106800261,2045
1631106800265,2045
1631106800269,2046
1631106800273,2046
1631106800277,2046
1631106800281,2046
1631106800285,2045
1631106800289,2045
1631106800293,2045
1631106800297,2045
1631106800301,2045
1631106800305,2046
1631106800309,2046
1631106800313,2047
1631106800317,2047
1631106800321,2047
1631106800325,2046
1631106800329,2046
1631106800333,2046
1631106800337,2046
1631106800341,2046
1631106800345,2046
1631106800349,2047
1631106800353,2047
1631106800357,2047
1631106800361,2046
1631106800365,2046
1631106800369,2046
1631106800373,2046
1631106800377,2046
1631106800381,2047
1631106800385,2047
1631106800389,2048
1631106800393,2047
1631106800397,2047
1631106800401,2047
1631106800405,2046
1631106800409,2046
1631106800413,2046
1631106800417,2047
1631106800421,2047
1631106800425,2048
1631106800429,2048
1631106800433,2048
1631106800437,2048
1631106800441,2048
1631106800445,2048
1631106800449,2048
1631106800453,2048
1631106800457,2048
1631106800461,2048
1631106800465,2048
1631106800469,2049
1631106800473,2049
1631106800477,2049
1631106800481,2048
1631106800485,2048
1631106800489,2048
1631106800493,2048
1631106800497,2048
1631106800501,2048
1631106800505,2048
1631106800509,2049
1631106800513,2049
1631106800517,2049
1631106800521,2048
1631106800525,2048
1631106800529,2048
1631106800533,2048
1631106800537,2048
1631106800541,2048
1631106800545,2048
1631106800549,2049
1631106800553,2049
1631106800557,2049
1631106800561,2049
1631106800565,2049
1631106800569,2049
1631106800573,2049
1631106800577,2049
1631106800581,2050
1631106800585,2050
1631106800589,2050
1631106800593,2051
1631106800597,2050
1631106800601,2050
1631106800605,2050
1631106800609,2050
1631106800613,2050
1631106800617,2050
1631106800621,2050
1631106800625,2051
1631106800629,2051
1631106800633,2051
1631106800637,2051
1631106800641,2050
1631106800645,2050
1631106800649,2050
1631106800653,2050
1631106800657,2050
1631106800661,2050
1631106800665,2050
1631106800669,2050
1631106800673,2051
1631106800677,2051
1631106800681,2051
1631106800685,2051
1631106800689,2052
1631106800693,2053
1631106800697,2054
1631106800701,2055
1631106800705,2056
1631106800709,2056
1631106800713,2056
1631106800717,2056
1631106800721,2055
1631106800725,2055
1631106800729,2055
1631106800733,2054
1631106800737,2053
1631106800741,2052
1631106800745,2051
1631106800749,2051
1631106800753,2051
1631106800757,2051
1631106800761,2050
1631106800765,2050
1631106800769,2050
1631106800773,2049
1631106800777,2049
1631106800781,2050
1631106800785,2051
1631106800789,2051
1631106800793,2051
1631106800797,2050
1631106800801,2048
1631106800805,2047
1631106800809,2045
1631106800813,2046
1631106800817,2049
1631106800821,2058
1631106800825,2073
1631106800829,2095
1631106800833,2119
1631106800837,2141
1631106800841,2152
1631106800845,2147
1631106800849,2125
1631106800853,2092
1631106800857,2059
1631106800861,2036
1631106800865,2026
1631106800869,2027
1631106800873,2034
1631106800877,2041
1631106800881,2044
1631106800885,2045
1631106800889,2046
1631106800893,2047
1631106800897,2048
1631106800901,2048
1631106800905,2049
1631106800909,2049
1631106800913,2049
1631106800917,2049
1631106800921,2049
1631106800925,2049
1631106800929,2050
1631106800933,2050
1631106800937,2050
1631106800941,2051
1631106800945,2052
1631106800949,2052
1631106800953,2053
1631106800957,2053
1631106800961,2054
1631106800965,2053
1631106800969,2053
1631106800973,2053
1631106800977,2054
1631106800981,2055
1631106800985,2056
1631106800989,2057
1631106800993,2058
1631106800997,2058
1631106801001,2058
1631106801005,2058
1631106801009,2058
1631106801013,2059
1631106801017,2059
1631106801021,2060
1631106801025,2061
1631106801029,2062
1631106801033,2063
1631106801037,2064
1631106801041,2065
1631106801045,2065
1631106801049,2066
1631106801053,2067
1631106801057,2068
1631106801061,2069
1631106801065,2070
1631106801069,2071
1631106801073,2072
1631106801077,2072
1631106801081,2072
1631106801085,2072
1631106801089,2072
1631106801093,2072
1631106801097,2071
1631106801101,2071
1631106801105,2071
1631106801109,2071
1631106801113,2070
1631106801117,2068
1631106801121,2065
1631106801125,2063
1631106801129,2061
1631106801133,2059
1631106801137,2057
1631106801141,2056
1631106801145,2055
1631106801149,2054
1631106801153,2053
1631106801157,2051
1631106801161,2049
1631106801165,2048
1631106801169,2047
1631106801173,2046
1631106801177,2045
1631106801181,2045
1631106801185,2045
1631106801189,2045
1631106801193,2045
1631106801197,2045
1631106801201,2044
1631106801205,2044
1631106801209,2043
1631106801213,2043
1631106801217,2043
1631106801221,2044
1631106801225,2044
1631106801229,2044
1631106801233,2044
1631106801237,2045
1631106801241,2045
1631106801245,2045
1631106801249,2044
1631106801253,2044
1631106801257,2043
1631106801261,2043
1631106801265,2044
1631106801269,2045
1631106801273,2046
1631106801277,2046
1631106801281,2046
1631106801285,2046
1631106801289,2046
1631106801293,2046
1631106801297,2046
1631106801301,2046
1631106801305,2047
1631106801309,2047
1631106801313,2047
1631106801317,2047
1631106801321,2046
1631106801325,2046
1631106801329,2046
1631106801333,2046
1631106801337,2046
1631106801341,2046
1631106801345,2046
1631106801349,2046
1631106801353,2045
1631106801357,2045
1631106801361,2045
1631106801365,2044
1631106801369,2044
1631106801373,2045
1631106801377,2045
1631106801381,2045
1631106801385,2045
1631106801389,2046
1631106801393,2046
1631106801397,2046
1631106801401,2045
1631106801405,2045
1631106801409,2044
1631106801413,2044
1631106801417,2044
1631106801421,2045
1631106801425,2045
1631106801429,2045
1631106801433,2044
1631106801437,2044
1631106801441,2044
1631106801445,2044
1631106801449,2044
1631106801453,2044
1631106801457,2044
1631106801461,2045
1631106801465,2045
1631106801469,2045
1631106801473,2045
1631106801477,2045
1631106801481,2045
1631106801485,2045
1631106801489,2045
1631106801493,2045
1631106801497,2045
1631106801501,2045
1631106801505,2045
1631106801509,2046
1631106801513,2046
1631106801517,2046
1631106801521,2046
1631106801525,2046
1631106801529,2046
1631106801533,2046
1631106801537,2046
1631106801541,2046
1631106801545,2046
1631106801549,2046
1631106801553,2046
1631106801557,2046
1631106801561,2046
1631106801565,2046
1631106801569,2046
1631106801573,2046
1631106801577,2046
1631106801581,2046
1631106801585,2047
1631106801589,2047
1631106801593,2048
1631106801597,2048
1631106801601,2047
1631106801605,2046
1631106801609,2046
1631106801613,2046
1631106801617,2046
1631106801621,2047
1631106801625,2048
1631106801629,2048
1631106801633,2048
1631106801637,2047
1631106801641,2047
1631106801645,2047
1631106801649,2047
1631106801653,2047
1631106801657,2047
1631106801661,2047
1631106801665,2047
1631106801669,2047
1631106801673,2048
1631106801677,2048
1631106801681,2048
1631106801685,2048
1631106801689,2048
1631106801693,2048
1631106801697,2048
1631106801701,2048
1631106801705,2048
1631106801709,2048
1631106801713,2048
1631106801717,2048
1631106801721,2048
1631106801725,2049
1631106801729,2049
1631106801733,2050
1631106801737,2051
1631106801741,2052
1631106801745,2053
1631106801749,2053
1631106801753,2053
1631106801757,2052
1631106801761,2052
1631106801765,2051
1631106801769,2050
1631106801773,2050
1631106801777,2049
1631106801781,2048
1631106801785,2048
1631106801789,2048
1631106801793,2048
1631106801797,2048
1631106801801,2048
1631106801805,2047
1631106801809,2047
1631106801813,2047
1631106801817,2047
1631106801821,2048
1631106801825,2048
1631106801829,2048
1631106801833,2048
1631106801837,2047
1631106801841,2045
1631106801845,2044
1631106801849,2044
1631106801853,2047
1631106801857,2055
1631106801861,2069
1631106801865,2089
1631106801869,2113
1631106801873,2136
1631106801877,2149
1631106801881,2146
1631106801885,2125
1631106801889,2092
1631106801893,2057
1631106801897,2033
1631106801901,2022
1631106801905,2022
1631106801909,2029
1631106801913,2036
1631106801917,2040
1631106801921,2042
1631106801925,2044
1631106801929,2045
1631106801933,2046
1631106801937,2047
1631106801941,2048
1631106801945,2049
1631106801949,2050
1631106801953,2050
1631106801957,2050
1631106801961,2050
1631106801965,2049
1631106801969,2049
1631106801973,2049
1631106801977,2050
1631106801981,2051
1631106801985,2052
1631106801989,2052
1631106801993,2052
1631106801997,2052
1631106802001,2052
1631106802005,2053
1631106802009,2053
1631106802013,2054
1631106802017,2055
1631106802021,2055
1631106802025,2055
1631106802029,2056
1631106802033,2056
1631106802037,2057
1631106802041,2057
1631106802045,2057
1631106802049,2058
1631106802053,2058
1631106802057,2059
1631106802061,2060
1631106802065,2061
1631106802069,2063
1631106802073,2064
1631106802077,2065
1631106802081,2066
1631106802085,2066
1631106802089,2066
1631106802093,2066
1631106802097,2067
1631106802101,2068
1631106802105,2070
1631106802109,2071
1631106802113,2072
1631106802117,2072
1631106802121,2072
1631106802125,2072
1631106802129,2071
1631106802133,2071
1631106802137,2070
1631106802141,2069
1631106802145,2068
1631106802149,2067
1631106802153,2066
1631106802157,2064
1631106802161,2062
1631106802165,2060
1631106802169,2058
1631106802173,2055
1631106802177,2053
1631106802181,2051
1631106802185,2049
1631106802189,2048
1631106802193,2048
1631106802197,2047
1631106802201,2046
1631106802205,2044
1631106802209,2043
1631106802213,2042
1631106802217,2041
1631106802221,2041
1631106802225,2041
1631106802229,2041
1631106802233,2041
1631106802237,2041
1631106802241,2041
1631106802245,2040
1631106802249,2040
1631106802253,2040
1631106802257,2041
1631106802261,2041
1631106802265,2042
1631106802269,2042
1631106802273,2042
1631106802277,2042
1631106802281,2042
1631106802285,2042
1631106802289,2042
1631106802293,2042
1631106802297,2042
1631106802301,2042
1631106802305,2042
1631106802309,2043
1631106802313,2043
1631106802317,2044
1631106802321,2044
1631106802325,2043
1631106802329,2043
1631106802333,2043
1631106802337,2043
1631106802341,2043
1631106802345,2044
1631106802349,2044
1631106802353,2044
1631106802357,2044
1631106802361,2043
1631106802365,2043
1631106802369,2043
1631106802373,2042
1631106802377,2043
1631106802381,2043
1631106802385,2043
1631106802389,2043
1631106802393,2044
1631106802397,2044
1631106802401,2043
1631106802405,2043
1631106802409,2042
1631106802413,2042
1631106802417,2042
1631106802421,2042
1631106802425,2043
1631106802429,2043
1631106802433,2044
1631106802437,2044
1631106802441,2043
1631106802445,2043
1631106802449,2042
1631106802453,2043
1631106802457,2043
1631106802461,2044
1631106802465,2044
1631106802469,2044
1631106802473,2044
1631106802477,2043
1631106802481,2043
1631106802485,2043
1631106802489,2043
1631106802493,2043
1631106802497,2043
1631106802501,2044
1631106802505,2044
1631106802509,2044
1631106802513,2045
1631106802517,2045
1631106802521,2045
1631106802525,2044
1631106802529,2043
1631106802533,2043
1631106802537,2044
1631106802541,2044
1631106802545,2045
1631106802549,2046
1631106802553,2046
1631106802557,2045
1631106802561,2045
1631106802565,2044
1631106802569,2044
1631106802573,2044
1631106802577,2045
1631106802581,2046
1631106802585,2046
1631106802589,2047
1631106802593,2047
1631106802597,2047
1631106802601,2046
1631106802605,2046
1631106802609,2046
1631106802613,2046
1631106802617,2046
1631106802621,2046
1631106802625,2046
1631106802629,2047
1631106802633,2047
1631106802637,2047
1631106802641,2046
1631106802645,2046
1631106802649,2046
1631106802653,2046
1631106802657,2046
1631106802661,2046
1631106802665,2047
1631106802669,2047
1631106802673,2047
1631106802677,2047
1631106802681,2047
1631106802685,2047
1631106802689,2048
1631106802693,2048
1631106802697,2049
1631106802701,2051
1631106802705,2052
1631106802709,2052
1631106802713,2052
1631106802717,2051
1631106802721,2050
1631106802725,2049
1631106802729,2049
1631106802733,2049
1631106802737,2049
1631106802741,2048
1631106802745,2048
1631106802749,2047
1631106802753,2046
1631106802757,2046
1631106802761,2046
1631106802765,2046
1631106802769,2046
1631106802773,2046
1631106802777,2047
1631106802781,2047
1631106802785,2047
1631106802789,2047
1631106802793,2047
1631106802797,2046
1631106802801,2044
1631106802805,2042
1631106802809,2041
1631106802813,2042
1631106802817,2048
1631106802821,2059
1631106802825,2076
1631106802829,2100
1631106802833,2125
1631106802837,2146
1631106802841,2152
1631106802845,2141
1631106802849,2113
1631106802853,2077
1631106802857,2045
1631106802861,2026
1631106802865,2021
1631106802869,2025
1631106802873,2033
1631106802877,2039
1631106802881,2041
1631106802885,2043
1631106802889,2044
1631106802893,2045
1631106802897,2046
1631106802901,2047
1631106802905,2048
1631106802909,2048
1631106802913,2048
1631106802917,2048
1631106802921,2048
1631106802925,2048
1631106802929,2049
1631106802933,2049
1631106802937,2050
1631106802941,2050
1631106802945,2051
1631106802949,2052
1631106802953,2052
1631106802957,2053
1631106802961,2053
1631106802965,2053
1631106802969,2052
1631106802973,2053
1631106802977,2053
1631106802981,2055
1631106802985,2056
1631106802989,2057
1631106802993,2057
1631106802997,2057
1631106803001,2058
1631106803005,2058
1631106803009,2059
1631106803013,2059
1631106803017,2060
1631106803021,2061
1631106803025,2062
1631106803029,2063
1631106803033,2064
1631106803037,2065
1631106803041,2066
1631106803045,2067
1631106803049,2068
1631106803053,2069
1631106803057,2070
1631106803061,2071
1631106803065,2072
1631106803069,2073
1631106803073,2074
1631106803077,2074
1631106803081,2074
1631106803085,2074
1631106803089,2073
1631106803093,2072
1631106803097,2072
1631106803101,2072
1631106803105,2071
1631106803109,2071
1631106803113,2069
1631106803117,2067
1631106803121,2064
1631106803125,2062
1631106803129,2060
1631106803133,2058
1631106803137,2056
1631106803141,2055
1631106803145,2054
1631106803149,2052
1631106803153,2051
1631106803157,2050
1631106803161,2048
1631106803165,2047
1631106803169,2046
1631106803173,2045
1631106803177,2045
1631106803181,2045
1631106803185,2045
1631106803189,2045
1631106803193,2045
1631106803197,2045
1631106803201,2045
1631106803205,2044
1631106803209,2044
1631106803213,2044
1631106803217,2045
1631106803221,2045
1631106803225,2046
1631106803229,2046
1631106803233,2046
1631106803237,2046
1631106803241,2046
1631106803245,2046
1631106803249,2045
1631106803253,2046
1631106803257,2046
1631106803261,2047
1631106803265,2047
1631106803269,2048
1631106803273,2048
1631106803277,2048
1631106803281,2047
1631106803285,2047
1631106803289,2047
1631106803293,2047
1631106803297,2047
1631106803301,2047
1631106803305,2048
1631106803309,2048
1631106803313,2048
1631106803317,2048
1631106803321,2048
1631106803325,2047
1631106803329,2047
1631106803333,2047
1631106803337,2047
1631106803341,2047
1631106803345,2047
1631106803349,2048
1631106803353,2048
1631106803357,2048
1631106803361,2047
1631106803365,2047
1631106803369,2046
1631106803373,2046
1631106803377,2046
1631106803381,2046
1631106803385,2047
1631106803389,2047
1631106803393,2047
1631106803397,2047
1631106803401,2047
1631106803405,2047
1631106803409,2047
1631106803413,2047
1631106803417,2047
1631106803421,2048
1631106803425,2048
1631106803429,2048
1631106803433,2048
1631106803437,2048
1631106803441,2048
1631106803445,2047
1631106803449,2047
1631106803453,2047
1631106803457,2047
1631106803461,2048
1631106803465,2048
1631106803469,2048
1631106803473,2048
1631106803477,2048
1631106803481,2048
1631106803485,2048
1631106803489,2048
1631106803493,2048
1631106803497,2047
1631106803501,2048
1631106803505,2048
1631106803509,2048
1631106803513,2048
1631106803517,2048
1631106803521,2048
1631106803525,2048
1631106803529,2048
1631106803533,2048
1631106803537,2049
1631106803541,2049
1631106803545,2049
1631106803549,2050
1631106803553,2050
1631106803557,2050
1631106803561,2050
1631106803565,2049
1631106803569,2049
1631106803573,2050
1631106803577,2050
1631106803581,2050
1631106803585,2051
1631106803589,2051
1631106803593,2051
1631106803597,2051
1631106803601,2051
1631106803605,2050
1631106803609,2050
1631106803613,2050
1631106803617,2050
1631106803621,2051
1631106803625,2051
1631106803629,2052
1631106803633,2052
1631106803637,2052
1631106803641,2052
1631106803645,2051
1631106803649,2051
1631106803653,2051
1631106803657,2050
1631106803661,2051
1631106803665,2051
1631106803669,2052
1631106803673,2053
1631106803677,2054
1631106803681,2055
1631106803685,2056
1631106803689,2056
1631106803693,2057
1631106803697,2056
1631106803701,2056
1631106803705,2056
1631106803709,2056
1631106803713,2056
1631106803717,2056
1631106803721,2055
1631106803725,2053
1631106803729,2052
1631106803733,2051
1631106803737,2051
1631106803741,2051
1631106803745,2052
1631106803749,2052
1631106803753,2052
1631106803757,2052
1631106803761,2052
1631106803765,2051
1631106803769,2051
1631106803773,2051
1631106803777,2051
1631106803781,2050
1631106803785,2048
1631106803789,2048
1631106803793,2048
1631106803797,2050
1631106803801,2059
1631106803805,2073
1631106803809,2094
1631106803813,2119
1631106803817,2144
1631106803821,2160
1631106803825,2159
1631106803829,2140
1631106803833,2107
1631106803837,2072
1631106803841,2045
1631106803845,2031
1631106803849,2030
1631106803853,2036
1631106803857,2043
1631106803861,2048
1631106803865,2049
1631106803869,2051
1631106803873,2051
1631106803877,2051
1631106803881,2051
1631106803885,2051
1631106803889,2051
1631106803893,2051
1631106803897,2052
1631106803901,2052
1631106803905,2053
1631106803909,2054
1631106803913,2055
1631106803917,2055
1631106803921,2055
1631106803925,2055
1631106803929,2055
1631106803933,2055
1631106803937,2056
1631106803941,2056
1631106803945,2057
1631106803949,2058
1631106803953,2058
1631106803957,2058
1631106803961,2058
1631106803965,2058
1631106803969,2059
1631106803973,2059
1631106803977,2060
1631106803981,2061
1631106803985,2062
1631106803989,2063
1631106803993,2064
1631106803997,2064
1631106804001,2065
1631106804005,2065
1631106804009,2066
1631106804013,2066
1631106804017,2067
1631106804021,2069
1631106804025,2070
1631106804029,2071
1631106804033,2073
1631106804037,2073
1631106804041,2074
1631106804045,2075
1631106804049,2075
1631106804053,2076
1631106804057,2077
1631106804061,2078
1631106804065,2078
1631106804069,2079
1631106804073,2079
1631106804077,2078
1631106804081,2078
1631106804085,2077
1631106804089,2075
1631106804093,2074
1631106804097,2073
1631106804101,2071
1631106804105,2070
1631106804109,2068
1631106804113,2066
1631106804117,2064
1631106804121,2062
1631106804125,2060
1631106804129,2058
1631106804133,2056
1631106804137,2055
1631106804141,2054
1631106804145,2054
1631106804149,2053
1631106804153,2052
1631106804157,2051
1631106804161,2050
1631106804165,2049
1631106804169,2049
1631106804173,2049
1631106804177,2049
1631106804181,2049
1631106804185,2050
1631106804189,2050
1631106804193,2050
1631106804197,2049
1631106804201,2049
1631106804205,2049
1631106804209,2048
1631106804213,2048
1631106804217,2049
1631106804221,2049
1631106804225,2050
1631106804229,2051
1631106804233,2051
1631106804237,2051
1631106804241,2050
1631106804245,2050
1631106804249,2050
1631106804253,2050
1631106804257,2050
1631106804261,2050
1631106804265,2051
1631106804269,2051
1631106804273,2051
1631106804277,2051
1631106804281,2051
1631106804285,2050
1631106804289,2049
1631106804293,2049
1631106804297,2049
1631106804301,2049
1631106804305,2049
1631106804309,2049
1631106804313,2049
1631106804317,2049
1631106804321,2049
1631106804325,2049
1631106804329,2049
1631106804333,2048
1631106804337,2048
1631106804341,2049
1631106804345,2049
1631106804349,2049
1631106804353,2049
1631106804357,2049
1631106804361,2049
1631106804365,2048
1631106804369,2048
1631106804373,2048
1631106804377,2048
1631106804381,2049
1631106804385,2049
1631106804389,2049
1631106804393,2049
1631106804397,2049
1631106804401,2048
1631106804405,2048
1631106804409,2048
1631106804413,2048
1631106804417,2048
1631106804421,2048
1631106804425,2049
1631106804429,2049
1631106804433,2049
1631106804437,2049
1631106804441,2049
1631106804445,2048
1631106804449,2048
1631106804453,2048
1631106804457,2048
1631106804461,2049
1631106804465,2049
1631106804469,2049
1631106804473,2049
1631106804477,2049
1631106804481,2049
1631106804485,2049
1631106804489,2048
1631106804493,2048
1631106804497,2048
1631106804501,2049
1631106804505,2049
1631106804509,2050
1631106804513,2050
1631106804517,2050
1631106804521,2050
1631106804525,2049
1631106804529,2048
1631106804533,2048
1631106804537,2049
1631106804541,2050
1631106804545,2050
1631106804549,2050
1631106804553,2051
1631106804557,2050
1631106804561,2050
1631106804565,2050
1631106804569,2049
1631106804573,2049
1631106804577,2049
1631106804581,2050
1631106804585,2050
1631106804589,2051
1631106804593,2051
1631106804597,2051
1631106804601,2050
1631106804605,2050
1631106804609,2050
1631106804613,2049
1631106804617,2050
1631106804621,2050
1631106804625,2050
1631106804629,2051
1631106804633,2051
1631106804637,2051
1631106804641,2050
1631106804645,2050
1631106804649,2050
1631106804653,2050
1631106804657,2050
1631106804661,2050
1631106804665,2051
1631106804669,2051
1631106804673,2051
1631106804677,2051
1631106804681,2051
1631106804685,2051
1631106804689,2052
1631106804693,2052
1631106804697,2053
1631106804701,2055
1631106804705,2056
1631106804709,2057
1631106804713,2057
1631106804717,2056
1631106804721,2055
1631106804725,2054
1631106804729,2054
1631106804733,2053
1631106804737,2052
1631106804741,2052
1631106804745,2051
1631106804749,2050
1631106804753,2050
1631106804757,2050
1631106804761,2050
1631106804765,2049
1631106804769,2049
1631106804773,2049
1631106804777,2050
1631106804781,2050
1631106804785,2051
1631106804789,2051
1631106804793,2051
1631106804797,2050
1631106804801,2048
1631106804805,2047
1631106804809,2045
1631106804813,2045
1631106804817,2048
1631106804821,2057
1631106804825,2071
1631106804829,2093
1631106804833,2118
1631106804837,2141
1631106804841,2154
1631106804845,2151
1631106804849,2130
1631106804853,2097
1631106804857,2062
1631106804861,2038
1631106804865,2027
1631106804869,2028
1631106804873,2035
1631106804877,2042
1631106804881,2045
1631106804885,2047
1631106804889,2047
1631106804893,2048
1631106804897,2048
1631106804901,2048
1631106804905,2049
1631106804909,2049
1631106804913,2050
1631106804917,2050
1631106804921,2049
1631106804925,2049
1631106804929,2049
1631106804933,2049
1631106804937,2050
1631106804941,2050
1631106804945,2051
1631106804949,2052
1631106804953,2052
1631106804957,2053
1631106804961,2052
1631106804965,2052
1631106804969,2052
1631106804973,2053
1631106804977,2053
1631106804981,2054
1631106804985,2055
1631106804989,2056
1631106804993,2057
1631106804997,2057
1631106805001,2057
1631106805005,2058
1631106805009,2058
1631106805013,2059
1631106805017,2060
1631106805021,2061
1631106805025,2062
1631106805029,2063
1631106805033,2064
1631106805037,2064
1631106805041,2065
1631106805045,2066
1631106805049,2066
1631106805053,2067
1631106805057,2068
1631106805061,2070
1631106805065,2071
1631106805069,2072
1631106805073,2073
1631106805077,2073
1631106805081,2073
1631106805085,2073
1631106805089,2072
1631106805093,2072
1631106805097,2073
1631106805101,2073
1631106805105,2073
1631106805109,2072
1631106805113,2071
1631106805117,2069
1631106805121,2066
1631106805125,2064
1631106805129,2062
1631106805133,2060
1631106805137,2059
1631106805141,2058
1631106805145,2057
1631106805149,2055
1631106805153,2054
1631106805157,2052
1631106805161,2050
1631106805165,2049
1631106805169,2048
1631106805173,2047
1631106805177,2047
1631106805181,2047
1631106805185,2047
1631106805189,2047
1631106805193,2047
1631106805197,2047
1631106805201,2046
1631106805205,2046
1631106805209,2045
1631106805213,2045
1631106805217,2046
1631106805221,2046
1631106805225,2047
1631106805229,2047
1631106805233,2047
1631106805237,2047
1631106805241,2047
1631106805245,2046
1631106805249,2046
1631106805253,2046
1631106805257,2047
1631106805261,2047
1631106805265,2047
1631106805269,2048
1631106805273,2048
1631106805277,2048
1631106805281,2048
1631106805285,2047
1631106805289,2047
1631106805293,2047
1631106805297,2047
1631106805301,2048
1631106805305,2048
1631106805309,2048
1631106805313,2048
1631106805317,2048
1631106805321,2048
1631106805325,2047
1631106805329,2046
1631106805333,2046
1631106805337,2047
1631106805341,2047
1631106805345,2048
1631106805349,2048
1631106805353,2048
1631106805357,2048
1631106805361,2047
1631106805365,2047
1631106805369,2047
1631106805373,2047
1631106805377,2047
1631106805381,2047
1631106805385,2048
1631106805389,2048
1631106805393,2048
1631106805397,2048
1631106805401,2048
1631106805405,2048
1631106805409,2047
1631106805413,2047
1631106805417,2047
1631106805421,2047
1631106805425,2048
1631106805429,2048
1631106805433,2048
1631106805437,2048
1631106805441,2047
1631106805445,2047
1631106805449,2047
1631106805453,2047
1631106805457,2048
1631106805461,2048
1631106805465,2048
1631106805469,2048
1631106805473,2048
1631106805477,2048
1631106805481,2048
1631106805485,2048
1631106805489,2048
1631106805493,2048
1631106805497,2048
1631106805501,2048
1631106805505,2048
1631106805509,2049
1631106805513,2049
1631106805517,2049
1631106805521,2048
1631106805525,2048
1631106805529,2048
1631106805533,2048
1631106805537,2048
1631106805541,2049
1631106805545,2049
1631106805549,2049
1631106805553,2049
1631106805557,2049
1631106805561,2049
1631106805565,2048
1631106805569,2048
1631106805573,2048
1631106805577,2048
1631106805581,2049
1631106805585,2049
1631106805589,2049
1631106805593,2050
1631106805597,2049
1631106805601,2049
1631106805605,2049
1631106805609,2049
1631106805613,2049
1631106805617,2049
1631106805621,2049
1631106805625,2050
1631106805629,2050
1631106805633,2050
1631106805637,2050
1631106805641,2050
1631106805645,2050
1631106805649,2049
1631106805653,2049
1631106805657,2049
1631106805661,2049
1631106805665,2050
1631106805669,2050
1631106805673,2050
1631106805677,2050
1631106805681,2050
1631106805685,2049
1631106805689,2049
1631106805693,2049
1631106805697,2049
1631106805701,2050
1631106805705,2050
1631106805709,2050
1631106805713,2051
1631106805717,2051
1631106805721,2052
1631106805725,2052
1631106805729,2053
1631106805733,2054
1631106805737,2055
1631106805741,2055
1631106805745,2055
1631106805749,2055
1631106805753,2055
1631106805757,2055
1631106805761,2054
1631106805765,2053
1631106805769,2052
1631106805773,2051
1631106805777,2050
1631106805781,2050
1631106805785,2050
1631106805789,2050
1631106805793,2050
1631106805797,2050
1631106805801,2050
1631106805805,2050
1631106805809,2049
1631106805813,2050
1631106805817,2050
1631106805821,2050
1631106805825,2050
1631106805829,2050
1631106805833,2048
1631106805837,2047
1631106805841,2046
1631106805845,2047
1631106805849,2052
1631106805853,2063
1631106805857,2080
1631106805861,2104
1631106805865,2129
1631106805869,2149
1631106805873,2155
1631106805877,2142
1631106805881,2115
1631106805885,2079
1631106805889,2048
1631106805893,2031
1631106805897,2026
1631106805901,2030
1631106805905,2037
1631106805909,2043
1631106805913,2046
1631106805917,2048
1631106805921,2048
1631106805925,2048
1631106805929,2049
1631106805933,2049
1631106805937,2049
1631106805941,2050
1631106805945,2051
1631106805949,2051
1631106805953,2052
1631106805957,2052
1631106805961,2052
1631106805965,2052
1631106805969,2052
1631106805973,2052
1631106805977,2053
1631106805981,2053
1631106805985,2054
1631106805989,2055
1631106805993,2055
1631106805997,2055
1631106806001,2055
1631106806005,2055
1631106806009,2055
1631106806013,2056
1631106806017,2057
1631106806021,2057
1631106806025,2058
1631106806029,2059
1631106806033,2059
1631106806037,2060
1631106806041,2060
1631106806045,2061
1631106806049,2061
1631106806053,2062
1631106806057,2063
1631106806061,2064
1631106806065,2066
1631106806069,2067
1631106806073,2068
1631106806077,2069
1631106806081,2069
1631106806085,2070
1631106806089,2071
1631106806093,2071
1631106806097,2072
1631106806101,2073
1631106806105,2074
1631106806109,2075
1631106806113,2075
1631106806117,2074
1631106806121,2074
1631106806125,2073
1631106806129,2073
1631106806133,2073
1631106806137,2072
1631106806141,2072
1631106806145,2071
1631106806149,2070
1631106806153,2068
1631106806157,2066
1631106806161,2064
1631106806165,2061
1631106806169,2059
1631106806173,2058
1631106806177,2056
1631106806181,2055
1631106806185,2054
1631106806189,2053
1631106806193,2052
1631106806197,2050
1631106806201,2049
1631106806205,2048
1631106806209,2048
1631106806213,2048
1631106806217,2048
1631106806221,2048
1631106806225,2048
1631106806229,2048
1631106806233,2048
1631106806237,2048
1631106806241,2048
1631106806245,2047
1631106806249,2047
1631106806253,2046
1631106806257,2046
1631106806261,2047
1631106806265,2047
1631106806269,2048
1631106806273,2048
1631106806277,2048
1631106806281,2048
1631106806285,2048
1631106806289,2048
1631106806293,2048
1631106806297,2048
1631106806301,2048
1631106806305,2048
1631106806309,2049
1631106806313,2049
1631106806317,2048
1631106806321,2048
1631106806325,2048
1631106806329,2048
1631106806333,2048
1631106806337,2048
1631106806341,2048
1631106806345,2048
1631106806349,2048
1631106806353,2048
1631106806357,2048
1631106806361,2048
1631106806365,2048
1631106806369,2047
1631106806373,2047
1631106806377,2047
1631106806381,2047
1631106806385,2048
1631106806389,2048
1631106806393,2048
1631106806397,2048
1631106806401,2048
1631106806405,2048
1631106806409,2047
1631106806413,2047
1631106806417,2047
1631106806421,2047
1631106806425,2048
1631106806429,2048
1631106806433,2048
1631106806437,2048
1631106806441,2048
1631106806445,2048
1631106806449,2048
1631106806453,2048
1631106806457,2048
1631106806461,2048
1631106806465,2048
1631106806469,2048
1631106806473,2048
1631106806477,2048
1631106806481,2048
1631106806485,2048
1631106806489,2048
1631106806493,2048
1631106806497,2048
1631106806501,2048
1631106806505,2049
1631106806509,2049
1631106806513,2050
1631106806517,2050
1631106806521,2049
1631106806525,2049
1631106806529,2049
1631106806533,2049
1631106806537,2049
1631106806541,2049
1631106806545,2050
1631106806549,2050
1631106806553,2050
1631106806557,2050
1631106806561,2050
1631106806565,2049
1631106806569,2049
1631106806573,2048
1631106806577,2048
1631106806581,2049
1631106806585,2049
1631106806589,2050
1631106806593,2050
1631106806597,2050
1631106806601,2050
1631106806605,2049
1631106806609,2049
1631106806613,2049
1631106806617,2049
1631106806621,2050
1631106806625,2050
1631106806629,2050
1631106806633,2050
1631106806637,2050
1631106806641,2050
1631106806645,2050
1631106806649,2050
1631106806653,2050
1631106806657,2050
1631106806661,2050
1631106806665,2051
1631106806669,2051
1631106806673,2051
1631106806677,2051
1631106806681,2051
1631106806685,2050
1631106806689,2050
1631106806693,2050
1631106806697,2050
1631106806701,2051
1631106806705,2051
1631106806709,2052
1631106806713,2052
1631106806717,2052
1631106806721,2052
1631106806725,2051
1631106806729,2051
1631106806733,2051
1631106806737,2051
1631106806741,2051
1631106806745,2051
1631106806749,2051
1631106806753,2051
1631106806757,2051
1631106806761,2051
1631106806765,2051
1631106806769,2051
1631106806773,2051
1631106806777,2051
1631106806781,2052
1631106806785,2053
1631106806789,2055
1631106806793,2056
1631106806797,2056
1631106806801,2056
1631106806805,2056
1631106806809,2055
1631106806813,2055
1631106806817,2055
1631106806821,2055
1631106806825,2055
1631106806829,2055
1631106806833,2054
1631106806837,2053
1631106806841,2052
1631106806845,2051
1631106806849,2050
1631106806853,2050
1631106806857,2050
1631106806861,2050
1631106806865,2051
1631106806869,2051
1631106806873,2051
1631106806877,2051
1631106806881,2051
1631106806885,2051
1631106806889,2050
1631106806893,2049
1631106806897,2048
1631106806901,2047
1631106806905,2046
1631106806909,2048
1631106806913,2053
1631106806917,2064
1631106806921,2081
1631106806925,2105
1631106806929,2129
1631106806933,2149
1631106806937,2155
1631106806941,2143
1631106806945,2115
1631106806949,2081
1631106806953,2050
1631106806957,2033
1631106806961,2028
1631106806965,2031
1631106806969,2038
1631106806973,2044
1631106806977,2047
1631106806981,2048
1631106806985,2049
1631106806989,2050
1631106806993,2051
1631106806997,2050
1631106807001,2050
1631106807005,2050
1631106807009,2050
1631106807013,2051
1631106807017,2051
1631106807021,2052
1631106807025,2053
1631106807029,2053
1631106807033,2053
1631106807037,2053
1631106807041,2053
1631106807045,2053
1631106807049,2053
1631106807053,2053
1631106807057,2054
1631106807061,2054
1631106807065,2055
1631106807069,2056
1631106807073,2056
1631106807077,2057
1631106807081,2057
1631106807085,2057
1631106807089,2057
1631106807093,2057
1631106807097,2058
1631106807101,2059
1631106807105,2060
1631106807109,2061
1631106807113,2062
1631106807117,2062
1631106807121,2062
1631106807125,2063
1631106807129,2064
1631106807133,2065
1631106807137,2066
1631106807141,2067
1631106807145,2068
1631106807149,2069
1631106807153,2070
1631106807157,2071
1631106807161,2072
1631106807165,2072
1631106807169,2073
1631106807173,2073
1631106807177,2073
1631106807181,2074
1631106807185,2074
1631106807189,2074
1631106807193,2074
1631106807197,2074
1631106807201,2073
1631106807205,2071
1631106807209,2070
1631106807213,2068
1631106807217,2067
1631106807221,2065
1631106807225,2064
1631106807229,2062
1631106807233,2061
1631106807237,2059
1631106807241,2057
1631106807245,2054
1631106807249,2052
1631106807253,2051
1631106807257,2050
1631106807261,2049
1631106807265,2049
1631106807269,2048
1631106807273,2048
1631106807277,2048
1631106807281,2048
1631106807285,2047
1631106807289,2046
1631106807293,2046
1631106807297,2046
1631106807301,2046
1631106807305,2047
1631106807309,2047
1631106807313,2047
1631106807317,2047
1631106807321,2046
1631106807325,2046
1631106807329,2046
1631106807333,2046
1631106807337,2046
1631106807341,2046
1631106807345,2047
1631106807349,2048
1631106807353,2048
1631106807357,2048
1631106807361,2048
1631106807365,2048
1631106807369,2047
1631106807373,2047
1631106807377,2047
1631106807381,2048
1631106807385,2048
1631106807389,2048
1631106807393,2048
1631106807397,2048
1631106807401,2048
1631106807405,2048
1631106807409,2047
1631106807413,2047
1631106807417,2047
1631106807421,2047
1631106807425,2047
1631106807429,2047
1631106807433,2047
1631106807437,2046
1631106807441,2046
1631106807445,2046
1631106807449,2046
1631106807453,2046
1631106807457,2046
1631106807461,2046
1631106807465,2046
1631106807469,2047
1631106807473,2047
1631106807477,2047
1631106807481,2047
1631106807485,2046
1631106807489,2046
1631106807493,2046
1631106807497,2046
1631106807501,2046
1631106807505,2047
1631106807509,2047
1631106807513,2047
1631106807517,2047
1631106807521,2047
1631106807525,2046
1631106807529,2046
1631106807533,2046
1631106807537,2046
1631106807541,2047
1631106807545,2047
1631106807549,2048
1631106807553,2048
1631106807557,2048
1631106807561,2048
1631106807565,2047
1631106807569,2047
1631106807573,2047
1631106807577,2047
1631106807581,2048
1631106807585,2048
1631106807589,2048
1631106807593,2048
1631106807597,2048
1631106807601,2048
1631106807605,2047
1631106807609,2047
1631106807613,2047
1631106807617,2047
1631106807621,2048
1631106807625,2048
1631106807629,2048
1631106807633,2048
1631106807637,2048
1631106807641,2048
1631106807645,2048
1631106807649,2048
1631106807653,2048
1631106807657,2048
1631106807661,2048
1631106807665,2048
1631106807669,2049
1631106807673,2049
1631106807677,2049
1631106807681,2048
1631106807685,2048
1631106807689,2048
1631106807693,2048
1631106807697,2048
1631106807701,2048
1631106807705,2049
1631106807709,2049
1631106807713,2050
1631106807717,2049
1631106807721,2049
1631106807725,2048
1631106807729,2048
1631106807733,2048
1631106807737,2048
1631106807741,2049
1631106807745,2050
1631106807749,2050
1631106807753,2050
1631106807757,2049
1631106807761,2049
1631106807765,2049
1631106807769,2049
1631106807773,2049
1631106807777,2049
1631106807781,2049
1631106807785,2049
1631106807789,2050
1631106807793,2050
1631106807797,2050
1631106807801,2049
1631106807805,2049
1631106807809,2048
1631106807813,2048
1631106807817,2049
1631106807821,2049
1631106807825,2050
1631106807829,2050
1631106807833,2050
1631106807837,2050
1631106807841,2050
1631106807845,2050
1631106807849,2049
1631106807853,2049
1631106807857,2050
1631106807861,2051
1631106807865,2052
1631106807869,2053
1631106807873,2054
1631106807877,2055
1631106807881,2056
1631106807885,2055
1631106807889,2054
1631106807893,2054
1631106807897,2053
1631106807901,2053
1631106807905,2054
1631106807909,2054
1631106807913,2053
1631106807917,2052
1631106807921,2050
1631106807925,2049
1631106807929,2048
1631106807933,2048
1631106807937,2048
1631106807941,2049
1631106807945,2050
1631106807949,2050
1631106807953,2050
1631106807957,2050
1631106807961,2049
1631106807965,2049
1631106807969,2048
1631106807973,2048
1631106807977,2047
1631106807981,2046
1631106807985,2045
1631106807989,2045
1631106807993,2049
1631106807997,2058
1631106808001,2073
1631106808005,2095
1631106808009,2119
1631106808013,2141
1631106808017,2152
1631106808021,2146
1631106808025,2124
1631106808029,2091
1631106808033,2058
1631106808037,2035
1631106808041,2026
1631106808045,2027
1631106808049,2034
1631106808053,2040
1631106808057,2044
1631106808061,2047
1631106808065,2048
1631106808069,2048
1631106808073,2049
1631106808077,2050
1631106808081,2050
1631106808085,2049
1631106808089,2049
1631106808093,2049
1631106808097,2050
1631106808101,2050
1631106808105,2051
1631106808109,2052
1631106808113,2052
1631106808117,2052
1631106808121,2052
1631106808125,2052
1631106808129,2052
1631106808133,2053
1631106808137,2054
1631106808141,2054
1631106808145,2055
1631106808149,2055
1631106808153,2056
1631106808157,2056
1631106808161,2056
1631106808165,2056
1631106808169,2056
1631106808173,2056
1631106808177,2057
1631106808181,2058
1631106808185,2059
1631106808189,2060
1631106808193,2061
1631106808197,2062
1631106808201,2062
1631106808205,2062
1631106808209,2063
1631106808213,2064
1631106808217,2065
1631106808221,2066
1631106808225,2068
1631106808229,2069
1631106808233,2070
1631106808237,2070
1631106808241,2071
1631106808245,2071
1631106808249,2071
1631106808253,2071
1631106808257,2072
1631106808261,2072
1631106808265,2073
1631106808269,2073
1631106808273,2073
1631106808277,2073
1631106808281,2072
1631106808285,2071
1631106808289,2069
1631106808293,2067
1631106808297,2066
1631106808301,2064
1631106808305,2063
1631106808309,2061
1631106808313,2059
1631106808317,2057
1631106808321,2056
1631106808325,2054
1631106808329,2052
1631106808333,2051
1631106808337,2050
1631106808341,2049
1631106808345,2048
1631106808349,2048
1631106808353,2048
1631106808357,2047
1631106808361,2046
1631106808365,2045
1631106808369,2044
1631106808373,2044
1631106808377,2044
1631106808381,2044
1631106808385,2045
1631106808389,2045
1631106808393,2045
1631106808397,2045
1631106808401,2044
1631106808405,2044
1631106808409,2044
1631106808413,2044
1631106808417,2044
1631106808421,2044
1631106808425,2045
1631106808429,2045
1631106808433,2045
1631106808437,2045
1631106808441,2045
1631106808445,2044
1631106808449,2044
1631106808453,2044
1631106808457,2044
1631106808461,2045
1631106808465,2045
1631106808469,2045
1631106808473,2045
1631106808477,2045
1631106808481,2045
1631106808485,2045
1631106808489,2045
1631106808493,2045
1631106808497,2045
1631106808501,2045
1631106808505,2045
1631106808509,2045
1631106808513,2045
1631106808517,2044
1631106808521,2044
1631106808525,2043
1631106808529,2043
1631106808533,2043
1631106808537,2043
1631106808541,2044
1631106808545,2044
1631106808549,2045
1631106808553,2045
1631106808557,2045
1631106808561,2044
1631106808565,2044
1631106808569,2043
1631106808573,2043
1631106808577,2043
1631106808581,2044
1631106808585,2044
1631106808589,2044
1631106808593,2044
1631106808597,2044
1631106808601,2044
1631106808605,2043
1631106808609,2043
1631106808613,2043
1631106808617,2043
1631106808621,2043
1631106808625,2044
1631106808629,2044
1631106808633,2044
1631106808637,2044
1631106808641,2044
1631106808645,2043
1631106808649,2043
1631106808653,2043
1631106808657,2043
1631106808661,2043
1631106808665,2044
1631106808669,2044
1631106808673,2044
1631106808677,2043
1631106808681,2043
1631106808685,2043
1631106808689,2042
1631106808693,2042
1631106808697,2042
1631106808701,2043
1631106808705,2043
1631106808709,2043
1631106808713,2043
1631106808717,2043
1631106808721,2043
1631106808725,2042
1631106808729,2042
1631106808733,2042
1631106808737,2043
1631106808741,2043
1631106808745,2043
1631106808749,2043
1631106808753,2043
1631106808757,2043
1631106808761,2043
1631106808765,2043
1631106808769,2043
1631106808773,2042
1631106808777,2042
1631106808781,2043
1631106808785,2043
1631106808789,2043
1631106808793,2043
1631106808797,2043
1631106808801,2043
1631106808805,2042
1631106808809,2042
1631106808813,2042
1631106808817,2042
1631106808821,2043
1631106808825,2043
1631106808829,2044
1631106808833,2044
1631106808837,2044
1631106808841,2044
1631106808845,2044
1631106808849,2043
1631106808853,2043
1631106808857,2043
1631106808861,2044
1631106808865,2044
1631106808869,2044
1631106808873,2044
1631106808877,2044
1631106808881,2044
1631106808885,2043
1631106808889,2043
1631106808893,2043
1631106808897,2043
1631106808901,2044
1631106808905,2044
1631106808909,2044
1631106808913,2044
1631106808917,2044
1631106808921,2044
1631106808925,2043
1631106808929,2043
1631106808933,2044
1631106808937,2044
1631106808941,2045
1631106808945,2046
1631106808949,2048
1631106808953,2048
1631106808957,2048
1631106808961,2048
1631106808965,2048
1631106808969,2048
1631106808973,2047
1631106808977,2047
1631106808981,2048
1631106808985,2048
1631106808989,2047
1631106808993,2046
1631106808997,2045
1631106809001,2044
1631106809005,2043
1631106809009,2043
1631106809013,2043
1631106809017,2043
1631106809021,2043
1631106809025,2044
1631106809029,2044
1631106809033,2044
1631106809037,2044
1631106809041,2044
1631106809045,2044
1631106809049,2042
1631106809053,2041
1631106809057,2039
1631106809061,2038
1631106809065,2039
1631106809069,2044
1631106809073,2054
1631106809077,2069
1631106809081,2091
1631106809085,2116
1631106809089,2137
1631106809093,2147
1631106809097,2139
1631106809101,2115
1631106809105,2082
1631106809109,2050
1631106809113,2029
1631106809117,2020
1631106809121,2022
1631106809125,2029
1631106809129,2035
1631106809133,2038
1631106809137,2041
1631106809141,2042
1631106809145,2043
1631106809149,2044
1631106809153,2044
1631106809157,2044
1631106809161,2044
1631106809165,2044
1631106809169,2044
1631106809173,2045
1631106809177,2045
1631106809181,2046
1631106809185,2047
1631106809189,2048
1631106809193,2048
1631106809197,2048
1631106809201,2048
1631106809205,2048
1631106809209,2048
1631106809213,2048
1631106809217,2048
1631106809221,2049
1631106809225,2050
1631106809229,2051
1631106809233,2051
1631106809237,2051
1631106809241,2052
1631106809245,2052
1631106809249,2052
1631106809253,2052
1631106809257,2053
1631106809261,2054
1631106809265,2055
1631106809269,2056
1631106809273,2057
1631106809277,2058
1631106809281,2058
1631106809285,2059
1631106809289,2059
1631106809293,2060
1631106809297,2061
1631106809301,2063
1631106809305,2064
1631106809309,2066
1631106809313,2066
1631106809317,2067
1631106809321,2067
1631106809325,2068
1631106809329,2068
1631106809333,2068
1631106809337,2069
1631106809341,2069
1631106809345,2070
1631106809349,2070
1631106809353,2070
1631106809357,2069
1631106809361,2068
1631106809365,2067
1631106809369,2065
1631106809373,2064
1631106809377,2062
1631106809381,2060
1631106809385,2059
1631106809389,2057
1631106809393,2055
1631106809397,2054
1631106809401,2052
1631106809405,2050
1631106809409,2048
1631106809413,2048
1631106809417,2047
1631106809421,2046
1631106809425,2045
1631106809429,2045
1631106809433,2044
1631106809437,2044
1631106809441,2043
1631106809445,2042
1631106809449,2042
1631106809453,2042
1631106809457,2042
1631106809461,2042
1631106809465,2043
1631106809469,2043
1631106809473,2043
1631106809477,2043
1631106809481,2043
1631106809485,2042
1631106809489,2042
1631106809493,2042
1631106809497,2043
1631106809501,2043
1631106809505,2044
1631106809509,2044
1631106809513,2044
1631106809517,2044
1631106809521,2044
1631106809525,2044
1631106809529,2044
1631106809533,2044
1631106809537,2045
1631106809541,2045
1631106809545,2045
1631106809549,2046
1631106809553,2046
1631106809557,2045
1631106809561,2045
1631106809565,2045
1631106809569,2044
1631106809573,2044
1631106809577,2044
1631106809581,2045
1631106809585,2045
1631106809589,2045
1631106809593,2045
1631106809597,2045
1631106809601,2045
1631106809605,2045
1631106809609,2045
1631106809613,2045
1631106809617,2045
1631106809621,2046
1631106809625,2046
1631106809629,2046
1631106809633,2046
1631106809637,2046
1631106809641,2046
1631106809645,2046
1631106809649,2045
1631106809653,2045
1631106809657,2045
1631106809661,2046
1631106809665,2046
1631106809669,2046
1631106809673,2046
1631106809677,2046
1631106809681,2046
1631106809685,2045
1631106809689,2045
1631106809693,2045
1631106809697,2045
1631106809701,2046
1631106809705,2046
1631106809709,2046
1631106809713,2046
1631106809717,2046
1631106809721,2046
1631106809725,2046
1631106809729,2046
1631106809733,2046
1631106809737,2046
1631106809741,2046
1631106809745,2047
1631106809749,2047
1631106809753,2048
1631106809757,2047
1631106809761,2047
1631106809765,2047
1631106809769,2047
1631106809773,2047
1631106809777,2047
1631106809781,2048
1631106809785,2048
1631106809789,2048
1631106809793,2048
1631106809797,2048
1631106809801,2048
1631106809805,2048
1631106809809,2048
1631106809813,2048
1631106809817,2048
1631106809821,2048
1631106809825,2048
1631106809829,2049
1631106809833,2049
1631106809837,2049
1631106809841,2048
1631106809845,2048
1631106809849,2048
1631106809853,2048
1631106809857,2048
1631106809861,2048
1631106809865,2049
1631106809869,2050
1631106809873,2050
1631106809877,2050
1631106809881,2049
1631106809885,2049
1631106809889,2048
1631106809893,2048
1631106809897,2049
1631106809901,2049
1631106809905,2049
1631106809909,2050
1631106809913,2050
1631106809917,2049
1631106809921,2049
1631106809925,2049
1631106809929,2048
1631106809933,2048
1631106809937,2049
1631106809941,2049
1631106809945,2050
1631106809949,2050
1631106809953,2050
1631106809957,2050
1631106809961,2050
1631106809965,2050
1631106809969,2049
1631106809973,2050
1631106809977,2050
1631106809981,2050
1631106809985,2050
1631106809989,2050
1631106809993,2050
1631106809997,2050
1631106810001,2050
1631106810005,2050
1631106810009,2050
1631106810013,2051
1631106810017,2052
1631106810021,2054
1631106810025,2055
1631106810029,2056
1631106810033,2056
1631106810037,2055
1631106810041,2055
1631106810045,2054
1631106810049,2054
1631106810053,2054
1631106810057,2053
1631106810061,2052
1631106810065,2052
1631106810069,2051
1631106810073,2050
1631106810077,2050
1631106810081,2050
1631106810085,2050
1631106810089,2050
1631106810093,2050
1631106810097,2050
1631106810101,2050
1631106810105,2051
1631106810109,2051
1631106810113,2051
1631106810117,2050
1631106810121,2049
1631106810125,2048
1631106810129,2046
1631106810133,2045
1631106810137,2048
1631106810141,2055
1631106810145,2068
1631106810149,2087
1631106810153,2111
1631106810157,2135
1631106810161,2151
1631106810165,2152
1631106810169,2135
1631106810173,2105
1631106810177,2070
1631106810181,2044
1631106810185,2029
1631106810189,2028
1631106810193,2033
1631106810197,2040
1631106810201,2045
1631106810205,2047
1631106810209,2048
1631106810213,2048
1631106810217,2049
1631106810221,2050
1631106810225,2051
1631106810229,2051
1631106810233,2052
1631106810237,2052
1631106810241,2052
1631106810245,2052
1631106810249,2052
1631106810253,2052
1631106810257,2053
1631106810261,2054
1631106810265,2054
1631106810269,2055
1631106810273,2055
1631106810277,2055
1631106810281,2055
1631106810285,2055
1631106810289,2055
1631106810293,2056
1631106810297,2056
1631106810301,2057
1631106810305,2058
1631106810309,2059
1631106810313,2059
1631106810317,2059
1631106810321,2059
1631106810325,2059
1631106810329,2060
1631106810333,2060
1631106810337,2061
1631106810341,2062
1631106810345,2064
1631106810349,2065
1631106810353,2066
1631106810357,2067
1631106810361,2068
1631106810365,2068
1631106810369,2069
1631106810373,2069
1631106810377,2070
1631106810381,2071
1631106810385,2073
1631106810389,2074
1631106810393,2075
1631106810397,2075
1631106810401,2075
1631106810405,2075
1631106810409,2075
1631106810413,2075
1631106810417,2075
1631106810421,2075
1631106810425,2075
1631106810429,2074
1631106810433,2073
1631106810437,2072
1631106810441,2070
1631106810445,2068
1631106810449,2066
1631106810453,2064
1631106810457,2062
1631106810461,2061
1631106810465,2059
1631106810469,2058
1631106810473,2057
1631106810477,2055
1631106810481,2054
1631106810485,2052
1631106810489,2050
1631106810493,2049
1631106810497,2048
1631106810501,2048
1631106810505,2048
1631106810509,2048
1631106810513,2048
1631106810517,2048
1631106810521,2048
1631106810525,2047
1631106810529,2047
1631106810533,2047
1631106810537,2047
1631106810541,2047
1631106810545,2048
1631106810549,2048
1631106810553,2048
1631106810557,2048
1631106810561,2048
1631106810565,2048
1631106810569,2048
1631106810573,2048
1631106810577,2048
1631106810581,2048
1631106810585,2048
1631106810589,2048
1631106810593,2048
1631106810597,2048
1631106810601,2048
1631106810605,2048
1631106810609,2048
1631106810613,2048
1631106810617,2048
1631106810621,2048
1631106810625,2049
1631106810629,2050
1631106810633,2050
1631106810637,2050
1631106810641,2049
1631106810645,2049
1631106810649,2048
1631106810653,2048
1631106810657,2048
1631106810661,2048
1631106810665,2049
1631106810669,2049
1631106810673,2050
1631106810677,2049
1631106810681,2049
1631106810685,2049
1631106810689,2048
1631106810693,2048
1631106810697,2048
1631106810701,2048
1631106810705,2049
1631106810709,2049
1631106810713,2050
1631106810717,2049
1631106810721,2049
1631106810725,2049
1631106810729,2048
1631106810733,2048
1631106810737,2048
1631106810741,2048
1631106810745,2049
1631106810749,2049
1631106810753,2050
1631106810757,2049
1631106810761,2049
1631106810765,2048
1631106810769,2048
1631106810773,2048
1631106810777,2049
1631106810781,2049
1631106810785,2050
1631106810789,2050
1631106810793,2050
1631106810797,2050
1631106810801,2050
1631106810805,2049
1631106810809,2049
1631106810813,2049
1631106810817,2049
1631106810821,2049
1631106810825,2050
1631106810829,2050
1631106810833,2051
1631106810837,2050
1631106810841,2050
1631106810845,2050
1631106810849,2050
1631106810853,2050
1631106810857,2050
1631106810861,2050
1631106810865,2051
1631106810869,2051
1631106810873,2051
1631106810877,2051
1631106810881,2050
1631106810885,2050
1631106810889,2049
1631106810893,2049
1631106810897,2049
1631106810901,2050
1631106810905,2050
1631106810909,2051
1631106810913,2051
1631106810917,2051
1631106810921,2051
1631106810925,2051
1631106810929,2050
1631106810933,2050
1631106810937,2050
1631106810941,2051
1631106810945,2051
1631106810949,2052
1631106810953,2052
1631106810957,2052
1631106810961,2051
1631106810965,2051
1631106810969,2051
1631106810973,2051
1631106810977,2051
1631106810981,2052
1631106810985,2052
1631106810989,2053
1631106810993,2053
1631106810997,2053
1631106811001,2053
1631106811005,2052
1631106811009,2052
1631106811013,2052
1631106811017,2052
1631106811021,2052
1631106811025,2053
1631106811029,2053
1631106811033,2053
1631106811037,2053
1631106811041,2053
1631106811045,2053
1631106811049,2053
1631106811053,2053
1631106811057,2054
1631106811061,2056
1631106811065,2058
1631106811069,2058
1631106811073,2058
1631106811077,2058
1631106811081,2057
1631106811085,2056
1631106811089,2055
1631106811093,2055
1631106811097,2055
1631106811101,2055
1631106811105,2054
1631106811109,2054
1631106811113,2053
1631106811117,2052
1631106811121,2051
1631106811125,2051
1631106811129,2051
1631106811133,2051
1631106811137,2052
1631106811141,2052
1631106811145,2052
1631106811149,2052
1631106811153,2052
1631106811157,2052
1631106811161,2052
1631106811165,2050
1631106811169,2049
1631106811173,2048
1631106811177,2048
1631106811181,2051
1631106811185,2060
1631106811189,2075
1631106811193,2095
1631106811197,2120
1631106811201,2142
1631106811205,2155
1631106811209,2151
1631106811213,2129
1631106811217,2096
1631106811221,2063
1631106811225,2039
1631106811229,2028
1631106811233,2029
1631106811237,2035
1631106811241,2042
1631106811245,2046
1631106811249,2048
1631106811253,2048
1631106811257,2049
1631106811261,2051
1631106811265,2051
1631106811269,2052
1631106811273,2053
1631106811277,2053
1631106811281,2054
1631106811285,2054
1631106811289,2054
1631106811293,2054
1631106811297,2054
1631106811301,2054
1631106811305,2055
1631106811309,2055
1631106811313,2056
1631106811317,2056
1631106811321,2056
1631106811325,2056
1631106811329,2056
1631106811333,2056
1631106811337,2056
1631106811341,2056
1631106811345,2057
1631106811349,2058
1631106811353,2059
1631106811357,2059
1631106811361,2059
1631106811365,2059
1631106811369,2059
1631106811373,2060
1631106811377,2061
1631106811381,2062
1631106811385,2063
1631106811389,2064
1631106811393,2065
1631106811397,2066
1631106811401,2066
1631106811405,2067
1631106811409,2067
1631106811413,2069
1631106811417,2070
1631106811421,2071
1631106811425,2072
1631106811429,2074
1631106811433,2075
1631106811437,2075
1631106811441,2075
1631106811445,2075
1631106811449,2075
1631106811453,2075
1631106811457,2075
1631106811461,2076
1631106811465,2076
1631106811469,2075
1631106811473,2074
1631106811477,2073
1631106811481,2072
1631106811485,2070
1631106811489,2068
1631106811493,2066
1631106811497,2064
1631106811501,2062
1631106811505,2061
1631106811509,2059
1631106811513,2058
1631106811517,2056
1631106811521,2054
1631106811525,2052
1631106811529,2051
1631106811533,2050
1631106811537,2049
1631106811541,2048
1631106811545,2048
1631106811549,2048
1631106811553,2048
1631106811557,2047
1631106811561,2047
1631106811565,2046
1631106811569,2045
1631106811573,2045
1631106811577,2045
1631106811581,2046
1631106811585,2047
1631106811589,2047
1631106811593,2048
1631106811597,2048
1631106811601,2048
1631106811605,2048
1631106811609,2047
1631106811613,2047
1631106811617,2047
1631106811621,2047
1631106811625,2048
1631106811629,2048
1631106811633,2048
1631106811637,2048
1631106811641,2048
1631106811645,2048
1631106811649,2047
1631106811653,2047
1631106811657,2047
1631106811661,2048
1631106811665,2048
1631106811669,2048
1631106811673,2048
1631106811677,2048
1631106811681,2047
1631106811685,2047
1631106811689,2046
1631106811693,2046
1631106811697,2046
1631106811701,2047
1631106811705,2047
1631106811709,2047
1631106811713,2047
1631106811717,2047
1631106811721,2047
1631106811725,2047
1631106811729,2046
1631106811733,2046
1631106811737,2046
1631106811741,2046
1631106811745,2047
1631106811749,2047
1631106811753,2047
1631106811757,2046
1631106811761,2046
1631106811765,2045
1631106811769,2045
1631106811773,2046
1631106811777,2046
1631106811781,2047
1631106811785,2047
1631106811789,2047
1631106811793,2047
1631106811797,2047
1631106811801,2047
1631106811805,2046
1631106811809,2046
1631106811813,2045
1631106811817,2045
1631106811821,2045
1631106811825,2046
1631106811829,2047
1631106811833,2047
1631106811837,2048
1631106811841,2047
1631106811845,2047
1631106811849,2046
1631106811853,2046
1631106811857,2046
1631106811861,2046
1631106811865,2047
1631106811869,2047
1631106811873,2047
1631106811877,2047
1631106811881,2048
1631106811885,2048
1631106811889,2048
1631106811893,2048
1631106811897,2047
1631106811901,2047
1631106811905,2047
1631106811909,2047
1631106811913,2048
1631106811917,2048
1631106811921,2048
1631106811925,2048
1631106811929,2048
1631106811933,2047
1631106811937,2047
1631106811941,2047
1631106811945,2048
1631106811949,2048
1631106811953,2048
1631106811957,2048
1631106811961,2048
1631106811965,2048
1631106811969,2048
1631106811973,2048
1631106811977,2048
1631106811981,2048
1631106811985,2048
1631106811989,2048
1631106811993,2048
1631106811997,2048
1631106812001,2048
1631106812005,2048
1631106812009,2048
1631106812013,2048
1631106812017,2048
1631106812021,2048
1631106812025,2048
1631106812029,2048
1631106812033,2048
1631106812037,2048
1631106812041,2047
1631106812045,2047
1631106812049,2047
1631106812053,2047
1631106812057,2048
1631106812061,2048
1631106812065,2049
1631106812069,2050
1631106812073,2050
1631106812077,2050
1631106812081,2051
1631106812085,2051
1631106812089,2052
1631106812093,2052
1631106812097,2052
1631106812101,2052
1631106812105,2052
1631106812109,2052
1631106812113,2051
1631106812117,2049
1631106812121,2048
1631106812125,2047
1631106812129,2046
1631106812133,2046
1631106812137,2047
1631106812141,2047
1631106812145,2048
1631106812149,2048
1631106812153,2048
1631106812157,2048
1631106812161,2047
1631106812165,2047
1631106812169,2046
1631106812173,2046
1631106812177,2045
1631106812181,2045
1631106812185,2044
1631106812189,2044
1631106812193,2044
1631106812197,2047
1631106812201,2054
1631106812205,2067
1631106812209,2087
1631106812213,2111
1631106812217,2134
1631106812221,2148
1631106812225,2144
1631106812229,2122
1631106812233,2088
1631106812237,2053
1631106812241,2029
1631106812245,2019
1631106812249,2020
1631106812253,2027
1631106812257,2034
1631106812261,2038
1631106812265,2041
1631106812269,2043
1631106812273,2044
1631106812277,2044
1631106812281,2045
1631106812285,2045
1631106812289,2045
1631106812293,2046
1631106812297,2046
1631106812301,2047
1631106812305,2047
1631106812309,2048
1631106812313,2048
1631106812317,2048
1631106812321,2049
1631106812325,2049
1631106812329,2048
1631106812333,2048
1631106812337,2048
1631106812341,2048
1631106812345,2050
1631106812349,2051
1631106812353,2052
1631106812357,2052
1631106812361,2051
1631106812365,2051
1631106812369,2051
1631106812373,2052
1631106812377,2053
1631106812381,2054
1631106812385,2055
1631106812389,2056
1631106812393,2056
1631106812397,2057
1631106812401,2057
1631106812405,2057
1631106812409,2058
1631106812413,2059
1631106812417,2060
1631106812421,2061
1631106812425,2063
1631106812429,2064
1631106812433,2065
1631106812437,2065
1631106812441,2066
1631106812445,2066
1631106812449,2067
1631106812453,2069
1631106812457,2070
1631106812461,2070
1631106812465,2070
1631106812469,2069
1631106812473,2068
1631106812477,2067
1631106812481,2067
1631106812485,2067
1631106812489,2066
1631106812493,2065
1631106812497,2063
1631106812501,2062
1631106812505,2060
1631106812509,2059
1631106812513,2056
1631106812517,2053
1631106812521,2050
1631106812525,2048
1631106812529,2047
1631106812533,2046
1631106812537,2045
1631106812541,2044
1631106812545,2044
1631106812549,2043
1631106812553,2041
1631106812557,2040
1631106812561,2039
1631106812565,2038
1631106812569,2037
1631106812573,2037
1631106812577,2037
1631106812581,2038
1631106812585,2038
1631106812589,2038
1631106812593,2038
1631106812597,2038
1631106812601,2038
1631106812605,2037
1631106812609,2037
1631106812613,2037
1631106812617,2038
1631106812621,2039
1631106812625,2039
1631106812629,2040
1631106812633,2040
1631106812637,2040
1631106812641,2040
1631106812645,2040
1631106812649,2040
1631106812653,2040
1631106812657,2039
1631106812661,2040
1631106812665,2040
1631106812669,2040
1631106812673,2040
1631106812677,2040
1631106812681,2040
1631106812685,2039
1631106812689,2040
1631106812693,2040
1631106812697,2041
1631106812701,2041
1631106812705,2041
1631106812709,2040
1631106812713,2040
1631106812717,2040
1631106812721,2041
1631106812725,2040
1631106812729,2040
1631106812733,2039
1631106812737,2039
1631106812741,2040
1631106812745,2041
1631106812749,2041
1631106812753,2041
1631106812757,2040
1631106812761,2039
1631106812765,2039
1631106812769,2040
1631106812773,2040
1631106812777,2040
1631106812781,2041
1631106812785,2041
1631106812789,2042
1631106812793,2042
1631106812797,2042
1631106812801,2041
1631106812805,2040
1631106812809,2040
1631106812813,2040
1631106812817,2041
1631106812821,2041
1631106812825,2042
1631106812829,2042
1631106812833,2042
1631106812837,2042
1631106812841,2042
1631106812845,2042
1631106812849,2041
1631106812853,2042
1631106812857,2042
1631106812861,2042
1631106812865,2042
1631106812869,2043
1631106812873,2043
1631106812877,2043
1631106812881,2043
1631106812885,2043
1631106812889,2043
1631106812893,2043
1631106812897,2043
1631106812901,2043
1631106812905,2043
1631106812909,2043
1631106812913,2043
1631106812917,2043
1631106812921,2043
1631106812925,2043
1631106812929,2043
1631106812933,2043
1631106812937,2044
1631106812941,2044
1631106812945,2044
1631106812949,2044
1631106812953,2044
1631106812957,2044
1631106812961,2043
1631106812965,2043
1631106812969,2043
1631106812973,2043
1631106812977,2044
1631106812981,2044
1631106812985,2045
1631106812989,2045
1631106812993,2044
1631106812997,2044
1631106813001,2043
1631106813005,2043
1631106813009,2044
1631106813013,2044
1631106813017,2045
1631106813021,2045
1631106813025,2046
1631106813029,2047
1631106813033,2048
1631106813037,2049
1631106813041,2049
1631106813045,2049
1631106813049,2048
1631106813053,2048
1631106813057,2049
1631106813061,2050
1631106813065,2050
1631106813069,2050
1631106813073,2049
1631106813077,2047
1631106813081,2045
1631106813085,2044
1631106813089,2044
1631106813093,2045
1631106813097,2046
1631106813101,2047
1631106813105,2048
1631106813109,2048
1631106813113,2047
1631106813117,2047
1631106813121,2046
1631106813125,2046
1631106813129,2045
1631106813133,2044
1631106813137,2043
1631106813141,2042
1631106813145,2044
1631106813149,2048
1631106813153,2059
1631106813157,2075
1631106813161,2098
1631106813165,2123
1631106813169,2144
1631106813173,2154
1631106813177,2145
1631106813181,2119
1631106813185,2083
1631106813189,2049
1631106813193,2028
1631106813197,2020
1631106813201,2024
1631106813205,2031
1631106813209,2038
1631106813213,2040
1631106813217,2042
1631106813221,2044
1631106813225,2046
1631106813229,2047
1631106813233,2048
1631106813237,2048
1631106813241,2048
1631106813245,2048
1631106813249,2048
1631106813253,2048
1631106813257,2048
1631106813261,2049
1631106813265,2049
1631106813269,2050
1631106813273,2051
1631106813277,2051
1631106813281,2051
1631106813285,2050
1631106813289,2051
1631106813293,2051
1631106813297,2052
1631106813301,2053
1631106813305,2053
1631106813309,2053
1631106813313,2054
1631106813317,2054
1631106813321,2055
1631106813325,2056
1631106813329,2057
1631106813333,2057
1631106813337,2057
1631106813341,2057
1631106813345,2058
1631106813349,2060
1631106813353,2061
1631106813357,2062
1631106813361,2063
1631106813365,2063
1631106813369,2064
1631106813373,2065
1631106813377,2066
1631106813381,2068
1631106813385,2070
1631106813389,2071
1631106813393,2072
1631106813397,2073
1631106813401,2073
1631106813405,2074
1631106813409,2074
1631106813413,2074
1631106813417,2074
1631106813421,2075
1631106813425,2075
1631106813429,2075
1631106813433,2074
1631106813437,2073
1631106813441,2072
1631106813445,2069
1631106813449,2067
1631106813453,2065
1631106813457,2063
1631106813461,2061
1631106813465,2059
1631106813469,2058
1631106813473,2056
1631106813477,2054
1631106813481,2053
1631106813485,2050
1631106813489,2048
1631106813493,2048
1631106813497,2047
1631106813501,2046
1631106813505,2046
1631106813509,2046
1631106813513,2045
1631106813517,2045
1631106813521,2044
1631106813525,2044
1631106813529,2043
1631106813533,2043
1631106813537,2043
1631106813541,2043
1631106813545,2043
1631106813549,2044
1631106813553,2044
1631106813557,2044
1631106813561,2044
1631106813565,2044
1631106813569,2044
1631106813573,2045
1631106813577,2045
1631106813581,2046
1631106813585,2047
1631106813589,2048
1631106813593,2048
1631106813597,2048
1631106813601,2047
1631106813605,2047
1631106813609,2046
1631106813613,2047
1631106813617,2047
1631106813621,2048
1631106813625,2048
1631106813629,2048
1631106813633,2048
1631106813637,2048
1631106813641,2048
1631106813645,2048
1631106813649,2048
1631106813653,2047
1631106813657,2047
1631106813661,2048
1631106813665,2048
1631106813669,2049
1631106813673,2049
1631106813677,2048
1631106813681,2048
1631106813685,2048
1631106813689,2048
1631106813693,2048
1631106813697,2048
1631106813701,2048
1631106813705,2048
1631106813709,2049
1631106813713,2049
1631106813717,2049
1631106813721,2049
1631106813725,2048
1631106813729,2048
1631106813733,2048
1631106813737,2048
1631106813741,2048
1631106813745,2048
1631106813749,2049
1631106813753,2049
1631106813757,2049
1631106813761,2049
1631106813765,2049
1631106813769,2049
1631106813773,2049
1631106813777,2049
1631106813781,2050
1631106813785,2050
1631106813789,2051
1631106813793,2051
1631106813797,2051
1631106813801,2051
1631106813805,2050
1631106813809,2050
1631106813813,2050
1631106813817,2051
1631106813821,2051
1631106813825,2052
1631106813829,2052
1631106813833,2052
1631106813837,2052
1631106813841,2052
1631106813845,2051
1631106813849,2051
1631106813853,2051
1631106813857,2051
1631106813861,2052
1631106813865,2052
1631106813869,2053
1631106813873,2053
1631106813877,2052
1631106813881,2052
1631106813885,2052
1631106813889,2052
1631106813893,2052
1631106813897,2053
1631106813901,2053
1631106813905,2053
1631106813909,2054
1631106813913,2054
1631106813917,2054
1631106813921,2054
1631106813925,2053
1631106813929,2053
1631106813933,2053
1631106813937,2054
1631106813941,2054
1631106813945,2054
1631106813949,2054
1631106813953,2054
1631106813957,2054
1631106813961,2054
1631106813965,2054
1631106813969,2053
1631106813973,2053
1631106813977,2053
1631106813981,2054
1631106813985,2055
1631106813989,2056
1631106813993,2057
1631106813997,2058
1631106814001,2058
1631106814005,2058
1631106814009,2058
1631106814013,2058
1631106814017,2058
1631106814021,2058
1631106814025,2058
1631106814029,2057
1631106814033,2057
1631106814037,2057
1631106814041,2056
1631106814045,2055
1631106814049,2054
1631106814053,2053
1631106814057,2052
1631106814061,2052
1631106814065,2052
1631106814069,2053
1631106814073,2053
1631106814077,2054
1631106814081,2054
1631106814085,2054
1631106814089,2053
1631106814093,2053
1631106814097,2052
1631106814101,2050
1631106814105,2049
1631106814109,2048
1631106814113,2049
1631106814117,2055
1631106814121,2065
1631106814125,2081
1631106814129,2104
1631106814133,2129
1631106814137,2151
1631106814141,2160
1631106814145,2152
1631106814149,2126
1631106814153,2091
1631106814157,2058
1631106814161,2037
1631106814165,2028
1631106814169,2031
1631106814173,2038
1631106814177,2045
1631106814181,2048
1631106814185,2050
1631106814189,2051
1631106814193,2052
1631106814197,2053
1631106814201,2053
1631106814205,2052
1631106814209,2052
1631106814213,2052
1631106814217,2052
1631106814221,2053
1631106814225,2054
1631106814229,2055
1631106814233,2056
1631106814237,2056
1631106814241,2055
1631106814245,2055
1631106814249,2055
1631106814253,2055
1631106814257,2056
1631106814261,2057
1631106814265,2057
1631106814269,2058
1631106814273,2058
1631106814277,2059
1631106814281,2059
1631106814285,2059
1631106814289,2060
1631106814293,2060
1631106814297,2061
1631106814301,2062
1631106814305,2063
1631106814309,2063
1631106814313,2064
1631106814317,2065
1631106814321,2065
1631106814325,2066
1631106814329,2066
1631106814333,2067
1631106814337,2068
1631106814341,2069
1631106814345,2071
1631106814349,2072
1631106814353,2074
1631106814357,2075
1631106814361,2075
1631106814365,2076
1631106814369,2077
1631106814373,2077
1631106814377,2078
1631106814381,2078
1631106814385,2078
1631106814389,2078
1631106814393,2079
1631106814397,2078
1631106814401,2078
1631106814405,2077
1631106814409,2076
1631106814413,2074
1631106814417,2072
1631106814421,2070
1631106814425,2068
1631106814429,2067
1631106814433,2065
1631106814437,2063
1631106814441,2060
1631106814445,2058
1631106814449,2056
1631106814453,2054
1631106814457,2052
1631106814461,2051
1631106814465,2051
1631106814469,2050
1631106814473,2050
1631106814477,2049
1631106814481,2049
1631106814485,2048
1631106814489,2048
1631106814493,2047
1631106814497,2047
1631106814501,2048
1631106814505,2048
1631106814509,2048
1631106814513,2048
1631106814517,2048
1631106814521,2048
1631106814525,2048
1631106814529,2048
1631106814533,2048
1631106814537,2048
1631106814541,2048
1631106814545,2048
1631106814549,2049
1631106814553,2049
1631106814557,2049
1631106814561,2049
1631106814565,2049
1631106814569,2049
1631106814573,2049
1631106814577,2050
1631106814581,2050
1631106814585,2051
1631106814589,2051
1631106814593,2051
1631106814597,2052
1631106814601,2052
1631106814605,2052
1631106814609,2051
1631106814613,2051
1631106814617,2051
1631106814621,2052
1631106814625,2052
1631106814629,2052
1631106814633,2053
1631106814637,2053
1631106814641,2052
1631106814645,2052
1631106814649,2052
1631106814653,2052
1631106814657,2052
1631106814661,2052
1631106814665,2052
1631106814669,2052
1631106814673,2053
1631106814677,2053
1631106814681,2052
1631106814685,2052
1631106814689,2052
1631106814693,2051
1631106814697,2052
1631106814701,2052
1631106814705,2053
1631106814709,2053
1631106814713,2053
1631106814717,2054
1631106814721,2054
1631106814725,2053
1631106814729,2053
1631106814733,2053
1631106814737,2053
1631106814741,2053
1631106814745,2054
1631106814749,2054
1631106814753,2055
1631106814757,2055
1631106814761,2054
1631106814765,2054
1631106814769,2054
1631106814773,2054
1631106814777,2054
1631106814781,2055
1631106814785,2055
1631106814789,2055
1631106814793,2055
1631106814797,2055
1631106814801,2055
1631106814805,2054
1631106814809,2054
1631106814813,2054
1631106814817,2055
1631106814821,2055
1631106814825,2055
1631106814829,2056
1631106814833,2056
1631106814837,2056
1631106814841,2055
1631106814845,2055
1631106814849,2055
1631106814853,2055
1631106814857,2055
1631106814861,2055
1631106814865,2056
1631106814869,2056
1631106814873,2056
1631106814877,2056
1631106814881,2056
1631106814885,2056
1631106814889,2055
1631106814893,2056
1631106814897,2056
1631106814901,2056
1631106814905,2057
1631106814909,2057
1631106814913,2057
1631106814917,2056
1631106814921,2056
1631106814925,2056
1631106814929,2056
1631106814933,2056
1631106814937,2056
1631106814941,2056
1631106814945,2056
1631106814949,2057
1631106814953,2057
1631106814957,2057
1631106814961,2056
1631106814965,2056
1631106814969,2055
1631106814973,2055
1631106814977,2056
1631106814981,2056
1631106814985,2056
1631106814989,2057
1631106814993,2057
1631106814997,2057
1631106815001,2056
1631106815005,2056
1631106815009,2056
1631106815013,2056
1631106815017,2056
1631106815021,2057
1631106815025,2057
1631106815029,2058
1631106815033,2058
1631106815037,2058
1631106815041,2057
1631106815045,2057
1631106815049,2056
1631106815053,2056
1631106815057,2056
1631106815061,2057
1631106815065,2057
1631106815069,2058
1631106815073,2058
1631106815077,2058
1631106815081,2058
1631106815085,2059
1631106815089,2059
1631106815093,2060
1631106815097,2061
1631106815101,2062
1631106815105,2063
1631106815109,2063
1631106815113,2062
1631106815117,2061
1631106815121,2060
1631106815125,2060
1631106815129,2060
1631106815133,2059
1631106815137,2058
1631106815141,2058
1631106815145,2057
1631106815149,2057
1631106815153,2057
1631106815157,2057
1631106815161,2057
1631106815165,2057
1631106815169,2056
1631106815173,2056
1631106815177,2056
1631106815181,2057
1631106815185,2057
1631106815189,2058
1631106815193,2058
1631106815197,2057
1631106815201,2055
1631106815205,2053
1631106815209,2052
1631106815213,2053
1631106815217,2060
1631106815221,2072
1631106815225,2090
1631106815229,2113
1631106815233,2138
1631106815237,2157
1631106815241,2163
1631106815245,2152
1631106815249,2126
1631106815253,2092
1631106815257,2060
1631106815261,2042
1631106815265,2035
1631106815269,2038
1631106815273,2045
1631106815277,2050
1631106815281,2053
1631106815285,2054
1631106815289,2054
1631106815293,2055
1631106815297,2056
1631106815301,2056
1631106815305,2057
1631106815309,2058
1631106815313,2059
1631106815317,2059
1631106815321,2059
1631106815325,2058
1631106815329,2058
1631106815333,2059
1631106815337,2059
1631106815341,2060
1631106815345,2061
1631106815349,2062
1631106815353,2062
1631106815357,2062
1631106815361,2062
1631106815365,2062
1631106815369,2062
1631106815373,2062
1631106815377,2063
1631106815381,2064
1631106815385,2064
1631106815389,2065
1631106815393,2066
1631106815397,2066
1631106815401,2066
1631106815405,2067
1631106815409,2067
1631106815413,2068
1631106815417,2069
1631106815421,2070
1631106815425,2071
1631106815429,2072
1631106815433,2073
1631106815437,2074
1631106815441,2074
1631106815445,2074
1631106815449,2075
1631106815453,2076
1631106815457,2078
1631106815461,2079
1631106815465,2080
1631106815469,2082
1631106815473,2082
1631106815477,2083
1631106815481,2083
1631106815485,2083
1631106815489,2083
1631106815493,2083
1631106815497,2082
1631106815501,2082
1631106815505,2083
1631106815509,2082
1631106815513,2081
1631106815517,2080
1631106815521,2078
1631106815525,2075
1631106815529,2073
1631106815533,2071
1631106815537,2070
1631106815541,2068
1631106815545,2067
1631106815549,2065
1631106815553,2064
1631106815557,2062
1631106815561,2061
1631106815565,2059
1631106815569,2058
1631106815573,2057
1631106815577,2057
1631106815581,2056
1631106815585,2056
1631106815589,2056
1631106815593,2056
1631106815597,2055
1631106815601,2055
1631106815605,2054
1631106815609,2054
1631106815613,2054
1631106815617,2054
1631106815621,2055
1631106815625,2055
1631106815629,2055
1631106815633,2055
1631106815637,2055
1631106815641,2055
1631106815645,2055
1631106815649,2054
1631106815653,2055
1631106815657,2055
1631106815661,2055
1631106815665,2056
1631106815669,2056
1631106815673,2057
1631106815677,2057
1631106815681,2056
1631106815685,2056
1631106815689,2056
1631106815693,2056
1631106815697,2056
1631106815701,2056
1631106815705,2057
1631106815709,2057
1631106815713,2058
1631106815717,2057
1631106815721,2057
1631106815725,2056
1631106815729,2056
1631106815733,2056
1631106815737,2056
1631106815741,2057
1631106815745,2057
1631106815749,2057
1631106815753,2057
1631106815757,2057
1631106815761,2057
1631106815765,2056
1631106815769,2055
1631106815773,2055
1631106815777,2055
1631106815781,2056
1631106815785,2056
1631106815789,2056
1631106815793,2056
1631106815797,2056
1631106815801,2055
1631106815805,2055
1631106815809,2055
1631106815813,2055
1631106815817,2055
1631106815821,2055
1631106815825,2056
1631106815829,2056
1631106815833,2056
1631106815837,2056
1631106815841,2056
1631106815845,2056
1631106815849,2055
1631106815853,2055
1631106815857,2055
1631106815861,2056
1631106815865,2056
1631106815869,2057
1631106815873,2057
1631106815877,2057
1631106815881,2056
1631106815885,2056
1631106815889,2056
1631106815893,2055
1631106815897,2055
1631106815901,2056
1631106815905,2056
1631106815909,2056
1631106815913,2056
1631106815917,2056
1631106815921,2056
1631106815925,2055
1631106815929,2055
1631106815933,2055
1631106815937,2055
1631106815941,2056
1631106815945,2056
1631106815949,2056
1631106815953,2056
1631106815957,2056
1631106815961,2056
1631106815965,2056
1631106815969,2055
1631106815973,2055
1631106815977,2055
1631106815981,2056
1631106815985,2056
1631106815989,2056
1631106815993,2056
1631106815997,2056
1631106816001,2056
1631106816005,2055
1631106816009,2055
1631106816013,2055
1631106816017,2055
1631106816021,2056
1631106816025,2056
1631106816029,2057
1631106816033,2057
1631106816037,2057
1631106816041,2057
1631106816045,2056
1631106816049,2056
1631106816053,2056
1631106816057,2056
1631106816061,2056
1631106816065,2057
1631106816069,2057
1631106816073,2057
1631106816077,2057
1631106816081,2057
1631106816085,2056
1631106816089,2056
1631106816093,2056
1631106816097,2056
1631106816101,2057
1631106816105,2057
1631106816109,2057
1631106816113,2057
1631106816117,2057
1631106816121,2057
1631106816125,2057
1631106816129,2057
1631106816133,2057
1631106816137,2057
1631106816141,2057
1631106816145,2057
1631106816149,2057
1631106816153,2057
1631106816157,2057
1631106816161,2056
1631106816165,2056
1631106816169,2055
1631106816173,2055
1631106816177,2056
1631106816181,2057
1631106816185,2058
1631106816189,2059
1631106816193,2061
1631106816197,2061
1631106816201,2061
1631106816205,2061
1631106816209,2060
1631106816213,2059
1631106816217,2059
1631106816221,2060
1631106816225,2060
1631106816229,2059
1631106816233,2058
1631106816237,2057
1631106816241,2056
1631106816245,2054
1631106816249,2054
1631106816253,2054
1631106816257,2055
1631106816261,2055
1631106816265,2055
1631106816269,2056
1631106816273,2056
1631106816277,2056
1631106816281,2055
1631106816285,2055
1631106816289,2055
1631106816293,2054
1631106816297,2052
1631106816301,2051
1631106816305,2051
1631106816309,2053
1631106816313,2059
1631106816317,2071
1631106816321,2088
1631106816325,2111
1631106816329,2135
1631106816333,2153
1631106816337,2157
1631106816341,2144
1631106816345,2117
1631106816349,2083
1631106816353,2053
1631106816357,2036
1631106816361,2030
1631106816365,2033
1631106816369,2040
1631106816373,2045
1631106816377,2048
1631106816381,2050
1631106816385,2051
1631106816389,2052
1631106816393,2053
1631106816397,2053
1631106816401,2053
1631106816405,2053
1631106816409,2053
1631106816413,2053
1631106816417,2053
1631106816421,2054
1631106816425,2055
1631106816429,2055
1631106816433,2055
1631106816437,2055
1631106816441,2055
1631106816445,2055
1631106816449,2055
1631106816453,2056
1631106816457,2056
1631106816461,2057
1631106816465,2058
1631106816469,2059
1631106816473,2059
1631106816477,2059
1631106816481,2059
1631106816485,2059
1631106816489,2059
1631106816493,2059
1631106816497,2060
1631106816501,2061
1631106816505,2062
1631106816509,2063
1631106816513,2064
1631106816517,2065
1631106816521,2065
1631106816525,2065
1631106816529,2066
1631106816533,2067
1631106816537,2069
1631106816541,2070
1631106816545,2071
1631106816549,2073
1631106816553,2074
1631106816557,2075
1631106816561,2075
1631106816565,2075
1631106816569,2076
1631106816573,2076
1631106816577,2076
1631106816581,2077
1631106816585,2078
1631106816589,2078
1631106816593,2078
1631106816597,2078
1631106816601,2077
1631106816605,2075
1631106816609,2074
1631106816613,2072
1631106816617,2070
1631106816621,2068
1631106816625,2066
1631106816629,2064
1631106816633,2062
1631106816637,2060
1631106816641,2058
1631106816645,2056
1631106816649,2054
1631106816653,2053
1631106816657,2051
1631106816661,2051
1631106816665,2050
1631106816669,2050
1631106816673,2049
1631106816677,2048
1631106816681,2048
1631106816685,2048
1631106816689,2047
1631106816693,2047
1631106816697,2047
1631106816701,2047
1631106816705,2047
1631106816709,2048
1631106816713,2048
1631106816717,2048
1631106816721,2048
1631106816725,2048
1631106816729,2048
1631106816733,2047
1631106816737,2047
1631106816741,2048
1631106816745,2048
1631106816749,2048
1631106816753,2048
1631106816757,2048
1631106816761,2048
1631106816765,2048
1631106816769,2048
1631106816773,2048
1631106816777,2048
1631106816781,2048
1631106816785,2048
1631106816789,2048
1631106816793,2049
1631106816797,2048
1631106816801,2048
1631106816805,2048
1631106816809,2048
1631106816813,2048
1631106816817,2048
1631106816821,2048
1631106816825,2048
1631106816829,2048
1631106816833,2048
1631106816837,2048
1631106816841,2048
1631106816845,2048
1631106816849,2048
1631106816853,2048
1631106816857,2047
1631106816861,2047
1631106816865,2048
1631106816869,2048
1631106816873,2048
1631106816877,2048
1631106816881,2048
1631106816885,2048
1631106816889,2047
1631106816893,2047
1631106816897,2047
1631106816901,2047
1631106816905,2048
1631106816909,2048
1631106816913,2048
1631106816917,2047
1631106816921,2047
1631106816925,2047
1631106816929,2047
1631106816933,2047
1631106816937,2047
1631106816941,2047
1631106816945,2048
1631106816949,2048
1631106816953,2048
1631106816957,2048
1631106816961,2048
1631106816965,2047
1631106816969,2047
1631106816973,2047
1631106816977,2047
1631106816981,2047
1631106816985,2047
1631106816989,2048
1631106816993,2048
1631106816997,2048
1631106817001,2047
1631106817005,2047
1631106817009,2047
1631106817013,2046
1631106817017,2046
1631106817021,2047
1631106817025,2047
1631106817029,2047
1631106817033,2047
1631106817037,2047
1631106817041,2046
1631106817045,2046
1631106817049,2046
1631106817053,2046
1631106817057,2046
1631106817061,2046
1631106817065,2047
1631106817069,2047
1631106817073,2047
1631106817077,2048
1631106817081,2048
1631106817085,2047
1631106817089,2047
1631106817093,2047
1631106817097,2047
1631106817101,2048
1631106817105,2048
1631106817109,2048
1631106817113,2048
1631106817117,2048
1631106817121,2048
1631106817125,2048
1631106817129,2048
1631106817133,2048
1631106817137,2048
1631106817141,2048
1631106817145,2049
1631106817149,2049
1631106817153,2049
1631106817157,2049
1631106817161,2048
1631106817165,2048
1631106817169,2048
1631106817173,2048
1631106817177,2048
1631106817181,2048
1631106817185,2048
1631106817189,2048
1631106817193,2048
1631106817197,2048
1631106817201,2048
1631106817205,2048
1631106817209,2047
1631106817213,2047
1631106817217,2047
1631106817221,2047
1631106817225,2047
1631106817229,2048
1631106817233,2048
1631106817237,2048
1631106817241,2048
1631106817245,2048
1631106817249,2048
1631106817253,2048
1631106817257,2049
1631106817261,2051
1631106817265,2052
1631106817269,2053
1631106817273,2053
1631106817277,2052
1631106817281,2051
1631106817285,2050
1631106817289,2049
1631106817293,2049
1631106817297,2049
1631106817301,2049
1631106817305,2048
1631106817309,2048
1631106817313,2047
1631106817317,2047
1631106817321,2047
1631106817325,2047
1631106817329,2046
1631106817333,2046
1631106817337,2046
1631106817341,2046
1631106817345,2047
1631106817349,2047
1631106817353,2047
1631106817357,2046
1631106817361,2045
1631106817365,2044
1631106817369,2042
1631106817373,2041
1631106817377,2041
1631106817381,2045
1631106817385,2052
1631106817389,2066
1631106817393,2087
1631106817397,2111
1631106817401,2134
1631106817405,2147
1631106817409,2144
1631106817413,2123
1631106817417,2090
1631106817421,2056
1631106817425,2033
1631106817429,2022
1631106817433,2022
1631106817437,2029
1631106817441,2036
1631106817445,2040
1631106817449,2041
1631106817453,2042
1631106817457,2043
1631106817461,2043
1631106817465,2044
1631106817469,2044
1631106817473,2044
1631106817477,2045
1631106817481,2045
1631106817485,2045
1631106817489,2045
1631106817493,2045
1631106817497,2045
1631106817501,2046
1631106817505,2047
1631106817509,2047
1631106817513,2048
1631106817517,2048
1631106817521,2048
1631106817525,2048
1631106817529,2048
1631106817533,2049
1631106817537,2049
1631106817541,2050
1631106817545,2051
1631106817549,2051
1631106817553,2052
1631106817557,2052
1631106817561,2052
1631106817565,2052
1631106817569,2053
1631106817573,2054
1631106817577,2055
1631106817581,2056
1631106817585,2058
1631106817589,2060
1631106817593,2061
1631106817597,2062
1631106817601,2062
1631106817605,2062
1631106817609,2062
1631106817613,2063
1631106817617,2064
1631106817621,2066
1631106817625,2068
1631106817629,2069
1631106817633,2070
1631106817637,2070
1631106817641,2071
1631106817645,2071
1631106817649,2072
1631106817653,2072
1631106817657,2071
1631106817661,2071
1631106817665,2070
1631106817669,2069
1631106817673,2069
1631106817677,2067
1631106817681,2066
1631106817685,2064
1631106817689,2061
1631106817693,2059
1631106817697,2057
1631106817701,2055
1631106817705,2054
1631106817709,2052
1631106817713,2051
1631106817717,2048
1631106817721,2047
1631106817725,2045
1631106817729,2043
1631106817733,2042
1631106817737,2041
1631106817741,2041
1631106817745,2041
1631106817749,2041
1631106817753,2040
1631106817757,2040
1631106817761,2039
1631106817765,2039
1631106817769,2038
1631106817773,2038
1631106817777,2039
1631106817781,2039
1631106817785,2040
1631106817789,2040
1631106817793,2041
1631106817797,2041
1631106817801,2041
1631106817805,2040
1631106817809,2040
1631106817813,2040
1631106817817,2041
1631106817821,2041
1631106817825,2042
1631106817829,2042
1631106817833,2042
1631106817837,2043
1631106817841,2043
1631106817845,2043
1631106817849,2043
1631106817853,2043
1631106817857,2043
1631106817861,2043
1631106817865,2044
1631106817869,2044
1631106817873,2044
1631106817877,2044
1631106817881,2043
1631106817885,2043
1631106817889,2043
1631106817893,2043
1631106817897,2043
1631106817901,2043
1631106817905,2044
1631106817909,2044
1631106817913,2045
1631106817917,2045
1631106817921,2044
1631106817925,2044
1631106817929,2043
1631106817933,2043
1631106817937,2043
1631106817941,2044
1631106817945,2044
1631106817949,2044
1631106817953,2044
1631106817957,2044
1631106817961,2043
1631106817965,2043
1631106817969,2042
1631106817973,2042
1631106817977,2042
1631106817981,2043
1631106817985,2043
1631106817989,2044
1631106817993,2044
1631106817997,2044
1631106818001,2044
1631106818005,2043
1631106818009,2043
1631106818013,2043
1631106818017,2043
1631106818021,2044
1631106818025,2045
1631106818029,2045
1631106818033,2045
1631106818037,2045
1631106818041,2045
1631106818045,2044
1631106818049,2044
1631106818053,2045
1631106818057,2044
1631106818061,2045
1631106818065,2045
1631106818069,2045
1631106818073,2045
1631106818077,2045
1631106818081,2045
1631106818085,2045
1631106818089,2044
1631106818093,2044
1631106818097,2045
1631106818101,2046
1631106818105,2047
1631106818109,2047
1631106818113,2047
1631106818117,2047
1631106818121,2046
1631106818125,2046
1631106818129,2045
1631106818133,2045
1631106818137,2046
1631106818141,2046
1631106818145,2046
1631106818149,2047
1631106818153,2047
1631106818157,2047
1631106818161,2047
1631106818165,2047
1631106818169,2046
1631106818173,2046
1631106818177,2046
1631106818181,2046
1631106818185,2047
1631106818189,2047
1631106818193,2048
1631106818197,2048
1631106818201,2048
1631106818205,2047
1631106818209,2047
1631106818213,2047
1631106818217,2047
1631106818221,2047
1631106818225,2048
1631106818229,2048
1631106818233,2048
1631106818237,2048
1631106818241,2048
1631106818245,2048
1631106818249,2049
1631106818253,2050
1631106818257,2051
1631106818261,2052
1631106818265,2052
1631106818269,2052
1631106818273,2052
1631106818277,2051
1631106818281,2051
1631106818285,2050
1631106818289,2049
1631106818293,2048
1631106818297,2048
1631106818301,2047
1631106818305,2047
1631106818309,2048
1631106818313,2048
1631106818317,2048
1631106818321,2048
1631106818325,2047
1631106818329,2047
1631106818333,2047
1631106818337,2047
1631106818341,2048
1631106818345,2048
1631106818349,2047
1631106818353,2046
1631106818357,2044
1631106818361,2043
1631106818365,2045
1631106818369,2049
1631106818373,2059
1631106818377,2075
1631106818381,2097
1631106818385,2122
1631106818389,2143
1631106818393,2152
1631106818397,2143
1631106818401,2117
1631106818405,2081
1631106818409,2048
1631106818413,2027
1631106818417,2020
1631106818421,2023
1631106818425,2032
1631106818429,2039
1631106818433,2042
1631106818437,2044
1631106818441,2046
1631106818445,2046
1631106818449,2047
1631106818453,2047
1631106818457,2048
1631106818461,2048
1631106818465,2048
1631106818469,2049
1631106818473,2049
1631106818477,2050
1631106818481,2050
1631106818485,2051
1631106818489,2050
1631106818493,2050
1631106818497,2050
1631106818501,2051
1631106818505,2052
1631106818509,2052
1631106818513,2053
1631106818517,2053
1631106818521,2053
1631106818525,2053
1631106818529,2054
1631106818533,2054
1631106818537,2055
1631106818541,2056
1631106818545,2057
1631106818549,2058
1631106818553,2059
1631106818557,2060
1631106818561,2060
1631106818565,2061
1631106818569,2061
1631106818573,2062
1631106818577,2063
1631106818581,2064
1631106818585,2065
1631106818589,2066
1631106818593,2068
1631106818597,2069
1631106818601,2070
1631106818605,2071
1631106818609,2072
1631106818613,2072
1631106818617,2073
1631106818621,2074
1631106818625,2075
1631106818629,2076
1631106818633,2077
1631106818637,2077
1631106818641,2077
1631106818645,2076
1631106818649,2075
1631106818653,2074
1631106818657,2073
1631106818661,2072
1631106818665,2071
1631106818669,2069
1631106818673,2067
1631106818677,2064
1631106818681,2062
1631106818685,2059
1631106818689,2056
1631106818693,2054
1631106818697,2053
1631106818701,2052
1631106818705,2051
1631106818709,2049
1631106818713,2048
1631106818717,2048
1631106818721,2046
1631106818725,2045
1631106818729,2044
1631106818733,2043
1631106818737,2043
1631106818741,2043
1631106818745,2044
1631106818749,2044
1631106818753,2044
1631106818757,2044
1631106818761,2043
1631106818765,2042
1631106818769,2042
1631106818773,2042
1631106818777,2042
1631106818781,2043
1631106818785,2043
1631106818789,2043
1631106818793,2044
1631106818797,2044
1631106818801,2044
1631106818805,2044
1631106818809,2044
1631106818813,2044
1631106818817,2044
1631106818821,2044
1631106818825,2045
1631106818829,2045
1631106818833,2045
1631106818837,2045
1631106818841,2045
1631106818845,2044
1631106818849,2044
1631106818853,2044
1631106818857,2044
1631106818861,2044
1631106818865,2045
1631106818869,2045
1631106818873,2046
1631106818877,2046
1631106818881,2045
1631106818885,2044
1631106818889,2044
1631106818893,2044
1631106818897,2044
1631106818901,2044
1631106818905,2045
1631106818909,2046
1631106818913,2046
1631106818917,2046
1631106818921,2045
1631106818925,2044
1631106818929,2044
1631106818933,2044
1631106818937,2044
1631106818941,2045
1631106818945,2045
1631106818949,2046
1631106818953,2045
1631106818957,2045
1631106818961,2044
1631106818965,2044
1631106818969,2044
1631106818973,2044
1631106818977,2045
1631106818981,2045
1631106818985,2046
1631106818989,2046
1631106818993,2046
1631106818997,2046
1631106819001,2045
1631106819005,2045
1631106819009,2045
1631106819013,2045
1631106819017,2045
1631106819021,2045
1631106819025,2046
1631106819029,2046
1631106819033,2046
1631106819037,2046
1631106819041,2046
1631106819045,2046
1631106819049,2046
1631106819053,2045
1631106819057,2046
1631106819061,2046
1631106819065,2046
1631106819069,2047
1631106819073,2047
1631106819077,2047
1631106819081,2046
1631106819085,2046
1631106819089,2045
1631106819093,2045
1631106819097,2046
1631106819101,2047
1631106819105,2048
1631106819109,2048
1631106819113,2048
1631106819117,2048
1631106819121,2047
1631106819125,2047
1631106819129,2047
1631106819133,2047
1631106819137,2048
1631106819141,2048
1631106819145,2048
1631106819149,2048
1631106819153,2048
1631106819157,2048
1631106819161,2047
1631106819165,2047
1631106819169,2047
1631106819173,2048
1631106819177,2048
1631106819181,2048
1631106819185,2048
1631106819189,2048
1631106819193,2048
1631106819197,2047
1631106819201,2047
1631106819205,2046
1631106819209,2046
1631106819213,2046
1631106819217,2047
1631106819221,2047
1631106819225,2048
1631106819229,2048
1631106819233,2048
1631106819237,2048
1631106819241,2048
1631106819245,2048
1631106819249,2049
1631106819253,2049
1631106819257,2051
1631106819261,2052
1631106819265,2053
1631106819269,2053
1631106819273,2053
1631106819277,2052
1631106819281,2052
1631106819285,2052
1631106819289,2052
1631106819293,2051
1631106819297,2050
1631106819301,2049
1631106819305,2049
1631106819309,2048
1631106819313,2049
1631106819317,2048
1631106819321,2048
1631106819325,2048
1631106819329,2048
1631106819333,2048
1631106819337,2048
1631106819341,2048
1631106819345,2049
1631106819349,2049
1631106819353,2049
1631106819357,2048
1631106819361,2047
1631106819365,2044
1631106819369,2043
1631106819373,2046
1631106819377,2052
1631106819381,2065
1631106819385,2084
1631106819389,2109
1631106819393,2133
1631106819397,2150
1631106819401,2153
1631106819405,2138
1631106819409,2109
1631106819413,2074
1631106819417,2046
1631106819421,2029
1631106819425,2025
1631106819429,2029
1631106819433,2037
1631106819437,2043
1631106819441,2045
1631106819445,2047
1631106819449,2048
1631106819453,2048
1631106819457,2048
1631106819461,2048
1631106819465,2048
1631106819469,2048
1631106819473,2048
1631106819477,2049
1631106819481,2049
1631106819485,2049
1631106819489,2049
1631106819493,2049
1631106819497,2050
1631106819501,2050
1631106819505,2051
1631106819509,2052
1631106819513,2052
1631106819517,2052
1631106819521,2052
1631106819525,2052
1631106819529,2052
1631106819533,2053
1631106819537,2054
1631106819541,2054
1631106819545,2055
1631106819549,2056
1631106819553,2057
1631106819557,2057
1631106819561,2058
1631106819565,2058
1631106819569,2058
1631106819573,2058
1631106819577,2059
1631106819581,2060
1631106819585,2061
1631106819589,2063
1631106819593,2064
1631106819597,2065
1631106819601,2066
1631106819605,2066
1631106819609,2067
1631106819613,2068
1631106819617,2069
1631106819621,2070
1631106819625,2071
1631106819629,2072
1631106819633,2073
1631106819637,2073
1631106819641,2073
1631106819645,2073
1631106819649,2073
1631106819653,2073
1631106819657,2073
1631106819661,2073
1631106819665,2072
1631106819669,2071
1631106819673,2070
1631106819677,2068
1631106819681,2066
1631106819685,2064
1631106819689,2061
1631106819693,2059
1631106819697,2057
1631106819701,2056
1631106819705,2055
1631106819709,2054
1631106819713,2052
1631106819717,2051
1631106819721,2049
1631106819725,2048
1631106819729,2048
1631106819733,2047
1631106819737,2046
1631106819741,2046
1631106819745,2046
1631106819749,2046
1631106819753,2046
1631106819757,2046
1631106819761,2046
1631106819765,2045
1631106819769,2045
1631106819773,2045
1631106819777,2045
1631106819781,2045
1631106819785,2045
1631106819789,2046
1631106819793,2046
1631106819797,2046
1631106819801,2046
1631106819805,2046
1631106819809,2046
1631106819813,2046
1631106819817,2046
1631106819821,2047
1631106819825,2048
1631106819829,2048
1631106819833,2048
1631106819837,2048
1631106819841,2048
1631106819845,2047
1631106819849,2047
1631106819853,2048
1631106819857,2048
1631106819861,2048
1631106819865,2049
1631106819869,2049
1631106819873,2050
1631106819877,2050
1631106819881,2050
1631106819885,2049
1631106819889,2048
1631106819893,2048
1631106819897,2048
1631106819901,2048
1631106819905,2048
1631106819909,2049
1631106819913,2049
1631106819917,2049
1631106819921,2048
1631106819925,2048
1631106819929,2048
1631106819933,2048
1631106819937,2048
1631106819941,2048
1631106819945,2048
1631106819949,2048
1631106819953,2049
1631106819957,2049
1631106819961,2048
1631106819965,2048
1631106819969,2048
1631106819973,2048
1631106819977,2048
1631106819981,2048
1631106819985,2048
1631106819989,2049
1631106819993,2049
1631106819997,2049
1631106820001,2049
1631106820005,2048
1631106820009,2048
1631106820013,2048
1631106820017,2048
1631106820021,2048
1631106820025,2049
1631106820029,2049
1631106820033,2049
1631106820037,2049
1631106820041,2048
1631106820045,2048
1631106820049,2048
1631106820053,2048
1631106820057,2049
1631106820061,2049
1631106820065,2050
1631106820069,2050
1631106820073,2050
1631106820077,2050
1631106820081,2050
1631106820085,2050
1631106820089,2050
1631106820093,2049
1631106820097,2049
1631106820101,2050
1631106820105,2050
1631106820109,2050
1631106820113,2050
1631106820117,2050
1631106820121,2050
1631106820125,2049
1631106820129,2049
1631106820133,2049
1631106820137,2050
1631106820141,2050
1631106820145,2051
1631106820149,2052
1631106820153,2052
1631106820157,2052
1631106820161,2051
1631106820165,2051
1631106820169,2050
1631106820173,2050
1631106820177,2051
1631106820181,2051
1631106820185,2052
1631106820189,2052
1631106820193,2053
1631106820197,2053
1631106820201,2053
1631106820205,2052
1631106820209,2052
1631106820213,2052
1631106820217,2052
1631106820221,2053
1631106820225,2053
1631106820229,2053
1631106820233,2053
1631106820237,2053
1631106820241,2053
1631106820245,2053
1631106820249,2052
1631106820253,2052
1631106820257,2052
1631106820261,2052
1631106820265,2052
1631106820269,2053
1631106820273,2053
1631106820277,2053
1631106820281,2053
1631106820285,2053
1631106820289,2053
1631106820293,2054
1631106820297,2054
1631106820301,2056
1631106820305,2057
1631106820309,2059
1631106820313,2059
1631106820317,2059
1631106820321,2058
1631106820325,2057
1631106820329,2056
1631106820333,2056
1631106820337,2056
1631106820341,2055
1631106820345,2055
1631106820349,2054
1631106820353,2053
1631106820357,2052
1631106820361,2051
1631106820365,2051
1631106820369,2051
1631106820373,2051
1631106820377,2051
1631106820381,2052
1631106820385,2052
1631106820389,2053
1631106820393,2053
1631106820397,2053
1631106820401,2052
1631106820405,2051
1631106820409,2049
1631106820413,2048
1631106820417,2048
1631106820421,2048
1631106820425,2053
1631106820429,2064
1631106820433,2079
1631106820437,2101
1631106820441,2126
1631106820445,2146
1631106820449,2155
1631106820453,2147
1631106820457,2123
1631106820461,2091
1631106820465,2058
1631106820469,2038
1631106820473,2029
1631106820477,2030
1631106820481,2037
1631106820485,2043
1631106820489,2046
1631106820493,2048
1631106820497,2048
1631106820501,2050
1631106820505,2051
1631106820509,2051
1631106820513,2052
1631106820517,2052
1631106820521,2051
1631106820525,2051
1631106820529,2051
1631106820533,2052
1631106820537,2052
1631106820541,2053
1631106820545,2054
1631106820549,2055
1631106820553,2055
1631106820557,2056
1631106820561,2056
1631106820565,2055
1631106820569,2055
1631106820573,2056
1631106820577,2056
1631106820581,2057
1631106820585,2057
1631106820589,2058
1631106820593,2059
1631106820597,2059
1631106820601,2059
1631106820605,2059
1631106820609,2059
1631106820613,2059
1631106820617,2060
1631106820621,2061
1631106820625,2062
1631106820629,2063
1631106820633,2064
1631106820637,2065
1631106820641,2066
1631106820645,2066
1631106820649,2067
1631106820653,2069
1631106820657,2070
1631106820661,2071
1631106820665,2072
1631106820669,2074
1631106820673,2075
1631106820677,2076
1631106820681,2077
1631106820685,2077
1631106820689,2077
1631106820693,2078
1631106820697,2078
1631106820701,2078
1631106820705,2079
1631106820709,2078
1631106820713,2078
1631106820717,2077
1631106820721,2076
1631106820725,2074
1631106820729,2072
1631106820733,2070
1631106820737,2068
1631106820741,2066
1631106820745,2064
1631106820749,2062
1631106820753,2060
1631106820757,2059
1631106820761,2057
1631106820765,2055
1631106820769,2053
1631106820773,2052
1631106820777,2051
1631106820781,2050
1631106820785,2050
1631106820789,2050
1631106820793,2049
1631106820797,2049
1631106820801,2048
1631106820805,2048
1631106820809,2048
1631106820813,2048
1631106820817,2048
1631106820821,2048
1631106820825,2048
1631106820829,2048
1631106820833,2048
1631106820837,2048
1631106820841,2048
1631106820845,2048
1631106820849,2048
1631106820853,2048
1631106820857,2048
1631106820861,2048
1631106820865,2049
1631106820869,2050
1631106820873,2050
1631106820877,2050
1631106820881,2050
1631106820885,2050
1631106820889,2050
1631106820893,2049
1631106820897,2050
1631106820901,2050
1631106820905,2051
1631106820909,2051
1631106820913,2052
1631106820917,2052
1631106820921,2052
1631106820925,2051
1631106820929,2051
1631106820933,2050
1631106820937,2050
1631106820941,2051
1631106820945,2052
1631106820949,2052
1631106820953,2052
1631106820957,2052
1631106820961,2052
1631106820965,2052
1631106820969,2051
1631106820973,2051
1631106820977,2051
1631106820981,2052
1631106820985,2052
1631106820989,2052
1631106820993,2052
1631106820997,2052
1631106821001,2052
1631106821005,2051
1631106821009,2051
1631106821013,2050
1631106821017,2050
1631106821021,2051
1631106821025,2051
1631106821029,2052
1631106821033,2052
1631106821037,2052
1631106821041,2051
1631106821045,2050
1631106821049,2050
1631106821053,2050
1631106821057,2050
1631106821061,2051
1631106821065,2052
1631106821069,2053
1631106821073,2053
1631106821077,2052
1631106821081,2052
1631106821085,2051
1631106821089,2051
1631106821093,2052
1631106821097,2052
1631106821101,2053
1631106821105,2053
1631106821109,2053
1631106821113,2052
1631106821117,2052
1631106821121,2052
1631106821125,2051
1631106821129,2051
1631106821133,2052
1631106821137,2052
1631106821141,2053
1631106821145,2053
1631106821149,2053
1631106821153,2053
1631106821157,2052
1631106821161,2052
1631106821165,2052
1631106821169,2052
1631106821173,2052
1631106821177,2053
1631106821181,2053
1631106821185,2053
1631106821189,2053
1631106821193,2053
1631106821197,2052
1631106821201,2052
1631106821205,2052
1631106821209,2052
1631106821213,2053
1631106821217,2053
1631106821221,2054
1631106821225,2054
1631106821229,2055
1631106821233,2054
1631106821237,2054
1631106821241,2054
1631106821245,2053
1631106821249,2053
1631106821253,2053
1631106821257,2052
1631106821261,2052
1631106821265,2052
1631106821269,2053
1631106821273,2053
1631106821277,2053
1631106821281,2053
1631106821285,2053
1631106821289,2052
1631106821293,2052
1631106821297,2052
1631106821301,2053
1631106821305,2053
1631106821309,2053
1631106821313,2053
1631106821317,2052
1631106821321,2052
1631106821325,2051
1631106821329,2051
1631106821333,2052
1631106821337,2053
1631106821341,2054
1631106821345,2055
1631106821349,2056
1631106821353,2056
1631106821357,2057
1631106821361,2057
1631106821365,2057
1631106821369,2057
1631106821373,2056
1631106821377,2056
1631106821381,2056
1631106821385,2056
1631106821389,2056
1631106821393,2056
1631106821397,2055
1631106821401,2054
1631106821405,2053
1631106821409,2053
1631106821413,2052
1631106821417,2052
1631106821421,2052
