timestamp,ecg_waveform
1631021159147,2051
1631021159151,2052
1631021159155,2053
1631021159159,2054
1631021159163,2055
1631021159167,2056
1631021159171,2057
1631021159175,2058
1631021159179,2060
1631021159183,2062
1631021159187,2064
1631021159191,2066
1631021159195,2068
1631021159199,2069
1631021159203,2071
1631021159207,2072
1631021159211,2074
1631021159215,2077
1631021159219,2080
1631021159223,2083
1631021159227,2087
1631021159231,2090
1631021159235,2093
1631021159239,2095
1631021159243,2098
1631021159247,2101
1631021159251,2104
1631021159255,2108
1631021159259,2111
1631021159263,2115
1631021159267,2118
1631021159271,2121
1631021159275,2123
1631021159279,2124
1631021159283,2124
1631021159287,2124
1631021159291,2124
1631021159295,2122
1631021159299,2120
1631021159303,2116
1631021159307,2110
1631021159311,2103
1631021159315,2095
1631021159319,2087
1631021159323,2080
1631021159327,2072
1631021159331,2066
1631021159335,2060
1631021159339,2056
1631021159343,2052
1631021159347,2049
1631021159351,2047
1631021159355,2045
1631021159359,2042
1631021159363,2040
1631021159367,2039
1631021159371,2039
1631021159375,2039
1631021159379,2039
1631021159383,2039
1631021159387,2039
1631021159391,2039
1631021159395,2039
1631021159399,2039
1631021159403,2038
1631021159407,2038
1631021159411,2038
1631021159415,2038
1631021159419,2039
1631021159423,2040
1631021159427,2041
1631021159431,2041
1631021159435,2041
1631021159439,2041
1631021159443,2041
1631021159447,2041
1631021159451,2041
1631021159455,2041
1631021159459,2041
1631021159463,2041
1631021159467,2042
1631021159471,2042
1631021159475,2042
1631021159479,2041
1631021159483,2041
1631021159487,2041
1631021159491,2040
1631021159495,2040
1631021159499,2040
1631021159503,2040
1631021159507,2040
1631021159511,2040
1631021159515,2040
1631021159519,2040
1631021159523,2039
1631021159527,2039
1631021159531,2038
1631021159535,2038
1631021159539,2038
1631021159543,2038
1631021159547,2039
1631021159551,2039
1631021159555,2039
1631021159559,2039
1631021159563,2038
1631021159567,2037
1631021159571,2037
1631021159575,2037
1631021159579,2038
1631021159583,2038
1631021159587,2039
1631021159591,2039
1631021159595,2039
1631021159599,2039
1631021159603,2039
1631021159607,2038
1631021159611,2038
1631021159615,2038
1631021159619,2038
1631021159623,2039
1631021159627,2039
1631021159631,2039
1631021159635,2039
1631021159639,2039
1631021159643,2039
1631021159647,2039
1631021159651,2039
1631021159655,2039
1631021159659,2038
1631021159663,2039
1631021159667,2039
1631021159671,2041
1631021159675,2043
1631021159679,2046
1631021159683,2048
1631021159687,2050
1631021159691,2051
1631021159695,2051
1631021159699,2050
1631021159703,2049
1631021159707,2048
1631021159711,2048
1631021159715,2046
1631021159719,2043
1631021159723,2040
1631021159727,2038
1631021159731,2036
1631021159735,2035
1631021159739,2035
1631021159743,2036
1631021159747,2037
1631021159751,2038
1631021159755,2038
1631021159759,2039
1631021159763,2040
1631021159767,2039
1631021159771,2037
1631021159775,2032
1631021159779,2027
1631021159783,2027
1631021159787,2039
1631021159791,2074
1631021159795,2135
1631021159799,2198
1631021159803,2236
1631021159807,2226
1631021159811,2165
1631021159815,2077
1631021159819,1999
1631021159823,1955
1631021159827,1955
1631021159831,1981
1631021159835,2012
1631021159839,2034
1631021159843,2042
1631021159847,2042
1631021159851,2043
1631021159855,2041
1631021159859,2040
1631021159863,2040
1631021159867,2041
1631021159871,2043
1631021159875,2044
1631021159879,2045
1631021159883,2045
1631021159887,2045
1631021159891,2045
1631021159895,2046
1631021159899,2047
1631021159903,2048
1631021159907,2049
1631021159911,2050
1631021159915,2051
1631021159919,2053
1631021159923,2053
1631021159927,2054
1631021159931,2056
1631021159935,2057
1631021159939,2058
1631021159943,2060
1631021159947,2062
1631021159951,2064
1631021159955,2066
1631021159959,2068
1631021159963,2070
1631021159967,2072
1631021159971,2074
1631021159975,2077
1631021159979,2080
1631021159983,2083
1631021159987,2086
1631021159991,2090
1631021159995,2093
1631021159999,2096
1631021160003,2099
1631021160007,2102
1631021160011,2106
1631021160015,2109
1631021160019,2111
1631021160023,2114
1631021160027,2116
1631021160031,2118
1631021160035,2119
1631021160039,2119
1631021160043,2118
1631021160047,2116
1631021160051,2113
1631021160055,2108
1631021160059,2103
1631021160063,2096
1631021160067,2089
1631021160071,2082
1631021160075,2074
1631021160079,2067
1631021160083,2060
1631021160087,2054
1631021160091,2049
1631021160095,2046
1631021160099,2043
1631021160103,2041
1631021160107,2039
1631021160111,2037
1631021160115,2035
1631021160119,2033
1631021160123,2033
1631021160127,2032
1631021160131,2031
1631021160135,2031
1631021160139,2031
1631021160143,2032
1631021160147,2032
1631021160151,2032
1631021160155,2032
1631021160159,2032
1631021160163,2032
1631021160167,2031
1631021160171,2032
1631021160175,2033
1631021160179,2033
1631021160183,2034
1631021160187,2035
1631021160191,2035
1631021160195,2034
1631021160199,2034
1631021160203,2034
1631021160207,2033
1631021160211,2034
1631021160215,2034
1631021160219,2034
1631021160223,2035
1631021160227,2035
1631021160231,2035
1631021160235,2035
1631021160239,2035
1631021160243,2035
1631021160247,2034
1631021160251,2034
1631021160255,2034
1631021160259,2034
1631021160263,2034
1631021160267,2033
1631021160271,2033
1631021160275,2032
1631021160279,2032
1631021160283,2032
1631021160287,2032
1631021160291,2033
1631021160295,2033
1631021160299,2033
1631021160303,2033
1631021160307,2034
1631021160311,2034
1631021160315,2034
1631021160319,2033
1631021160323,2033
1631021160327,2032
1631021160331,2031
1631021160335,2032
1631021160339,2032
1631021160343,2033
1631021160347,2034
1631021160351,2034
1631021160355,2034
1631021160359,2033
1631021160363,2033
1631021160367,2033
1631021160371,2033
1631021160375,2034
1631021160379,2034
1631021160383,2035
1631021160387,2035
1631021160391,2035
1631021160395,2034
1631021160399,2034
1631021160403,2034
1631021160407,2036
1631021160411,2039
1631021160415,2042
1631021160419,2045
1631021160423,2048
1631021160427,2048
1631021160431,2048
1631021160435,2047
1631021160439,2045
1631021160443,2044
1631021160447,2041
1631021160451,2038
1631021160455,2035
1631021160459,2033
1631021160463,2031
1631021160467,2031
1631021160471,2031
1631021160475,2032
1631021160479,2032
1631021160483,2032
1631021160487,2032
1631021160491,2033
1631021160495,2034
1631021160499,2034
1631021160503,2034
1631021160507,2031
1631021160511,2025
1631021160515,2021
1631021160519,2026
1631021160523,2050
1631021160527,2104
1631021160531,2172
1631021160535,2225
1631021160539,2236
1631021160543,2193
1631021160547,2110
1631021160551,2023
1631021160555,1962
1631021160559,1945
1631021160563,1962
1631021160567,1992
1631021160571,2018
1631021160575,2032
1631021160579,2034
1631021160583,2036
1631021160587,2038
1631021160591,2037
1631021160595,2036
1631021160599,2036
1631021160603,2037
1631021160607,2038
1631021160611,2038
1631021160615,2038
1631021160619,2039
1631021160623,2041
1631021160627,2042
1631021160631,2043
1631021160635,2044
1631021160639,2045
1631021160643,2045
1631021160647,2046
1631021160651,2047
1631021160655,2048
1631021160659,2050
1631021160663,2051
1631021160667,2053
1631021160671,2055
1631021160675,2057
1631021160679,2059
1631021160683,2060
1631021160687,2061
1631021160691,2063
1631021160695,2064
1631021160699,2067
1631021160703,2070
1631021160707,2074
1631021160711,2078
1631021160715,2081
1631021160719,2084
1631021160723,2087
1631021160727,2089
1631021160731,2092
1631021160735,2096
1631021160739,2099
1631021160743,2102
1631021160747,2106
1631021160751,2109
1631021160755,2112
1631021160759,2114
1631021160763,2116
1631021160767,2117
1631021160771,2117
1631021160775,2117
1631021160779,2116
1631021160783,2114
1631021160787,2110
1631021160791,2105
1631021160795,2097
1631021160799,2089
1631021160803,2081
1631021160807,2072
1631021160811,2065
1631021160815,2058
1631021160819,2052
1631021160823,2048
1631021160827,2044
1631021160831,2040
1631021160835,2037
1631021160839,2035
1631021160843,2032
1631021160847,2030
1631021160851,2029
1631021160855,2028
1631021160859,2027
1631021160863,2028
1631021160867,2028
1631021160871,2028
1631021160875,2028
1631021160879,2028
1631021160883,2028
1631021160887,2028
1631021160891,2027
1631021160895,2027
1631021160899,2028
1631021160903,2029
1631021160907,2029
1631021160911,2030
1631021160915,2030
1631021160919,2030
1631021160923,2030
1631021160927,2030
1631021160931,2031
1631021160935,2031
1631021160939,2032
1631021160943,2032
1631021160947,2033
1631021160951,2033
1631021160955,2033
1631021160959,2032
1631021160963,2032
1631021160967,2031
1631021160971,2031
1631021160975,2031
1631021160979,2030
1631021160983,2030
1631021160987,2030
1631021160991,2031
1631021160995,2031
1631021160999,2031
1631021161003,2031
1631021161007,2030
1631021161011,2029
1631021161015,2029
1631021161019,2030
1631021161023,2030
1631021161027,2030
1631021161031,2031
1631021161035,2031
1631021161039,2030
1631021161043,2030
1631021161047,2030
1631021161051,2030
1631021161055,2030
1631021161059,2030
1631021161063,2030
1631021161067,2031
1631021161071,2031
1631021161075,2032
1631021161079,2032
1631021161083,2031
1631021161087,2031
1631021161091,2031
1631021161095,2031
1631021161099,2031
1631021161103,2032
1631021161107,2032
1631021161111,2033
1631021161115,2035
1631021161119,2037
1631021161123,2039
1631021161127,2042
1631021161131,2044
1631021161135,2046
1631021161139,2046
1631021161143,2046
1631021161147,2045
1631021161151,2044
1631021161155,2042
1631021161159,2039
1631021161163,2037
1631021161167,2034
1631021161171,2032
1631021161175,2031
1631021161179,2031
1631021161183,2032
1631021161187,2033
1631021161191,2034
1631021161195,2034
1631021161199,2035
1631021161203,2036
1631021161207,2036
1631021161211,2036
1631021161215,2033
1631021161219,2027
1631021161223,2021
1631021161227,2023
1631021161231,2041
1631021161235,2087
1631021161239,2153
1631021161243,2211
1631021161247,2234
1631021161251,2204
1631021161255,2129
1631021161259,2042
1631021161263,1974
1631021161267,1947
1631021161271,1959
1631021161275,1989
1631021161279,2018
1631021161283,2036
1631021161287,2040
1631021161291,2041
1631021161295,2042
1631021161299,2041
1631021161303,2040
1631021161307,2040
1631021161311,2041
1631021161315,2043
1631021161319,2044
1631021161323,2044
1631021161327,2045
1631021161331,2045
1631021161335,2046
1631021161339,2047
1631021161343,2048
1631021161347,2049
1631021161351,2050
1631021161355,2052
1631021161359,2053
1631021161363,2054
1631021161367,2055
1631021161371,2056
1631021161375,2056
1631021161379,2058
1631021161383,2059
1631021161387,2061
1631021161391,2064
1631021161395,2066
1631021161399,2068
1631021161403,2070
1631021161407,2072
1631021161411,2074
1631021161415,2077
1631021161419,2079
1631021161423,2083
1631021161427,2086
1631021161431,2089
1631021161435,2093
1631021161439,2097
1631021161443,2100
1631021161447,2104
1631021161451,2107
1631021161455,2109
1631021161459,2112
1631021161463,2114
1631021161467,2117
1631021161471,2119
1631021161475,2120
1631021161479,2121
1631021161483,2120
1631021161487,2118
1631021161491,2115
1631021161495,2111
1631021161499,2105
1631021161503,2099
1631021161507,2091
1631021161511,2083
1631021161515,2076
1631021161519,2069
1631021161523,2062
1631021161527,2056
1631021161531,2051
1631021161535,2047
1631021161539,2043
1631021161543,2040
1631021161547,2038
1631021161551,2037
1631021161555,2035
1631021161559,2034
1631021161563,2033
1631021161567,2032
1631021161571,2032
1631021161575,2032
1631021161579,2032
1631021161583,2032
1631021161587,2032
1631021161591,2033
1631021161595,2033
1631021161599,2033
1631021161603,2033
1631021161607,2033
1631021161611,2033
1631021161615,2034
1631021161619,2034
1631021161623,2034
1631021161627,2035
1631021161631,2035
1631021161635,2036
1631021161639,2036
1631021161643,2036
1631021161647,2036
1631021161651,2036
1631021161655,2036
1631021161659,2036
1631021161663,2037
1631021161667,2037
1631021161671,2037
1631021161675,2037
1631021161679,2037
1631021161683,2036
1631021161687,2035
1631021161691,2035
1631021161695,2034
1631021161699,2034
1631021161703,2034
1631021161707,2034
1631021161711,2034
1631021161715,2034
1631021161719,2034
1631021161723,2034
1631021161727,2034
1631021161731,2034
1631021161735,2033
1631021161739,2033
1631021161743,2033
1631021161747,2034
1631021161751,2034
1631021161755,2034
1631021161759,2034
1631021161763,2034
1631021161767,2033
1631021161771,2033
1631021161775,2034
1631021161779,2034
1631021161783,2034
1631021161787,2033
1631021161791,2033
1631021161795,2034
1631021161799,2036
1631021161803,2038
1631021161807,2041
1631021161811,2044
1631021161815,2046
1631021161819,2048
1631021161823,2048
1631021161827,2047
1631021161831,2046
1631021161835,2044
1631021161839,2041
1631021161843,2039
1631021161847,2037
1631021161851,2034
1631021161855,2033
1631021161859,2032
1631021161863,2033
1631021161867,2034
1631021161871,2035
1631021161875,2035
1631021161879,2035
1631021161883,2036
1631021161887,2037
1631021161891,2037
1631021161895,2036
1631021161899,2031
1631021161903,2026
1631021161907,2023
1631021161911,2032
1631021161915,2063
1631021161919,2122
1631021161923,2187
1631021161927,2231
1631021161931,2229
1631021161935,2174
1631021161939,2087
1631021161943,2004
1631021161947,1954
1631021161951,1949
1631021161955,1973
1631021161959,2006
1631021161963,2030
1631021161967,2040
1631021161971,2040
1631021161975,2041
1631021161979,2041
1631021161983,2040
1631021161987,2040
1631021161991,2041
1631021161995,2043
1631021161999,2043
1631021162003,2043
1631021162007,2043
1631021162011,2044
1631021162015,2045
1631021162019,2046
1631021162023,2048
1631021162027,2049
1631021162031,2050
1631021162035,2051
1631021162039,2052
1631021162043,2053
1631021162047,2054
1631021162051,2055
1631021162055,2056
1631021162059,2057
1631021162063,2059
1631021162067,2061
1631021162071,2064
1631021162075,2066
1631021162079,2068
1631021162083,2069
1631021162087,2071
1631021162091,2074
1631021162095,2076
1631021162099,2079
1631021162103,2083
1631021162107,2086
1631021162111,2089
1631021162115,2092
1631021162119,2095
1631021162123,2099
1631021162127,2102
1631021162131,2105
1631021162135,2108
1631021162139,2111
1631021162143,2113
1631021162147,2116
1631021162151,2118
1631021162155,2120
1631021162159,2121
1631021162163,2121
1631021162167,2120
1631021162171,2117
1631021162175,2113
1631021162179,2107
1631021162183,2101
1631021162187,2094
1631021162191,2086
1631021162195,2079
1631021162199,2072
1631021162203,2065
1631021162207,2059
1631021162211,2053
1631021162215,2049
1631021162219,2046
1631021162223,2044
1631021162227,2041
1631021162231,2040
1631021162235,2038
1631021162239,2037
1631021162243,2036
1631021162247,2034
1631021162251,2034
1631021162255,2034
1631021162259,2035
1631021162263,2035
1631021162267,2035
1631021162271,2036
1631021162275,2036
1631021162279,2036
1631021162283,2036
1631021162287,2036
1631021162291,2035
1631021162295,2036
1631021162299,2036
1631021162303,2036
1631021162307,2037
1631021162311,2037
1631021162315,2037
1631021162319,2037
1631021162323,2037
1631021162327,2037
1631021162331,2037
1631021162335,2038
1631021162339,2038
1631021162343,2038
1631021162347,2038
1631021162351,2038
1631021162355,2038
1631021162359,2039
1631021162363,2038
1631021162367,2037
1631021162371,2037
1631021162375,2037
1631021162379,2037
1631021162383,2037
1631021162387,2037
1631021162391,2038
1631021162395,2037
1631021162399,2037
1631021162403,2036
1631021162407,2036
1631021162411,2036
1631021162415,2036
1631021162419,2036
1631021162423,2036
1631021162427,2036
1631021162431,2037
1631021162435,2036
1631021162439,2036
1631021162443,2036
1631021162447,2035
1631021162451,2035
1631021162455,2036
1631021162459,2038
1631021162463,2040
1631021162467,2044
1631021162471,2047
1631021162475,2048
1631021162479,2050
1631021162483,2050
1631021162487,2048
1631021162491,2047
1631021162495,2045
1631021162499,2043
1631021162503,2041
1631021162507,2039
1631021162511,2037
1631021162515,2035
1631021162519,2034
1631021162523,2033
1631021162527,2033
1631021162531,2033
1631021162535,2034
1631021162539,2034
1631021162543,2035
1631021162547,2036
1631021162551,2037
1631021162555,2037
1631021162559,2034
1631021162563,2028
1631021162567,2021
1631021162571,2022
1631021162575,2038
1631021162579,2081
1631021162583,2146
1631021162587,2207
1631021162591,2234
1631021162595,2209
1631021162599,2137
1631021162603,2048
1631021162607,1977
1631021162611,1947
1631021162615,1957
1631021162619,1987
1631021162623,2017
1631021162627,2036
1631021162631,2040
1631021162635,2040
1631021162639,2041
1631021162643,2040
1631021162647,2039
1631021162651,2039
1631021162655,2041
1631021162659,2042
1631021162663,2043
1631021162667,2044
1631021162671,2044
1631021162675,2045
1631021162679,2046
1631021162683,2047
1631021162687,2047
1631021162691,2048
1631021162695,2048
1631021162699,2049
1631021162703,2050
1631021162707,2052
1631021162711,2053
1631021162715,2054
1631021162719,2056
1631021162723,2057
1631021162727,2058
1631021162731,2059
1631021162735,2061
1631021162739,2063
1631021162743,2066
1631021162747,2069
1631021162751,2071
1631021162755,2074
1631021162759,2077
1631021162763,2079
1631021162767,2081
1631021162771,2084
1631021162775,2087
1631021162779,2091
1631021162783,2095
1631021162787,2099
1631021162791,2102
1631021162795,2105
1631021162799,2108
1631021162803,2110
1631021162807,2112
1631021162811,2114
1631021162815,2115
1631021162819,2116
1631021162823,2117
1631021162827,2117
1631021162831,2116
1631021162835,2113
1631021162839,2108
1631021162843,2101
1631021162847,2093
1631021162851,2085
1631021162855,2078
1631021162859,2071
1631021162863,2065
1631021162867,2059
1631021162871,2053
1631021162875,2049
1631021162879,2046
1631021162883,2042
1631021162887,2039
1631021162891,2037
1631021162895,2035
1631021162899,2034
1631021162903,2034
1631021162907,2035
1631021162911,2034
1631021162915,2034
1631021162919,2033
1631021162923,2033
1631021162927,2032
1631021162931,2032
1631021162935,2032
1631021162939,2032
1631021162943,2032
1631021162947,2033
1631021162951,2034
1631021162955,2035
1631021162959,2035
1631021162963,2035
1631021162967,2034
1631021162971,2034
1631021162975,2034
1631021162979,2035
1631021162983,2035
1631021162987,2035
1631021162991,2036
1631021162995,2036
1631021162999,2036
1631021163003,2036
1631021163007,2036
1631021163011,2036
1631021163015,2036
1631021163019,2036
1631021163023,2035
1631021163027,2035
1631021163031,2035
1631021163035,2035
1631021163039,2035
1631021163043,2034
1631021163047,2033
1631021163051,2033
1631021163055,2034
1631021163059,2034
1631021163063,2035
1631021163067,2035
1631021163071,2034
1631021163075,2034
1631021163079,2034
1631021163083,2033
1631021163087,2033
1631021163091,2033
1631021163095,2033
1631021163099,2033
1631021163103,2034
1631021163107,2035
1631021163111,2036
1631021163115,2035
1631021163119,2034
1631021163123,2034
1631021163127,2034
1631021163131,2035
1631021163135,2037
1631021163139,2041
1631021163143,2045
1631021163147,2048
1631021163151,2049
1631021163155,2049
1631021163159,2048
1631021163163,2046
1631021163167,2043
1631021163171,2041
1631021163175,2039
1631021163179,2037
1631021163183,2035
1631021163187,2034
1631021163191,2033
1631021163195,2032
1631021163199,2032
1631021163203,2032
1631021163207,2032
1631021163211,2032
1631021163215,2033
1631021163219,2034
1631021163223,2036
1631021163227,2036
1631021163231,2033
1631021163235,2027
1631021163239,2022
1631021163243,2024
1631021163247,2043
1631021163251,2089
1631021163255,2155
1631021163259,2212
1631021163263,2233
1631021163267,2200
1631021163271,2125
1631021163275,2037
1631021163279,1971
1631021163283,1947
1631021163287,1960
1631021163291,1991
1631021163295,2019
1631021163299,2036
1631021163303,2039
1631021163307,2040
1631021163311,2040
1631021163315,2039
1631021163319,2037
1631021163323,2037
1631021163327,2039
1631021163331,2040
1631021163335,2041
1631021163339,2042
1631021163343,2043
1631021163347,2044
1631021163351,2044
1631021163355,2045
1631021163359,2046
1631021163363,2047
1631021163367,2048
1631021163371,2049
1631021163375,2051
1631021163379,2052
1631021163383,2054
1631021163387,2055
1631021163391,2056
1631021163395,2057
1631021163399,2059
1631021163403,2060
1631021163407,2062
1631021163411,2064
1631021163415,2066
1631021163419,2069
1631021163423,2072
1631021163427,2074
1631021163431,2077
1631021163435,2079
1631021163439,2082
1631021163443,2085
1631021163447,2088
1631021163451,2091
1631021163455,2094
1631021163459,2098
1631021163463,2101
1631021163467,2104
1631021163471,2108
1631021163475,2111
1631021163479,2114
1631021163483,2115
1631021163487,2116
1631021163491,2116
1631021163495,2116
1631021163499,2115
1631021163503,2114
1631021163507,2112
1631021163511,2108
1631021163515,2102
1631021163519,2094
1631021163523,2085
1631021163527,2077
1631021163531,2069
1631021163535,2063
1631021163539,2057
1631021163543,2053
1631021163547,2048
1631021163551,2045
1631021163555,2042
1631021163559,2039
1631021163563,2037
1631021163567,2036
1631021163571,2035
1631021163575,2034
1631021163579,2034
1631021163583,2034
1631021163587,2034
1631021163591,2034
1631021163595,2033
1631021163599,2033
1631021163603,2032
1631021163607,2032
1631021163611,2031
1631021163615,2032
1631021163619,2033
1631021163623,2034
1631021163627,2034
1631021163631,2035
1631021163635,2035
1631021163639,2034
1631021163643,2034
1631021163647,2034
1631021163651,2034
1631021163655,2034
1631021163659,2034
1631021163663,2035
1631021163667,2035
1631021163671,2035
1631021163675,2034
1631021163679,2034
1631021163683,2034
1631021163687,2034
1631021163691,2035
1631021163695,2034
1631021163699,2034
1631021163703,2033
1631021163707,2033
1631021163711,2032
1631021163715,2032
1631021163719,2032
1631021163723,2032
1631021163727,2032
1631021163731,2032
1631021163735,2032
1631021163739,2032
1631021163743,2031
1631021163747,2031
1631021163751,2031
1631021163755,2031
1631021163759,2032
1631021163763,2032
1631021163767,2032
1631021163771,2031
1631021163775,2030
1631021163779,2030
1631021163783,2031
1631021163787,2032
1631021163791,2034
1631021163795,2034
1631021163799,2033
1631021163803,2032
1631021163807,2030
1631021163811,2030
1631021163815,2031
1631021163819,2034
1631021163823,2038
1631021163827,2041
1631021163831,2044
1631021163835,2047
1631021163839,2047
1631021163843,2047
1631021163847,2045
1631021163851,2043
1631021163855,2041
1631021163859,2039
1631021163863,2038
1631021163867,2037
1631021163871,2035
1631021163875,2033
1631021163879,2031
1631021163883,2030
1631021163887,2029
1631021163891,2029
1631021163895,2030
1631021163899,2030
1631021163903,2031
1631021163907,2032
1631021163911,2033
1631021163915,2033
1631021163919,2030
1631021163923,2024
1631021163927,2017
1631021163931,2016
1631021163935,2028
1631021163939,2066
1631021163943,2131
1631021163947,2198
1631021163951,2237
1631021163955,2224
1631021163959,2157
1631021163963,2063
1631021163967,1982
1631021163971,1940
1631021163975,1942
1631021163979,1969
1631021163983,2001
1631021163987,2023
1631021163991,2031
1631021163995,2033
1631021163999,2036
1631021164003,2037
1631021164007,2036
1631021164011,2035
1631021164015,2035
1631021164019,2036
1631021164023,2037
1631021164027,2038
1631021164031,2039
1631021164035,2040
1631021164039,2041
1631021164043,2042
1631021164047,2043
1631021164051,2043
1631021164055,2044
1631021164059,2045
1631021164063,2046
1631021164067,2048
1631021164071,2048
1631021164075,2050
1631021164079,2051
1631021164083,2053
1631021164087,2055
1631021164091,2057
1631021164095,2059
1631021164099,2060
1631021164103,2062
1631021164107,2064
1631021164111,2067
1631021164115,2070
1631021164119,2073
1631021164123,2076
1631021164127,2078
1631021164131,2081
1631021164135,2084
1631021164139,2088
1631021164143,2092
1631021164147,2095
1631021164151,2098
1631021164155,2101
1631021164159,2103
1631021164163,2106
1631021164167,2108
1631021164171,2110
1631021164175,2112
1631021164179,2113
1631021164183,2114
1631021164187,2115
1631021164191,2114
1631021164195,2111
1631021164199,2107
1631021164203,2100
1631021164207,2093
1631021164211,2085
1631021164215,2077
1631021164219,2070
1631021164223,2064
1631021164227,2058
1631021164231,2053
1631021164235,2048
1631021164239,2045
1631021164243,2041
1631021164247,2037
1631021164251,2034
1631021164255,2033
1631021164259,2032
1631021164263,2032
1631021164267,2032
1631021164271,2032
1631021164275,2031
1631021164279,2031
1631021164283,2030
1631021164287,2030
1631021164291,2030
1631021164295,2031
1631021164299,2031
1631021164303,2031
1631021164307,2032
1631021164311,2032
1631021164315,2033
1631021164319,2034
1631021164323,2034
1631021164327,2034
1631021164331,2034
1631021164335,2034
1631021164339,2034
1631021164343,2035
1631021164347,2036
1631021164351,2037
1631021164355,2037
1631021164359,2037
1631021164363,2036
1631021164367,2036
1631021164371,2035
1631021164375,2034
1631021164379,2035
1631021164383,2034
1631021164387,2035
1631021164391,2035
1631021164395,2035
1631021164399,2034
1631021164403,2034
1631021164407,2033
1631021164411,2033
1631021164415,2033
1631021164419,2034
1631021164423,2034
1631021164427,2034
1631021164431,2035
1631021164435,2035
1631021164439,2034
1631021164443,2033
1631021164447,2032
1631021164451,2032
1631021164455,2032
1631021164459,2032
1631021164463,2033
1631021164467,2034
1631021164471,2035
1631021164475,2035
1631021164479,2034
1631021164483,2034
1631021164487,2033
1631021164491,2033
1631021164495,2033
1631021164499,2033
1631021164503,2034
1631021164507,2035
1631021164511,2035
1631021164515,2035
1631021164519,2035
1631021164523,2034
1631021164527,2033
1631021164531,2033
1631021164535,2034
1631021164539,2035
1631021164543,2038
1631021164547,2041
1631021164551,2045
1631021164555,2048
1631021164559,2050
1631021164563,2050
1631021164567,2048
1631021164571,2047
1631021164575,2045
1631021164579,2043
1631021164583,2041
1631021164587,2039
1631021164591,2037
1631021164595,2036
1631021164599,2035
1631021164603,2034
1631021164607,2034
1631021164611,2034
1631021164615,2034
1631021164619,2035
1631021164623,2036
1631021164627,2038
1631021164631,2039
1631021164635,2039
1631021164639,2037
1631021164643,2031
1631021164647,2025
1631021164651,2024
1631021164655,2035
1631021164659,2070
1631021164663,2132
1631021164667,2196
1631021164671,2234
1631021164675,2223
1631021164679,2161
1631021164683,2072
1631021164687,1993
1631021164691,1952
1631021164695,1953
1631021164699,1980
1631021164703,2012
1631021164707,2035
1631021164711,2043
1631021164715,2043
1631021164719,2044
1631021164723,2043
1631021164727,2042
1631021164731,2041
1631021164735,2042
1631021164739,2044
1631021164743,2045
1631021164747,2046
1631021164751,2047
1631021164755,2048
1631021164759,2048
1631021164763,2048
1631021164767,2049
1631021164771,2050
1631021164775,2051
1631021164779,2052
1631021164783,2053
1631021164787,2055
1631021164791,2056
1631021164795,2058
1631021164799,2059
1631021164803,2060
1631021164807,2061
1631021164811,2063
1631021164815,2065
1631021164819,2067
1631021164823,2069
1631021164827,2071
1631021164831,2074
1631021164835,2077
1631021164839,2079
1631021164843,2081
1631021164847,2084
1631021164851,2087
1631021164855,2090
1631021164859,2093
1631021164863,2097
1631021164867,2100
1631021164871,2104
1631021164875,2106
1631021164879,2109
1631021164883,2111
1631021164887,2113
1631021164891,2115
1631021164895,2117
1631021164899,2118
1631021164903,2119
1631021164907,2120
1631021164911,2119
1631021164915,2117
1631021164919,2114
1631021164923,2109
1631021164927,2102
1631021164931,2095
1631021164935,2087
1631021164939,2080
1631021164943,2074
1631021164947,2068
1631021164951,2063
1631021164955,2058
1631021164959,2053
1631021164963,2049
1631021164967,2046
1631021164971,2043
1631021164975,2041
1631021164979,2041
1631021164983,2040
1631021164987,2040
1631021164991,2039
1631021164995,2039
1631021164999,2039
1631021165003,2038
1631021165007,2038
1631021165011,2038
1631021165015,2039
1631021165019,2039
1631021165023,2039
1631021165027,2040
1631021165031,2040
1631021165035,2041
1631021165039,2041
1631021165043,2041
1631021165047,2040
1631021165051,2041
1631021165055,2041
1631021165059,2041
1631021165063,2042
1631021165067,2042
1631021165071,2043
1631021165075,2043
1631021165079,2043
1631021165083,2042
1631021165087,2042
1631021165091,2042
1631021165095,2042
1631021165099,2042
1631021165103,2042
1631021165107,2042
1631021165111,2042
1631021165115,2042
1631021165119,2041
1631021165123,2041
1631021165127,2040
1631021165131,2040
1631021165135,2040
1631021165139,2040
1631021165143,2040
1631021165147,2040
1631021165151,2040
1631021165155,2040
1631021165159,2040
1631021165163,2040
1631021165167,2040
1631021165171,2039
1631021165175,2039
1631021165179,2039
1631021165183,2040
1631021165187,2040
1631021165191,2040
1631021165195,2040
1631021165199,2040
1631021165203,2039
1631021165207,2039
1631021165211,2039
1631021165215,2039
1631021165219,2039
1631021165223,2040
1631021165227,2041
1631021165231,2041
1631021165235,2041
1631021165239,2041
1631021165243,2041
1631021165247,2040
1631021165251,2041
1631021165255,2041
1631021165259,2041
1631021165263,2041
1631021165267,2040
1631021165271,2040
1631021165275,2040
1631021165279,2041
1631021165283,2042
1631021165287,2044
1631021165291,2047
1631021165295,2050
1631021165299,2053
1631021165303,2056
1631021165307,2057
1631021165311,2056
1631021165315,2053
1631021165319,2050
1631021165323,2048
1631021165327,2045
1631021165331,2043
1631021165335,2041
1631021165339,2039
1631021165343,2039
1631021165347,2040
1631021165351,2040
1631021165355,2041
1631021165359,2042
1631021165363,2042
1631021165367,2042
1631021165371,2042
1631021165375,2043
1631021165379,2044
1631021165383,2043
1631021165387,2039
1631021165391,2033
1631021165395,2030
1631021165399,2038
1631021165403,2065
1631021165407,2121
1631021165411,2186
1631021165415,2232
1631021165419,2235
1631021165423,2185
1631021165427,2101
1631021165431,2018
1631021165435,1965
1631021165439,1956
1631021165443,1978
1631021165447,2009
1631021165451,2034
1631021165455,2046
1631021165459,2046
1631021165463,2047
1631021165467,2047
1631021165471,2046
1631021165475,2046
1631021165479,2046
1631021165483,2047
1631021165487,2047
1631021165491,2048
1631021165495,2048
1631021165499,2048
1631021165503,2050
1631021165507,2051
1631021165511,2053
1631021165515,2054
1631021165519,2054
1631021165523,2055
1631021165527,2056
1631021165531,2056
1631021165535,2057
1631021165539,2059
1631021165543,2060
1631021165547,2062
1631021165551,2064
1631021165555,2066
1631021165559,2068
1631021165563,2069
1631021165567,2071
1631021165571,2073
1631021165575,2075
1631021165579,2078
1631021165583,2081
1631021165587,2084
1631021165591,2087
1631021165595,2089
1631021165599,2092
1631021165603,2095
1631021165607,2098
1631021165611,2101
1631021165615,2104
1631021165619,2107
1631021165623,2110
1631021165627,2113
1631021165631,2115
1631021165635,2118
1631021165639,2119
1631021165643,2120
1631021165647,2121
1631021165651,2121
1631021165655,2121
1631021165659,2120
1631021165663,2118
1631021165667,2114
1631021165671,2108
1631021165675,2101
1631021165679,2094
1631021165683,2086
1631021165687,2078
1631021165691,2071
1631021165695,2065
1631021165699,2059
1631021165703,2055
1631021165707,2052
1631021165711,2049
1631021165715,2048
1631021165719,2046
1631021165723,2045
1631021165727,2043
1631021165731,2042
1631021165735,2041
1631021165739,2041
1631021165743,2041
1631021165747,2042
1631021165751,2042
1631021165755,2042
1631021165759,2042
1631021165763,2042
1631021165767,2041
1631021165771,2041
1631021165775,2041
1631021165779,2041
1631021165783,2043
1631021165787,2044
1631021165791,2044
1631021165795,2045
1631021165799,2044
1631021165803,2044
1631021165807,2043
1631021165811,2042
1631021165815,2042
1631021165819,2042
1631021165823,2043
1631021165827,2044
1631021165831,2044
1631021165835,2045
1631021165839,2045
1631021165843,2044
1631021165847,2043
1631021165851,2042
1631021165855,2041
1631021165859,2041
1631021165863,2041
1631021165867,2041
1631021165871,2042
1631021165875,2042
1631021165879,2041
1631021165883,2041
1631021165887,2041
1631021165891,2041
1631021165895,2040
1631021165899,2040
1631021165903,2040
1631021165907,2039
1631021165911,2039
1631021165915,2039
1631021165919,2039
1631021165923,2040
1631021165927,2039
1631021165931,2039
1631021165935,2039
1631021165939,2039
1631021165943,2040
1631021165947,2040
1631021165951,2040
1631021165955,2040
1631021165959,2039
1631021165963,2038
1631021165967,2038
1631021165971,2038
1631021165975,2038
1631021165979,2039
1631021165983,2039
1631021165987,2040
1631021165991,2040
1631021165995,2040
1631021165999,2040
1631021166003,2040
1631021166007,2039
1631021166011,2039
1631021166015,2039
1631021166019,2039
1631021166023,2040
1631021166027,2040
1631021166031,2041
1631021166035,2041
1631021166039,2041
1631021166043,2040
1631021166047,2039
1631021166051,2038
1631021166055,2039
1631021166059,2040
1631021166063,2042
1631021166067,2045
1631021166071,2048
1631021166075,2051
1631021166079,2053
1631021166083,2054
1631021166087,2053
1631021166091,2050
1631021166095,2048
1631021166099,2045
1631021166103,2042
1631021166107,2041
1631021166111,2039
1631021166115,2038
1631021166119,2037
1631021166123,2036
1631021166127,2036
1631021166131,2036
1631021166135,2037
1631021166139,2037
1631021166143,2038
1631021166147,2040
1631021166151,2041
1631021166155,2041
1631021166159,2040
1631021166163,2034
1631021166167,2027
1631021166171,2023
1631021166175,2032
1631021166179,2065
1631021166183,2129
1631021166187,2198
1631021166191,2243
1631021166195,2238
1631021166199,2176
1631021166203,2084
1631021166207,1999
1631021166211,1951
1631021166215,1947
1631021166219,1973
1631021166223,2006
1631021166227,2029
1631021166231,2040
1631021166235,2041
1631021166239,2043
1631021166243,2042
1631021166247,2040
1631021166251,2039
1631021166255,2040
1631021166259,2042
1631021166263,2044
1631021166267,2045
1631021166271,2046
1631021166275,2046
1631021166279,2047
1631021166283,2047
1631021166287,2048
1631021166291,2048
1631021166295,2048
1631021166299,2050
1631021166303,2052
1631021166307,2053
1631021166311,2055
1631021166315,2056
1631021166319,2057
1631021166323,2059
1631021166327,2060
1631021166331,2061
1631021166335,2063
1631021166339,2065
1631021166343,2066
1631021166347,2068
1631021166351,2070
1631021166355,2073
1631021166359,2076
1631021166363,2080
1631021166367,2083
1631021166371,2086
1631021166375,2088
1631021166379,2090
1631021166383,2093
1631021166387,2096
1631021166391,2100
1631021166395,2104
1631021166399,2107
1631021166403,2110
1631021166407,2112
1631021166411,2114
1631021166415,2116
1631021166419,2118
1631021166423,2119
1631021166427,2120
1631021166431,2119
1631021166435,2117
1631021166439,2114
1631021166443,2110
1631021166447,2104
1631021166451,2098
1631021166455,2090
1631021166459,2082
1631021166463,2075
1631021166467,2068
1631021166471,2062
1631021166475,2057
1631021166479,2052
1631021166483,2048
1631021166487,2044
1631021166491,2040
1631021166495,2037
1631021166499,2036
1631021166503,2036
1631021166507,2036
1631021166511,2036
1631021166515,2035
1631021166519,2034
1631021166523,2033
1631021166527,2033
1631021166531,2033
1631021166535,2033
1631021166539,2034
1631021166543,2034
1631021166547,2034
1631021166551,2035
1631021166555,2036
1631021166559,2036
1631021166563,2036
1631021166567,2036
1631021166571,2036
1631021166575,2036
1631021166579,2037
1631021166583,2037
1631021166587,2038
1631021166591,2038
1631021166595,2038
1631021166599,2039
1631021166603,2038
1631021166607,2038
1631021166611,2037
1631021166615,2037
1631021166619,2036
1631021166623,2036
1631021166627,2036
1631021166631,2036
1631021166635,2036
1631021166639,2036
1631021166643,2035
1631021166647,2035
1631021166651,2034
1631021166655,2034
1631021166659,2033
1631021166663,2033
1631021166667,2033
1631021166671,2034
1631021166675,2034
1631021166679,2034
1631021166683,2034
1631021166687,2033
1631021166691,2033
1631021166695,2033
1631021166699,2033
1631021166703,2033
1631021166707,2033
1631021166711,2033
1631021166715,2034
1631021166719,2034
1631021166723,2035
1631021166727,2034
1631021166731,2033
1631021166735,2032
1631021166739,2032
1631021166743,2032
1631021166747,2033
1631021166751,2033
1631021166755,2034
1631021166759,2033
1631021166763,2033
1631021166767,2033
1631021166771,2033
1631021166775,2034
1631021166779,2034
1631021166783,2035
1631021166787,2035
1631021166791,2036
1631021166795,2036
1631021166799,2035
1631021166803,2035
1631021166807,2035
1631021166811,2035
1631021166815,2034
1631021166819,2034
1631021166823,2034
1631021166827,2035
1631021166831,2036
1631021166835,2039
1631021166839,2042
1631021166843,2046
1631021166847,2048
1631021166851,2050
1631021166855,2050
1631021166859,2049
1631021166863,2047
1631021166867,2044
1631021166871,2042
1631021166875,2039
1631021166879,2037
1631021166883,2035
1631021166887,2034
1631021166891,2033
1631021166895,2033
1631021166899,2034
1631021166903,2035
1631021166907,2036
1631021166911,2036
1631021166915,2037
1631021166919,2038
1631021166923,2038
1631021166927,2038
1631021166931,2036
1631021166935,2030
1631021166939,2024
1631021166943,2025
1631021166947,2038
1631021166951,2077
1631021166955,2141
1631021166959,2204
1631021166963,2236
1631021166967,2217
1631021166971,2149
1631021166975,2058
1631021166979,1983
1631021166983,1948
1631021166987,1954
1631021166991,1983
1631021166995,2013
1631021166999,2034
1631021167003,2040
1631021167007,2040
1631021167011,2042
1631021167015,2042
1631021167019,2041
1631021167023,2041
1631021167027,2042
1631021167031,2044
1631021167035,2045
1631021167039,2045
1631021167043,2045
1631021167047,2046
1631021167051,2047
1631021167055,2048
1631021167059,2049
1631021167063,2050
1631021167067,2051
1631021167071,2052
1631021167075,2053
1631021167079,2054
1631021167083,2055
1631021167087,2057
1631021167091,2058
1631021167095,2060
1631021167099,2061
1631021167103,2063
1631021167107,2066
1631021167111,2068
1631021167115,2070
1631021167119,2072
1631021167123,2074
1631021167127,2076
1631021167131,2078
1631021167135,2081
1631021167139,2084
1631021167143,2088
1631021167147,2091
1631021167151,2094
1631021167155,2098
1631021167159,2101
1631021167163,2104
1631021167167,2107
1631021167171,2109
1631021167175,2112
1631021167179,2114
1631021167183,2116
1631021167187,2118
1631021167191,2119
1631021167195,2120
1631021167199,2120
1631021167203,2120
1631021167207,2117
1631021167211,2114
1631021167215,2109
1631021167219,2103
1631021167223,2097
1631021167227,2090
1631021167231,2083
1631021167235,2076
1631021167239,2070
1631021167243,2064
1631021167247,2058
1631021167251,2054
1631021167255,2049
1631021167259,2047
1631021167263,2045
1631021167267,2043
1631021167271,2043
1631021167275,2042
1631021167279,2041
1631021167283,2040
1631021167287,2039
1631021167291,2038
1631021167295,2038
1631021167299,2039
1631021167303,2039
1631021167307,2040
1631021167311,2040
1631021167315,2040
1631021167319,2041
1631021167323,2040
1631021167327,2040
1631021167331,2040
1631021167335,2041
1631021167339,2041
1631021167343,2041
1631021167347,2042
1631021167351,2042
1631021167355,2043
1631021167359,2043
1631021167363,2043
1631021167367,2043
1631021167371,2043
1631021167375,2043
1631021167379,2043
1631021167383,2043
1631021167387,2043
1631021167391,2044
1631021167395,2043
1631021167399,2043
1631021167403,2042
1631021167407,2041
1631021167411,2041
1631021167415,2040
1631021167419,2040
1631021167423,2041
1631021167427,2041
1631021167431,2041
1631021167435,2041
1631021167439,2040
1631021167443,2040
1631021167447,2039
1631021167451,2039
1631021167455,2039
1631021167459,2039
1631021167463,2040
1631021167467,2040
1631021167471,2040
1631021167475,2039
1631021167479,2039
1631021167483,2038
1631021167487,2038
1631021167491,2038
1631021167495,2038
1631021167499,2039
1631021167503,2040
1631021167507,2041
1631021167511,2041
1631021167515,2041
1631021167519,2041
1631021167523,2040
1631021167527,2040
1631021167531,2040
1631021167535,2040
1631021167539,2040
1631021167543,2041
1631021167547,2041
1631021167551,2041
1631021167555,2041
1631021167559,2041
1631021167563,2041
1631021167567,2041
1631021167571,2042
1631021167575,2042
1631021167579,2042
1631021167583,2043
1631021167587,2043
1631021167591,2043
1631021167595,2043
1631021167599,2042
1631021167603,2042
1631021167607,2041
1631021167611,2041
1631021167615,2042
1631021167619,2044
1631021167623,2046
1631021167627,2049
1631021167631,2053
1631021167635,2057
1631021167639,2058
1631021167643,2058
1631021167647,2056
1631021167651,2053
1631021167655,2050
1631021167659,2048
1631021167663,2046
1631021167667,2045
1631021167671,2043
1631021167675,2042
1631021167679,2042
1631021167683,2042
1631021167687,2042
1631021167691,2042
1631021167695,2042
1631021167699,2042
1631021167703,2043
1631021167707,2044
1631021167711,2045
1631021167715,2046
1631021167719,2044
1631021167723,2038
1631021167727,2032
1631021167731,2032
1631021167735,2044
1631021167739,2080
1631021167743,2142
1631021167747,2205
1631021167751,2242
1631021167755,2230
1631021167759,2168
1631021167763,2080
1631021167767,2002
1631021167771,1960
1631021167775,1961
1631021167779,1988
1631021167783,2020
1631021167787,2042
1631021167791,2049
1631021167795,2049
1631021167799,2049
1631021167803,2048
1631021167807,2047
1631021167811,2046
1631021167815,2047
1631021167819,2048
1631021167823,2049
1631021167827,2050
1631021167831,2051
1631021167835,2052
1631021167839,2052
1631021167843,2053
1631021167847,2054
1631021167851,2055
1631021167855,2056
1631021167859,2057
1631021167863,2058
1631021167867,2059
1631021167871,2060
1631021167875,2062
1631021167879,2063
1631021167883,2064
1631021167887,2066
1631021167891,2067
1631021167895,2069
1631021167899,2071
1631021167903,2073
1631021167907,2076
1631021167911,2078
1631021167915,2081
1631021167919,2083
1631021167923,2085
1631021167927,2087
1631021167931,2089
1631021167935,2092
1631021167939,2095
1631021167943,2099
1631021167947,2103
1631021167951,2106
1631021167955,2110
1631021167959,2112
1631021167963,2115
1631021167967,2117
1631021167971,2119
1631021167975,2120
1631021167979,2122
1631021167983,2123
1631021167987,2124
1631021167991,2124
1631021167995,2123
1631021167999,2120
1631021168003,2116
1631021168007,2109
1631021168011,2101
1631021168015,2093
1631021168019,2085
1631021168023,2079
1631021168027,2073
1631021168031,2067
1631021168035,2062
1631021168039,2057
1631021168043,2053
1631021168047,2049
1631021168051,2047
1631021168055,2045
1631021168059,2044
1631021168063,2043
1631021168067,2043
1631021168071,2043
1631021168075,2042
1631021168079,2041
1631021168083,2040
1631021168087,2040
1631021168091,2040
1631021168095,2040
1631021168099,2041
1631021168103,2042
1631021168107,2043
1631021168111,2043
1631021168115,2043
1631021168119,2042
1631021168123,2041
1631021168127,2041
1631021168131,2041
1631021168135,2042
1631021168139,2042
1631021168143,2043
1631021168147,2044
1631021168151,2045
1631021168155,2046
1631021168159,2047
1631021168163,2047
1631021168167,2046
1631021168171,2045
1631021168175,2044
1631021168179,2044
1631021168183,2043
1631021168187,2043
1631021168191,2043
1631021168195,2043
1631021168199,2043
1631021168203,2043
1631021168207,2042
1631021168211,2041
1631021168215,2041
1631021168219,2041
1631021168223,2041
1631021168227,2041
1631021168231,2041
1631021168235,2040
1631021168239,2039
1631021168243,2039
1631021168247,2039
1631021168251,2040
1631021168255,2041
1631021168259,2042
1631021168263,2042
1631021168267,2042
1631021168271,2042
1631021168275,2041
1631021168279,2041
1631021168283,2040
1631021168287,2040
1631021168291,2040
1631021168295,2040
1631021168299,2041
1631021168303,2042
1631021168307,2042
1631021168311,2042
1631021168315,2042
1631021168319,2041
1631021168323,2040
1631021168327,2040
1631021168331,2040
1631021168335,2040
1631021168339,2041
1631021168343,2042
1631021168347,2042
1631021168351,2043
1631021168355,2043
1631021168359,2043
1631021168363,2043
1631021168367,2043
1631021168371,2043
1631021168375,2042
1631021168379,2040
1631021168383,2040
1631021168387,2040
1631021168391,2041
1631021168395,2042
1631021168399,2044
1631021168403,2046
1631021168407,2048
1631021168411,2051
1631021168415,2054
1631021168419,2056
1631021168423,2057
1631021168427,2056
1631021168431,2054
1631021168435,2052
1631021168439,2049
1631021168443,2047
1631021168447,2045
1631021168451,2042
1631021168455,2041
1631021168459,2040
1631021168463,2040
1631021168467,2040
1631021168471,2041
1631021168475,2040
1631021168479,2039
1631021168483,2038
1631021168487,2039
1631021168491,2040
1631021168495,2041
1631021168499,2041
1631021168503,2038
1631021168507,2032
1631021168511,2028
1631021168515,2034
1631021168519,2061
1631021168523,2120
1631021168527,2188
1631021168531,2239
1631021168535,2244
1631021168539,2193
1631021168543,2106
1631021168547,2020
1631021168551,1964
1631021168555,1954
1631021168559,1975
1631021168563,2005
1631021168567,2029
1631021168571,2041
1631021168575,2042
1631021168579,2044
1631021168583,2045
1631021168587,2044
1631021168591,2043
1631021168595,2043
1631021168599,2044
1631021168603,2046
1631021168607,2046
1631021168611,2047
1631021168615,2048
1631021168619,2048
1631021168623,2050
1631021168627,2051
1631021168631,2052
1631021168635,2052
1631021168639,2053
1631021168643,2053
1631021168647,2054
1631021168651,2055
1631021168655,2056
1631021168659,2058
1631021168663,2059
1631021168667,2062
1631021168671,2064
1631021168675,2066
1631021168679,2068
1631021168683,2070
1631021168687,2071
1631021168691,2073
1631021168695,2076
1631021168699,2078
1631021168703,2081
1631021168707,2084
1631021168711,2087
1631021168715,2091
1631021168719,2094
1631021168723,2097
1631021168727,2100
1631021168731,2103
1631021168735,2106
1631021168739,2109
1631021168743,2112
1631021168747,2115
1631021168751,2118
1631021168755,2121
1631021168759,2123
1631021168763,2123
1631021168767,2123
1631021168771,2122
1631021168775,2120
1631021168779,2117
1631021168783,2113
1631021168787,2108
1631021168791,2101
1631021168795,2094
1631021168799,2086
1631021168803,2079
1631021168807,2072
1631021168811,2065
1631021168815,2058
1631021168819,2052
1631021168823,2048
1631021168827,2045
1631021168831,2043
1631021168835,2041
1631021168839,2039
1631021168843,2037
1631021168847,2035
1631021168851,2034
1631021168855,2032
1631021168859,2032
1631021168863,2032
1631021168867,2033
1631021168871,2034
1631021168875,2035
1631021168879,2035
1631021168883,2034
1631021168887,2034
1631021168891,2034
1631021168895,2034
1631021168899,2035
1631021168903,2036
1631021168907,2037
1631021168911,2038
1631021168915,2038
1631021168919,2039
1631021168923,2039
1631021168927,2039
1631021168931,2039
1631021168935,2038
1631021168939,2038
1631021168943,2038
1631021168947,2038
1631021168951,2038
1631021168955,2039
1631021168959,2039
1631021168963,2039
1631021168967,2038
1631021168971,2037
1631021168975,2036
1631021168979,2036
1631021168983,2036
1631021168987,2037
1631021168991,2037
1631021168995,2037
1631021168999,2036
1631021169003,2036
1631021169007,2036
1631021169011,2036
1631021169015,2035
1631021169019,2035
1631021169023,2035
1631021169027,2036
1631021169031,2037
1631021169035,2037
1631021169039,2037
1631021169043,2036
1631021169047,2036
1631021169051,2036
1631021169055,2036
1631021169059,2037
1631021169063,2038
1631021169067,2038
1631021169071,2038
1631021169075,2037
1631021169079,2036
1631021169083,2036
1631021169087,2036
1631021169091,2036
1631021169095,2037
1631021169099,2038
1631021169103,2039
1631021169107,2039
1631021169111,2039
1631021169115,2038
1631021169119,2038
1631021169123,2038
1631021169127,2038
1631021169131,2039
1631021169135,2039
1631021169139,2038
1631021169143,2038
1631021169147,2037
1631021169151,2037
1631021169155,2038
1631021169159,2039
1631021169163,2042
1631021169167,2046
1631021169171,2050
1631021169175,2052
1631021169179,2053
1631021169183,2052
1631021169187,2050
1631021169191,2048
1631021169195,2046
1631021169199,2044
1631021169203,2042
1631021169207,2039
1631021169211,2037
1631021169215,2036
1631021169219,2036
1631021169223,2036
1631021169227,2037
1631021169231,2038
1631021169235,2038
1631021169239,2038
1631021169243,2039
1631021169247,2040
1631021169251,2040
1631021169255,2039
1631021169259,2035
1631021169263,2029
1631021169267,2027
1631021169271,2037
1631021169275,2071
1631021169279,2133
1631021169283,2199
1631021169287,2240
1631021169291,2232
1631021169295,2171
1631021169299,2081
1631021169303,2000
1631021169307,1954
1631021169311,1953
1631021169315,1980
1631021169319,2012
1631021169323,2035
1631021169327,2043
1631021169331,2043
1631021169335,2045
1631021169339,2045
1631021169343,2044
1631021169347,2044
1631021169351,2045
1631021169355,2046
1631021169359,2047
1631021169363,2047
1631021169367,2048
1631021169371,2048
1631021169375,2049
1631021169379,2050
1631021169383,2052
1631021169387,2053
1631021169391,2055
1631021169395,2056
1631021169399,2056
1631021169403,2057
1631021169407,2058
1631021169411,2059
1631021169415,2061
1631021169419,2064
1631021169423,2065
1631021169427,2067
1631021169431,2068
1631021169435,2069
1631021169439,2071
1631021169443,2073
1631021169447,2076
1631021169451,2079
1631021169455,2081
1631021169459,2084
1631021169463,2088
1631021169467,2091
1631021169471,2095
1631021169475,2098
1631021169479,2102
1631021169483,2105
1631021169487,2108
1631021169491,2111
1631021169495,2114
1631021169499,2117
1631021169503,2120
1631021169507,2123
1631021169511,2125
1631021169515,2126
1631021169519,2126
1631021169523,2126
1631021169527,2125
1631021169531,2123
1631021169535,2119
1631021169539,2114
1631021169543,2108
1631021169547,2101
1631021169551,2094
1631021169555,2086
1631021169559,2079
1631021169563,2072
1631021169567,2065
1631021169571,2060
1631021169575,2056
1631021169579,2052
1631021169583,2049
1631021169587,2048
1631021169591,2046
1631021169595,2044
1631021169599,2043
1631021169603,2041
1631021169607,2040
1631021169611,2040
1631021169615,2040
1631021169619,2040
1631021169623,2041
1631021169627,2041
1631021169631,2042
1631021169635,2042
1631021169639,2042
1631021169643,2042
1631021169647,2042
1631021169651,2042
1631021169655,2042
1631021169659,2042
1631021169663,2043
1631021169667,2044
1631021169671,2045
1631021169675,2046
1631021169679,2046
1631021169683,2046
1631021169687,2045
1631021169691,2045
1631021169695,2045
1631021169699,2045
1631021169703,2045
1631021169707,2045
1631021169711,2046
1631021169715,2046
1631021169719,2046
1631021169723,2045
1631021169727,2044
1631021169731,2044
1631021169735,2044
1631021169739,2043
1631021169743,2043
1631021169747,2043
1631021169751,2043
1631021169755,2043
1631021169759,2043
1631021169763,2043
1631021169767,2042
1631021169771,2042
1631021169775,2042
1631021169779,2041
1631021169783,2042
1631021169787,2043
1631021169791,2043
1631021169795,2043
1631021169799,2042
1631021169803,2042
1631021169807,2041
1631021169811,2041
1631021169815,2041
1631021169819,2042
1631021169823,2042
1631021169827,2043
1631021169831,2043
1631021169835,2043
1631021169839,2043
1631021169843,2043
1631021169847,2042
1631021169851,2042
1631021169855,2041
1631021169859,2042
1631021169863,2042
1631021169867,2043
1631021169871,2043
1631021169875,2043
1631021169879,2043
1631021169883,2043
1631021169887,2043
1631021169891,2043
1631021169895,2043
1631021169899,2043
1631021169903,2042
1631021169907,2042
1631021169911,2043
1631021169915,2043
1631021169919,2044
1631021169923,2046
1631021169927,2048
1631021169931,2051
1631021169935,2055
1631021169939,2057
1631021169943,2059
1631021169947,2058
1631021169951,2056
1631021169955,2053
1631021169959,2049
1631021169963,2047
1631021169967,2044
1631021169971,2042
1631021169975,2040
1631021169979,2040
1631021169983,2040
1631021169987,2041
1631021169991,2042
1631021169995,2042
1631021169999,2042
1631021170003,2042
1631021170007,2042
1631021170011,2044
1631021170015,2044
1631021170019,2044
1631021170023,2041
1631021170027,2036
1631021170031,2033
1631021170035,2040
1631021170039,2065
1631021170043,2121
1631021170047,2186
1631021170051,2236
1631021170055,2242
1631021170059,2195
1631021170063,2112
1631021170067,2027
1631021170071,1971
1631021170075,1958
1631021170079,1979
1631021170083,2010
1631021170087,2035
1631021170091,2047
1631021170095,2047
1631021170099,2048
1631021170103,2048
1631021170107,2046
1631021170111,2046
1631021170115,2047
1631021170119,2048
1631021170123,2048
1631021170127,2049
1631021170131,2049
1631021170135,2049
1631021170139,2050
1631021170143,2051
1631021170147,2053
1631021170151,2054
1631021170155,2055
1631021170159,2056
1631021170163,2055
1631021170167,2055
1631021170171,2055
1631021170175,2057
1631021170179,2059
1631021170183,2062
1631021170187,2064
1631021170191,2066
1631021170195,2068
1631021170199,2069
1631021170203,2070
1631021170207,2072
1631021170211,2074
1631021170215,2077
1631021170219,2080
1631021170223,2083
1631021170227,2086
1631021170231,2090
1631021170235,2093
1631021170239,2096
1631021170243,2099
1631021170247,2102
1631021170251,2105
1631021170255,2108
1631021170259,2111
1631021170263,2114
1631021170267,2116
1631021170271,2119
1631021170275,2121
1631021170279,2122
1631021170283,2124
1631021170287,2125
1631021170291,2125
1631021170295,2123
1631021170299,2120
1631021170303,2115
1631021170307,2109
1631021170311,2102
1631021170315,2094
1631021170319,2087
1631021170323,2079
1631021170327,2071
1631021170331,2064
1631021170335,2058
1631021170339,2053
1631021170343,2049
1631021170347,2047
1631021170351,2045
1631021170355,2042
1631021170359,2040
1631021170363,2038
1631021170367,2036
1631021170371,2035
1631021170375,2034
1631021170379,2034
1631021170383,2034
1631021170387,2035
1631021170391,2035
1631021170395,2035
1631021170399,2034
1631021170403,2034
1631021170407,2034
1631021170411,2034
1631021170415,2035
1631021170419,2035
1631021170423,2036
1631021170427,2037
1631021170431,2037
1631021170435,2037
1631021170439,2036
1631021170443,2036
1631021170447,2036
1631021170451,2036
1631021170455,2037
1631021170459,2037
1631021170463,2037
1631021170467,2036
1631021170471,2036
1631021170475,2036
1631021170479,2036
1631021170483,2036
1631021170487,2036
1631021170491,2036
1631021170495,2036
1631021170499,2036
1631021170503,2036
1631021170507,2036
1631021170511,2035
1631021170515,2034
1631021170519,2034
1631021170523,2034
1631021170527,2034
1631021170531,2034
1631021170535,2034
1631021170539,2034
1631021170543,2033
1631021170547,2033
1631021170551,2034
1631021170555,2034
1631021170559,2035
1631021170563,2035
1631021170567,2034
1631021170571,2034
1631021170575,2033
1631021170579,2033
1631021170583,2033
1631021170587,2033
1631021170591,2034
1631021170595,2034
1631021170599,2034
1631021170603,2034
1631021170607,2033
1631021170611,2033
1631021170615,2033
1631021170619,2034
1631021170623,2035
1631021170627,2035
1631021170631,2036
1631021170635,2035
1631021170639,2035
1631021170643,2035
1631021170647,2035
1631021170651,2035
1631021170655,2034
1631021170659,2033
1631021170663,2034
1631021170667,2034
1631021170671,2035
1631021170675,2036
1631021170679,2038
1631021170683,2040
1631021170687,2043
1631021170691,2047
1631021170695,2048
1631021170699,2049
1631021170703,2048
1631021170707,2048
1631021170711,2045
1631021170715,2043
1631021170719,2040
1631021170723,2037
1631021170727,2034
1631021170731,2033
1631021170735,2032
1631021170739,2033
1631021170743,2034
1631021170747,2035
1631021170751,2035
1631021170755,2035
1631021170759,2035
1631021170763,2035
1631021170767,2036
1631021170771,2036
1631021170775,2034
1631021170779,2029
1631021170783,2023
1631021170787,2022
1631021170791,2034
1631021170795,2072
1631021170799,2137
1631021170803,2206
1631021170807,2247
1631021170811,2236
1631021170815,2171
1631021170819,2077
1631021170823,1994
1631021170827,1949
1631021170831,1948
1631021170835,1974
1631021170839,2004
1631021170843,2026
1631021170847,2034
1631021170851,2036
1631021170855,2039
1631021170859,2040
1631021170863,2040
1631021170867,2039
1631021170871,2039
1631021170875,2040
1631021170879,2041
1631021170883,2041
1631021170887,2042
1631021170891,2042
1631021170895,2043
1631021170899,2044
1631021170903,2046
1631021170907,2047
1631021170911,2048
1631021170915,2049
1631021170919,2049
1631021170923,2050
1631021170927,2050
1631021170931,2051
1631021170935,2053
1631021170939,2055
1631021170943,2058
1631021170947,2060
1631021170951,2062
1631021170955,2063
1631021170959,2065
1631021170963,2066
1631021170967,2069
1631021170971,2072
1631021170975,2076
1631021170979,2079
1631021170983,2082
1631021170987,2085
1631021170991,2088
1631021170995,2092
1631021170999,2095
1631021171003,2099
1631021171007,2102
1631021171011,2106
1631021171015,2109
1631021171019,2112
1631021171023,2115
1631021171027,2118
1631021171031,2120
1631021171035,2121
1631021171039,2121
1631021171043,2121
1631021171047,2120
1631021171051,2118
1631021171055,2114
1631021171059,2109
1631021171063,2103
1631021171067,2095
1631021171071,2086
1631021171075,2078
1631021171079,2070
1631021171083,2063
1631021171087,2057
1631021171091,2051
1631021171095,2047
1631021171099,2043
1631021171103,2040
1631021171107,2038
1631021171111,2036
1631021171115,2035
1631021171119,2033
1631021171123,2032
1631021171127,2030
1631021171131,2030
1631021171135,2029
1631021171139,2030
1631021171143,2031
1631021171147,2031
1631021171151,2032
1631021171155,2032
1631021171159,2033
1631021171163,2032
1631021171167,2032
1631021171171,2033
1631021171175,2033
1631021171179,2034
1631021171183,2036
1631021171187,2036
1631021171191,2037
1631021171195,2037
1631021171199,2037
1631021171203,2037
1631021171207,2037
1631021171211,2037
1631021171215,2037
1631021171219,2038
1631021171223,2039
1631021171227,2039
1631021171231,2040
1631021171235,2040
1631021171239,2039
1631021171243,2038
1631021171247,2038
1631021171251,2037
1631021171255,2037
1631021171259,2038
1631021171263,2038
1631021171267,2038
1631021171271,2037
1631021171275,2037
1631021171279,2037
1631021171283,2037
1631021171287,2036
1631021171291,2035
1631021171295,2035
1631021171299,2035
1631021171303,2036
1631021171307,2036
1631021171311,2036
1631021171315,2036
1631021171319,2036
1631021171323,2037
1631021171327,2036
1631021171331,2037
1631021171335,2036
1631021171339,2036
1631021171343,2036
1631021171347,2036
1631021171351,2036
1631021171355,2036
1631021171359,2036
1631021171363,2036
1631021171367,2036
1631021171371,2036
1631021171375,2037
1631021171379,2037
1631021171383,2037
1631021171387,2037
1631021171391,2038
1631021171395,2038
1631021171399,2038
1631021171403,2038
1631021171407,2038
1631021171411,2037
1631021171415,2036
1631021171419,2036
1631021171423,2036
1631021171427,2037
1631021171431,2038
1631021171435,2041
1631021171439,2044
1631021171443,2047
1631021171447,2049
1631021171451,2050
1631021171455,2051
1631021171459,2050
1631021171463,2048
1631021171467,2047
1631021171471,2045
1631021171475,2042
1631021171479,2040
1631021171483,2038
1631021171487,2036
1631021171491,2035
1631021171495,2035
1631021171499,2035
1631021171503,2036
1631021171507,2037
1631021171511,2038
1631021171515,2039
1631021171519,2040
1631021171523,2040
1631021171527,2040
1631021171531,2037
1631021171535,2032
1631021171539,2026
1631021171543,2027
1631021171547,2040
1631021171551,2080
1631021171555,2145
1631021171559,2209
1631021171563,2245
1631021171567,2228
1631021171571,2161
1631021171575,2071
1631021171579,1994
1631021171583,1956
1631021171587,1960
1631021171591,1988
1631021171595,2019
1631021171599,2039
1631021171603,2045
1631021171607,2046
1631021171611,2047
1631021171615,2046
1631021171619,2045
1631021171623,2046
1631021171627,2047
1631021171631,2048
1631021171635,2048
1631021171639,2048
1631021171643,2049
1631021171647,2050
1631021171651,2051
1631021171655,2052
1631021171659,2052
1631021171663,2054
1631021171667,2055
1631021171671,2056
1631021171675,2057
1631021171679,2058
1631021171683,2059
1631021171687,2060
1631021171691,2061
1631021171695,2063
1631021171699,2065
1631021171703,2067
1631021171707,2069
1631021171711,2071
1631021171715,2074
1631021171719,2076
1631021171723,2079
1631021171727,2081
1631021171731,2083
1631021171735,2086
1631021171739,2088
1631021171743,2092
1631021171747,2096
1631021171751,2100
1631021171755,2103
1631021171759,2107
1631021171763,2110
1631021171767,2113
1631021171771,2116
1631021171775,2119
1631021171779,2121
1631021171783,2124
1631021171787,2126
1631021171791,2128
1631021171795,2129
1631021171799,2129
1631021171803,2128
1631021171807,2125
1631021171811,2121
1631021171815,2115
1631021171819,2108
1631021171823,2101
1631021171827,2093
1631021171831,2086
1631021171835,2079
1631021171839,2072
1631021171843,2066
1631021171847,2061
1631021171851,2056
1631021171855,2052
1631021171859,2049
1631021171863,2048
1631021171867,2046
1631021171871,2045
1631021171875,2044
1631021171879,2043
1631021171883,2043
1631021171887,2042
1631021171891,2042
1631021171895,2042
1631021171899,2043
1631021171903,2044
1631021171907,2044
1631021171911,2045
1631021171915,2045
1631021171919,2044
1631021171923,2044
1631021171927,2044
1631021171931,2044
1631021171935,2045
1631021171939,2045
1631021171943,2046
1631021171947,2046
1631021171951,2047
1631021171955,2048
1631021171959,2048
1631021171963,2048
1631021171967,2048
1631021171971,2048
1631021171975,2048
1631021171979,2048
1631021171983,2048
1631021171987,2048
1631021171991,2048
1631021171995,2048
1631021171999,2048
1631021172003,2048
1631021172007,2048
1631021172011,2048
1631021172015,2048
1631021172019,2048
1631021172023,2048
1631021172027,2048
1631021172031,2048
1631021172035,2048
1631021172039,2047
1631021172043,2047
1631021172047,2046
1631021172051,2046
1631021172055,2046
1631021172059,2046
1631021172063,2047
1631021172067,2047
1631021172071,2047
1631021172075,2047
1631021172079,2047
1631021172083,2047
1631021172087,2046
1631021172091,2046
1631021172095,2046
1631021172099,2046
1631021172103,2047
1631021172107,2047
1631021172111,2048
1631021172115,2048
1631021172119,2048
1631021172123,2048
1631021172127,2047
1631021172131,2047
1631021172135,2047
1631021172139,2048
1631021172143,2048
1631021172147,2048
1631021172151,2048
1631021172155,2048
1631021172159,2048
1631021172163,2048
1631021172167,2048
1631021172171,2048
1631021172175,2048
1631021172179,2048
1631021172183,2049
1631021172187,2050
1631021172191,2050
1631021172195,2049
1631021172199,2048
1631021172203,2048
1631021172207,2048
1631021172211,2049
1631021172215,2050
1631021172219,2053
1631021172223,2056
1631021172227,2060
1631021172231,2063
1631021172235,2064
1631021172239,2064
1631021172243,2063
1631021172247,2060
1631021172251,2057
1631021172255,2055
1631021172259,2052
1631021172263,2050
1631021172267,2049
1631021172271,2048
1631021172275,2048
1631021172279,2048
1631021172283,2048
1631021172287,2048
1631021172291,2048
1631021172295,2048
1631021172299,2049
1631021172303,2050
1631021172307,2051
1631021172311,2051
1631021172315,2048
1631021172319,2044
1631021172323,2038
1631021172327,2038
1631021172331,2049
1631021172335,2087
1631021172339,2149
1631021172343,2213
1631021172347,2251
1631021172351,2239
1631021172355,2177
1631021172359,2089
1631021172363,2012
1631021172367,1970
1631021172371,1971
1631021172375,1997
1631021172379,2027
1631021172383,2048
1631021172387,2054
1631021172391,2054
1631021172395,2055
1631021172399,2054
1631021172403,2052
1631021172407,2051
1631021172411,2051
1631021172415,2053
1631021172419,2053
1631021172423,2054
1631021172427,2055
1631021172431,2056
1631021172435,2057
1631021172439,2058
1631021172443,2059
1631021172447,2060
1631021172451,2060
1631021172455,2061
1631021172459,2062
1631021172463,2063
1631021172467,2064
1631021172471,2066
1631021172475,2068
1631021172479,2070
1631021172483,2071
1631021172487,2072
1631021172491,2073
1631021172495,2074
1631021172499,2076
1631021172503,2078
1631021172507,2081
1631021172511,2084
1631021172515,2087
1631021172519,2089
1631021172523,2091
1631021172527,2094
1631021172531,2097
1631021172535,2100
1631021172539,2103
1631021172543,2107
1631021172547,2110
1631021172551,2114
1631021172555,2117
1631021172559,2120
1631021172563,2122
1631021172567,2124
1631021172571,2126
1631021172575,2127
1631021172579,2128
1631021172583,2128
1631021172587,2128
1631021172591,2126
1631021172595,2123
1631021172599,2118
1631021172603,2111
1631021172607,2103
1631021172611,2095
1631021172615,2087
1631021172619,2080
1631021172623,2074
1631021172627,2068
1631021172631,2063
1631021172635,2058
1631021172639,2054
1631021172643,2050
1631021172647,2048
1631021172651,2046
1631021172655,2044
1631021172659,2043
1631021172663,2043
1631021172667,2042
1631021172671,2042
1631021172675,2041
1631021172679,2041
1631021172683,2040
1631021172687,2040
1631021172691,2040
1631021172695,2040
1631021172699,2040
1631021172703,2041
1631021172707,2042
1631021172711,2042
1631021172715,2042
1631021172719,2042
1631021172723,2042
1631021172727,2042
1631021172731,2042
1631021172735,2042
1631021172739,2042
1631021172743,2042
1631021172747,2043
1631021172751,2044
1631021172755,2045
1631021172759,2045
1631021172763,2045
1631021172767,2044
1631021172771,2043
1631021172775,2043
1631021172779,2043
1631021172783,2043
1631021172787,2043
1631021172791,2044
1631021172795,2044
1631021172799,2043
1631021172803,2043
1631021172807,2042
1631021172811,2042
1631021172815,2041
1631021172819,2041
1631021172823,2041
1631021172827,2041
1631021172831,2041
1631021172835,2041
1631021172839,2041
1631021172843,2041
1631021172847,2040
1631021172851,2040
1631021172855,2040
1631021172859,2040
1631021172863,2041
1631021172867,2042
1631021172871,2043
1631021172875,2042
1631021172879,2042
1631021172883,2042
1631021172887,2041
1631021172891,2041
1631021172895,2041
1631021172899,2041
1631021172903,2042
1631021172907,2042
1631021172911,2042
1631021172915,2042
1631021172919,2042
1631021172923,2041
1631021172927,2040
1631021172931,2039
1631021172935,2039
1631021172939,2040
1631021172943,2041
1631021172947,2042
1631021172951,2042
1631021172955,2043
1631021172959,2043
1631021172963,2043
1631021172967,2043
1631021172971,2042
1631021172975,2041
1631021172979,2040
1631021172983,2041
1631021172987,2043
1631021172991,2047
1631021172995,2050
1631021172999,2054
1631021173003,2056
1631021173007,2057
1631021173011,2056
1631021173015,2054
1631021173019,2051
1631021173023,2048
1631021173027,2045
1631021173031,2043
1631021173035,2041
1631021173039,2040
1631021173043,2040
1631021173047,2039
1631021173051,2040
1631021173055,2040
1631021173059,2040
1631021173063,2040
1631021173067,2040
1631021173071,2042
1631021173075,2043
1631021173079,2043
1631021173083,2040
1631021173087,2034
1631021173091,2027
1631021173095,2027
1631021173099,2040
1631021173103,2081
1631021173107,2148
1631021173111,2213
1631021173115,2247
1631021173119,2229
1631021173123,2160
1631021173127,2068
1631021173131,1991
1631021173135,1953
1631021173139,1956
1631021173143,1984
1631021173147,2013
1631021173151,2033
1631021173155,2039
1631021173159,2041
1631021173163,2044
1631021173167,2043
1631021173171,2042
1631021173175,2040
1631021173179,2040
1631021173183,2042
1631021173187,2043
1631021173191,2045
1631021173195,2046
1631021173199,2047
1631021173203,2048
1631021173207,2048
1631021173211,2048
1631021173215,2049
1631021173219,2050
1631021173223,2052
1631021173227,2053
1631021173231,2054
1631021173235,2055
1631021173239,2056
1631021173243,2056
1631021173247,2057
1631021173251,2059
1631021173255,2061
1631021173259,2064
1631021173263,2066
1631021173267,2068
1631021173271,2070
1631021173275,2072
1631021173279,2074
1631021173283,2077
1631021173287,2079
1631021173291,2083
1631021173295,2086
1631021173299,2089
1631021173303,2093
1631021173307,2097
1631021173311,2100
1631021173315,2104
1631021173319,2107
1631021173323,2110
1631021173327,2113
1631021173331,2115
1631021173335,2118
1631021173339,2120
1631021173343,2122
1631021173347,2123
1631021173351,2122
1631021173355,2121
1631021173359,2119
1631021173363,2114
1631021173367,2109
1631021173371,2102
1631021173375,2094
1631021173379,2086
1631021173383,2079
1631021173387,2071
1631021173391,2065
1631021173395,2059
1631021173399,2053
1631021173403,2048
1631021173407,2044
1631021173411,2040
1631021173415,2036
1631021173419,2034
1631021173423,2032
1631021173427,2030
1631021173431,2030
1631021173435,2030
1631021173439,2029
1631021173443,2029
1631021173447,2029
1631021173451,2029
1631021173455,2029
1631021173459,2029
1631021173463,2029
1631021173467,2029
1631021173471,2029
1631021173475,2030
1631021173479,2030
1631021173483,2030
1631021173487,2031
1631021173491,2031
1631021173495,2032
1631021173499,2032
1631021173503,2033
1631021173507,2033
1631021173511,2034
1631021173515,2034
1631021173519,2034
1631021173523,2034
1631021173527,2033
1631021173531,2033
1631021173535,2033
1631021173539,2033
1631021173543,2033
1631021173547,2033
1631021173551,2033
1631021173555,2033
1631021173559,2033
1631021173563,2032
1631021173567,2032
1631021173571,2031
1631021173575,2030
1631021173579,2030
1631021173583,2030
1631021173587,2030
1631021173591,2031
1631021173595,2031
1631021173599,2031
1631021173603,2030
1631021173607,2029
1631021173611,2029
1631021173615,2028
1631021173619,2029
1631021173623,2029
1631021173627,2030
1631021173631,2030
1631021173635,2030
1631021173639,2030
1631021173643,2029
1631021173647,2029
1631021173651,2029
1631021173655,2029
1631021173659,2030
1631021173663,2030
1631021173667,2031
1631021173671,2031
1631021173675,2031
1631021173679,2030
1631021173683,2030
1631021173687,2030
1631021173691,2030
1631021173695,2030
1631021173699,2030
1631021173703,2031
1631021173707,2031
1631021173711,2032
1631021173715,2032
1631021173719,2031
1631021173723,2031
1631021173727,2030
1631021173731,2030
1631021173735,2031
1631021173739,2032
1631021173743,2035
1631021173747,2039
1631021173751,2042
1631021173755,2045
1631021173759,2046
1631021173763,2046
1631021173767,2044
1631021173771,2042
1631021173775,2039
1631021173779,2037
1631021173783,2035
1631021173787,2033
1631021173791,2032
1631021173795,2031
1631021173799,2030
1631021173803,2031
1631021173807,2031
1631021173811,2032
1631021173815,2032
1631021173819,2032
1631021173823,2033
1631021173827,2035
1631021173831,2035
1631021173835,2034
1631021173839,2031
1631021173843,2024
1631021173847,2019
1631021173851,2023
1631021173855,2043
1631021173859,2093
1631021173863,2162
1631021173867,2221
1631021173871,2242
1631021173875,2207
1631021173879,2127
1631021173883,2036
1631021173887,1967
1631021173891,1942
1631021173895,1956
1631021173899,1986
1631021173903,2014
1631021173907,2032
1631021173911,2036
1631021173915,2038
1631021173919,2041
1631021173923,2040
1631021173927,2038
1631021173931,2038
1631021173935,2039
1631021173939,2040
1631021173943,2042
1631021173947,2043
1631021173951,2044
1631021173955,2045
1631021173959,2046
1631021173963,2046
1631021173967,2047
1631021173971,2048
1631021173975,2048
1631021173979,2049
1631021173983,2051
1631021173987,2052
1631021173991,2054
1631021173995,2055
1631021173999,2057
1631021174003,2058
1631021174007,2059
1631021174011,2061
1631021174015,2063
1631021174019,2065
1631021174023,2068
1631021174027,2070
1631021174031,2073
1631021174035,2076
1631021174039,2078
1631021174043,2080
1631021174047,2083
1631021174051,2086
1631021174055,2089
1631021174059,2093
1631021174063,2098
1631021174067,2102
1631021174071,2106
1631021174075,2109
1631021174079,2112
1631021174083,2115
1631021174087,2117
1631021174091,2119
1631021174095,2121
1631021174099,2123
1631021174103,2125
1631021174107,2125
1631021174111,2123
1631021174115,2120
1631021174119,2115
1631021174123,2108
1631021174127,2100
1631021174131,2093
1631021174135,2085
1631021174139,2078
1631021174143,2071
1631021174147,2065
1631021174151,2060
1631021174155,2055
1631021174159,2050
1631021174163,2047
1631021174167,2044
1631021174171,2041
1631021174175,2039
1631021174179,2038
1631021174183,2037
1631021174187,2037
1631021174191,2037
1631021174195,2037
1631021174199,2037
1631021174203,2036
1631021174207,2035
1631021174211,2035
1631021174215,2035
1631021174219,2036
1631021174223,2037
1631021174227,2038
1631021174231,2038
1631021174235,2038
1631021174239,2039
1631021174243,2039
1631021174247,2039
1631021174251,2039
1631021174255,2039
1631021174259,2040
1631021174263,2040
1631021174267,2041
1631021174271,2042
1631021174275,2042
1631021174279,2042
1631021174283,2042
1631021174287,2041
1631021174291,2041
1631021174295,2041
1631021174299,2042
1631021174303,2042
1631021174307,2042
1631021174311,2042
1631021174315,2041
1631021174319,2041
1631021174323,2040
1631021174327,2039
1631021174331,2039
1631021174335,2039
1631021174339,2039
1631021174343,2040
1631021174347,2040
1631021174351,2040
1631021174355,2040
1631021174359,2039
1631021174363,2038
1631021174367,2038
1631021174371,2038
1631021174375,2039
1631021174379,2040
1631021174383,2040
1631021174387,2040
1631021174391,2039
1631021174395,2039
1631021174399,2039
1631021174403,2039
1631021174407,2039
1631021174411,2039
1631021174415,2039
1631021174419,2039
1631021174423,2040
1631021174427,2040
1631021174431,2040
1631021174435,2040
1631021174439,2040
1631021174443,2040
1631021174447,2039
1631021174451,2039
1631021174455,2039
1631021174459,2040
1631021174463,2040
1631021174467,2041
1631021174471,2041
1631021174475,2041
1631021174479,2040
1631021174483,2040
1631021174487,2039
1631021174491,2039
1631021174495,2040
1631021174499,2041
1631021174503,2044
1631021174507,2047
1631021174511,2049
1631021174515,2052
1631021174519,2054
1631021174523,2055
1631021174527,2053
1631021174531,2051
1631021174535,2049
1631021174539,2048
1631021174543,2046
1631021174547,2044
1631021174551,2042
1631021174555,2040
1631021174559,2039
1631021174563,2038
1631021174567,2038
1631021174571,2039
1631021174575,2039
1631021174579,2040
1631021174583,2040
1631021174587,2042
1631021174591,2043
1631021174595,2043
1631021174599,2041
1631021174603,2036
1631021174607,2030
1631021174611,2029
1631021174615,2038
1631021174619,2069
1631021174623,2127
1631021174627,2192
1631021174631,2237
1631021174635,2236
1631021174639,2183
1631021174643,2097
1631021174647,2014
1631021174651,1963
1631021174655,1956
1631021174659,1978
1631021174663,2010
1631021174667,2035
1631021174671,2046
1631021174675,2046
1631021174679,2046
1631021174683,2045
1631021174687,2043
1631021174691,2043
1631021174695,2043
1631021174699,2044
1631021174703,2046
1631021174707,2047
1631021174711,2048
1631021174715,2048
1631021174719,2049
1631021174723,2049
1631021174727,2049
1631021174731,2050
1631021174735,2051
1631021174739,2052
1631021174743,2054
1631021174747,2056
1631021174751,2057
1631021174755,2058
1631021174759,2059
1631021174763,2060
1631021174767,2061
1631021174771,2062
1631021174775,2064
1631021174779,2066
1631021174783,2068
1631021174787,2071
1631021174791,2073
1631021174795,2076
1631021174799,2078
1631021174803,2081
1631021174807,2083
1631021174811,2086
1631021174815,2089
1631021174819,2092
1631021174823,2096
1631021174827,2100
1631021174831,2104
1631021174835,2108
1631021174839,2110
1631021174843,2113
1631021174847,2115
1631021174851,2117
1631021174855,2119
1631021174859,2121
1631021174863,2123
1631021174867,2124
1631021174871,2123
1631021174875,2122
1631021174879,2118
1631021174883,2112
1631021174887,2105
1631021174891,2098
1631021174895,2090
1631021174899,2083
1631021174903,2076
1631021174907,2070
1631021174911,2064
1631021174915,2058
1631021174919,2054
1631021174923,2050
1631021174927,2047
1631021174931,2044
1631021174935,2041
1631021174939,2039
1631021174943,2039
1631021174947,2038
1631021174951,2038
1631021174955,2037
1631021174959,2037
1631021174963,2036
1631021174967,2036
1631021174971,2036
1631021174975,2036
1631021174979,2036
1631021174983,2036
1631021174987,2037
1631021174991,2037
1631021174995,2037
1631021174999,2038
1631021175003,2037
1631021175007,2037
1631021175011,2037
1631021175015,2037
1631021175019,2037
1631021175023,2037
1631021175027,2038
1631021175031,2039
1631021175035,2040
1631021175039,2040
1631021175043,2040
1631021175047,2039
1631021175051,2039
1631021175055,2039
1631021175059,2039
1631021175063,2040
1631021175067,2040
1631021175071,2040
1631021175075,2040
1631021175079,2040
1631021175083,2039
1631021175087,2039
1631021175091,2038
1631021175095,2038
1631021175099,2038
1631021175103,2038
1631021175107,2039
1631021175111,2039
1631021175115,2038
1631021175119,2038
1631021175123,2037
1631021175127,2036
1631021175131,2036
1631021175135,2036
1631021175139,2037
1631021175143,2038
1631021175147,2038
1631021175151,2039
1631021175155,2038
1631021175159,2038
1631021175163,2038
1631021175167,2038
1631021175171,2038
1631021175175,2038
1631021175179,2038
1631021175183,2039
1631021175187,2039
1631021175191,2040
1631021175195,2040
1631021175199,2039
1631021175203,2039
1631021175207,2038
1631021175211,2038
1631021175215,2038
1631021175219,2039
1631021175223,2039
1631021175227,2040
1631021175231,2040
1631021175235,2040
1631021175239,2039
1631021175243,2038
1631021175247,2038
1631021175251,2038
1631021175255,2040
1631021175259,2042
1631021175263,2044
1631021175267,2047
1631021175271,2049
1631021175275,2051
1631021175279,2053
1631021175283,2053
1631021175287,2052
1631021175291,2050
1631021175295,2048
1631021175299,2047
1631021175303,2045
1631021175307,2043
1631021175311,2041
1631021175315,2039
1631021175319,2038
1631021175323,2037
1631021175327,2037
1631021175331,2038
1631021175335,2038
1631021175339,2038
1631021175343,2039
1631021175347,2041
1631021175351,2042
1631021175355,2042
1631021175359,2040
1631021175363,2036
1631021175367,2029
1631021175371,2027
1631021175375,2036
1631021175379,2066
1631021175383,2124
1631021175387,2188
1631021175391,2233
1631021175395,2233
1631021175399,2181
1631021175403,2097
1631021175407,2015
1631021175411,1964
1631021175415,1956
1631021175419,1978
1631021175423,2009
1631021175427,2034
1631021175431,2045
1631021175435,2045
1631021175439,2045
1631021175443,2044
1631021175447,2042
1631021175451,2041
1631021175455,2041
1631021175459,2043
1631021175463,2044
1631021175467,2045
1631021175471,2046
1631021175475,2048
1631021175479,2048
1631021175483,2049
1631021175487,2050
1631021175491,2050
1631021175495,2050
1631021175499,2051
1631021175503,2052
1631021175507,2054
1631021175511,2055
1631021175515,2057
1631021175519,2058
1631021175523,2059
1631021175527,2060
1631021175531,2061
1631021175535,2063
1631021175539,2065
1631021175543,2067
1631021175547,2070
1631021175551,2072
1631021175555,2075
1631021175559,2078
1631021175563,2080
1631021175567,2082
1631021175571,2084
1631021175575,2087
1631021175579,2090
1631021175583,2094
1631021175587,2099
1631021175591,2103
1631021175595,2107
1631021175599,2110
1631021175603,2113
1631021175607,2116
1631021175611,2118
1631021175615,2120
1631021175619,2121
1631021175623,2122
1631021175627,2122
1631021175631,2121
1631021175635,2119
1631021175639,2116
1631021175643,2111
1631021175647,2105
1631021175651,2098
1631021175655,2090
1631021175659,2083
1631021175663,2076
1631021175667,2069
1631021175671,2062
1631021175675,2056
1631021175679,2050
1631021175683,2046
1631021175687,2042
1631021175691,2040
1631021175695,2038
1631021175699,2036
1631021175703,2035
1631021175707,2035
1631021175711,2034
1631021175715,2034
1631021175719,2033
1631021175723,2032
1631021175727,2031
1631021175731,2031
1631021175735,2031
1631021175739,2032
1631021175743,2033
1631021175747,2034
1631021175751,2034
1631021175755,2035
1631021175759,2034
1631021175763,2034
1631021175767,2034
1631021175771,2034
1631021175775,2034
1631021175779,2034
1631021175783,2034
1631021175787,2035
1631021175791,2035
1631021175795,2036
1631021175799,2036
1631021175803,2036
1631021175807,2036
1631021175811,2036
1631021175815,2035
1631021175819,2035
1631021175823,2034
1631021175827,2034
1631021175831,2035
1631021175835,2035
1631021175839,2035
1631021175843,2035
1631021175847,2034
1631021175851,2033
1631021175855,2032
1631021175859,2032
1631021175863,2033
1631021175867,2033
1631021175871,2033
1631021175875,2033
1631021175879,2033
1631021175883,2033
1631021175887,2032
1631021175891,2031
1631021175895,2031
1631021175899,2031
1631021175903,2032
1631021175907,2033
1631021175911,2033
1631021175915,2032
1631021175919,2031
1631021175923,2030
1631021175927,2030
1631021175931,2030
1631021175935,2031
1631021175939,2032
1631021175943,2033
1631021175947,2033
1631021175951,2033
1631021175955,2033
1631021175959,2033
1631021175963,2033
1631021175967,2033
1631021175971,2032
1631021175975,2033
1631021175979,2032
1631021175983,2032
1631021175987,2032
1631021175991,2032
1631021175995,2032
1631021175999,2033
1631021176003,2033
1631021176007,2034
1631021176011,2034
1631021176015,2034
1631021176019,2034
1631021176023,2034
1631021176027,2033
1631021176031,2034
1631021176035,2034
1631021176039,2035
1631021176043,2038
1631021176047,2040
1631021176051,2043
1631021176055,2045
1631021176059,2047
1631021176063,2048
1631021176067,2047
1631021176071,2046
1631021176075,2044
1631021176079,2042
1631021176083,2039
1631021176087,2036
1631021176091,2033
1631021176095,2031
1631021176099,2031
1631021176103,2032
1631021176107,2033
1631021176111,2034
1631021176115,2034
1631021176119,2033
1631021176123,2033
1631021176127,2034
1631021176131,2034
1631021176135,2035
1631021176139,2032
1631021176143,2027
1631021176147,2022
1631021176151,2024
1631021176155,2041
1631021176159,2086
1631021176163,2154
1631021176167,2216
1631021176171,2244
1631021176175,2218
1631021176179,2144
1631021176183,2051
1631021176187,1978
1631021176191,1945
1631021176195,1953
1631021176199,1982
1631021176203,2011
1631021176207,2030
1631021176211,2035
1631021176215,2036
1631021176219,2039
1631021176223,2039
1631021176227,2039
1631021176231,2039
1631021176235,2040
1631021176239,2041
1631021176243,2040
1631021176247,2040
1631021176251,2040
1631021176255,2040
1631021176259,2042
1631021176263,2043
1631021176267,2045
1631021176271,2046
1631021176275,2047
1631021176279,2048
1631021176283,2048
1631021176287,2048
1631021176291,2050
1631021176295,2051
1631021176299,2053
1631021176303,2055
1631021176307,2057
1631021176311,2060
1631021176315,2061
1631021176319,2063
1631021176323,2065
1631021176327,2067
1631021176331,2069
1631021176335,2071
1631021176339,2074
1631021176343,2076
1631021176347,2080
1631021176351,2083
1631021176355,2087
1631021176359,2091
1631021176363,2095
1631021176367,2099
1631021176371,2103
1631021176375,2106
1631021176379,2109
1631021176383,2112
1631021176387,2115
1631021176391,2118
1631021176395,2120
1631021176399,2121
1631021176403,2121
1631021176407,2121
1631021176411,2120
1631021176415,2117
1631021176419,2113
1631021176423,2108
1631021176427,2101
1631021176431,2093
1631021176435,2085
1631021176439,2077
1631021176443,2069
1631021176447,2062
1631021176451,2056
1631021176455,2051
1631021176459,2047
1631021176463,2043
1631021176467,2040
1631021176471,2037
1631021176475,2035
1631021176479,2033
1631021176483,2032
1631021176487,2031
1631021176491,2030
1631021176495,2030
1631021176499,2029
1631021176503,2029
1631021176507,2030
1631021176511,2030
1631021176515,2030
1631021176519,2030
1631021176523,2030
1631021176527,2029
1631021176531,2030
1631021176535,2031
1631021176539,2031
1631021176543,2032
1631021176547,2033
1631021176551,2033
1631021176555,2033
1631021176559,2034
1631021176563,2034
1631021176567,2034
1631021176571,2035
1631021176575,2035
1631021176579,2036
1631021176583,2036
1631021176587,2037
1631021176591,2037
1631021176595,2037
1631021176599,2037
1631021176603,2036
1631021176607,2035
1631021176611,2035
1631021176615,2035
1631021176619,2035
1631021176623,2035
1631021176627,2035
1631021176631,2035
1631021176635,2034
1631021176639,2034
1631021176643,2033
1631021176647,2033
1631021176651,2033
1631021176655,2033
1631021176659,2033
1631021176663,2034
1631021176667,2034
1631021176671,2034
1631021176675,2033
1631021176679,2033
1631021176683,2033
1631021176687,2033
1631021176691,2033
1631021176695,2033
1631021176699,2033
1631021176703,2034
1631021176707,2034
1631021176711,2035
1631021176715,2035
1631021176719,2035
1631021176723,2035
1631021176727,2034
1631021176731,2034
1631021176735,2035
1631021176739,2035
1631021176743,2036
1631021176747,2037
1631021176751,2037
1631021176755,2037
1631021176759,2036
1631021176763,2036
1631021176767,2036
1631021176771,2036
1631021176775,2036
1631021176779,2036
1631021176783,2037
1631021176787,2037
1631021176791,2038
1631021176795,2038
1631021176799,2038
1631021176803,2038
1631021176807,2037
1631021176811,2037
1631021176815,2038
1631021176819,2038
1631021176823,2039
1631021176827,2040
1631021176831,2039
1631021176835,2039
1631021176839,2039
1631021176843,2039
1631021176847,2040
1631021176851,2042
1631021176855,2045
1631021176859,2048
1631021176863,2051
1631021176867,2053
1631021176871,2054
1631021176875,2054
1631021176879,2052
1631021176883,2049
1631021176887,2046
1631021176891,2042
1631021176895,2040
1631021176899,2038
1631021176903,2037
1631021176907,2038
1631021176911,2039
1631021176915,2039
1631021176919,2040
1631021176923,2040
1631021176927,2040
1631021176931,2040
1631021176935,2041
1631021176939,2042
1631021176943,2042
1631021176947,2041
1631021176951,2036
1631021176955,2031
1631021176959,2031
1631021176963,2042
1631021176967,2077
1631021176971,2138
1631021176975,2203
1631021176979,2242
1631021176983,2234
1631021176987,2174
1631021176991,2086
1631021176995,2006
1631021176999,1962
1631021177003,1959
1631021177007,1984
1631021177011,2014
1631021177015,2036
1631021177019,2045
1631021177023,2046
1631021177027,2047
1631021177031,2047
1631021177035,2046
1631021177039,2045
1631021177043,2045
1631021177047,2046
1631021177051,2047
1631021177055,2047
1631021177059,2048
1631021177063,2048
1631021177067,2049
1631021177071,2051
1631021177075,2052
1631021177079,2053
1631021177083,2054
1631021177087,2055
1631021177091,2055
1631021177095,2056
1631021177099,2057
1631021177103,2059
1631021177107,2061
1631021177111,2063
1631021177115,2064
1631021177119,2065
1631021177123,2066
1631021177127,2068
1631021177131,2070
1631021177135,2072
1631021177139,2075
1631021177143,2078
1631021177147,2081
1631021177151,2083
1631021177155,2086
1631021177159,2089
1631021177163,2092
1631021177167,2095
1631021177171,2098
1631021177175,2102
1631021177179,2105
1631021177183,2109
1631021177187,2113
1631021177191,2116
1631021177195,2119
1631021177199,2121
1631021177203,2123
1631021177207,2124
1631021177211,2125
1631021177215,2125
1631021177219,2125
1631021177223,2124
1631021177227,2121
1631021177231,2117
1631021177235,2111
1631021177239,2103
1631021177243,2095
1631021177247,2087
1631021177251,2079
1631021177255,2073
1631021177259,2067
1631021177263,2062
1631021177267,2057
1631021177271,2053
1631021177275,2049
1631021177279,2047
1631021177283,2045
1631021177287,2043
1631021177291,2041
1631021177295,2040
1631021177299,2040
1631021177303,2040
1631021177307,2040
1631021177311,2040
1631021177315,2040
1631021177319,2040
1631021177323,2039
1631021177327,2039
1631021177331,2039
1631021177335,2039
1631021177339,2040
1631021177343,2040
1631021177347,2041
1631021177351,2041
1631021177355,2041
1631021177359,2041
1631021177363,2041
1631021177367,2041
1631021177371,2042
1631021177375,2042
1631021177379,2043
1631021177383,2043
1631021177387,2043
1631021177391,2044
1631021177395,2044
1631021177399,2044
1631021177403,2044
1631021177407,2043
1631021177411,2043
1631021177415,2043
1631021177419,2042
1631021177423,2043
1631021177427,2043
1631021177431,2043
1631021177435,2043
1631021177439,2042
1631021177443,2042
1631021177447,2041
1631021177451,2041
1631021177455,2041
1631021177459,2041
1631021177463,2041
1631021177467,2042
1631021177471,2042
1631021177475,2042
1631021177479,2042
1631021177483,2041
1631021177487,2041
1631021177491,2040
1631021177495,2040
1631021177499,2040
1631021177503,2041
1631021177507,2041
1631021177511,2042
1631021177515,2042
1631021177519,2042
1631021177523,2041
1631021177527,2041
1631021177531,2041
1631021177535,2041
1631021177539,2041
1631021177543,2041
1631021177547,2042
1631021177551,2042
1631021177555,2042
1631021177559,2042
1631021177563,2042
1631021177567,2042
1631021177571,2042
1631021177575,2042
1631021177579,2042
1631021177583,2043
1631021177587,2043
1631021177591,2044
1631021177595,2044
1631021177599,2044
1631021177603,2044
1631021177607,2043
1631021177611,2043
1631021177615,2043
1631021177619,2043
1631021177623,2043
1631021177627,2044
1631021177631,2044
1631021177635,2045
1631021177639,2044
1631021177643,2044
1631021177647,2044
1631021177651,2044
1631021177655,2044
1631021177659,2044
1631021177663,2045
1631021177667,2045
1631021177671,2045
1631021177675,2046
1631021177679,2046
1631021177683,2046
1631021177687,2045
1631021177691,2045
1631021177695,2045
1631021177699,2045
1631021177703,2046
1631021177707,2047
1631021177711,2048
1631021177715,2049
1631021177719,2052
1631021177723,2055
1631021177727,2057
1631021177731,2058
1631021177735,2058
1631021177739,2057
1631021177743,2056
1631021177747,2054
1631021177751,2052
1631021177755,2050
1631021177759,2048
1631021177763,2046
1631021177767,2045
1631021177771,2044
1631021177775,2044
1631021177779,2044
1631021177783,2045
1631021177787,2046
1631021177791,2046
1631021177795,2047
1631021177799,2048
1631021177803,2048
1631021177807,2048
1631021177811,2046
1631021177815,2042
1631021177819,2036
1631021177823,2035
1631021177827,2044
1631021177831,2073
1631021177835,2129
1631021177839,2194
1631021177843,2240
1631021177847,2244
1631021177851,2196
1631021177855,2113
1631021177859,2030
1631021177863,1977
1631021177867,1965
1631021177871,1985
1631021177875,2015
1631021177879,2040
1631021177883,2050
1631021177887,2050
1631021177891,2050
1631021177895,2050
1631021177899,2048
1631021177903,2048
1631021177907,2048
1631021177911,2049
1631021177915,2050
1631021177919,2050
1631021177923,2051
1631021177927,2052
1631021177931,2052
1631021177935,2053
1631021177939,2054
1631021177943,2056
1631021177947,2057
1631021177951,2058
1631021177955,2059
1631021177959,2059
1631021177963,2060
1631021177967,2061
1631021177971,2062
1631021177975,2064
1631021177979,2065
1631021177983,2067
1631021177987,2069
1631021177991,2071
1631021177995,2073
1631021177999,2076
1631021178003,2078
1631021178007,2080
1631021178011,2082
1631021178015,2084
1631021178019,2086
1631021178023,2089
1631021178027,2093
1631021178031,2097
1631021178035,2101
1631021178039,2104
1631021178043,2106
1631021178047,2108
1631021178051,2111
1631021178055,2114
1631021178059,2117
1631021178063,2121
1631021178067,2124
1631021178071,2126
1631021178075,2127
1631021178079,2127
1631021178083,2127
1631021178087,2125
1631021178091,2123
1631021178095,2119
1631021178099,2114
1631021178103,2108
1631021178107,2101
1631021178111,2094
1631021178115,2086
1631021178119,2079
1631021178123,2071
1631021178127,2065
1631021178131,2059
1631021178135,2054
1631021178139,2050
1631021178143,2048
1631021178147,2045
1631021178151,2043
1631021178155,2042
1631021178159,2040
1631021178163,2039
1631021178167,2038
1631021178171,2037
1631021178175,2037
1631021178179,2037
1631021178183,2037
1631021178187,2036
1631021178191,2037
1631021178195,2037
1631021178199,2037
1631021178203,2038
1631021178207,2037
1631021178211,2037
1631021178215,2037
1631021178219,2037
1631021178223,2037
1631021178227,2037
1631021178231,2038
1631021178235,2038
1631021178239,2039
1631021178243,2038
1631021178247,2038
1631021178251,2038
1631021178255,2038
1631021178259,2038
1631021178263,2038
1631021178267,2039
1631021178271,2040
1631021178275,2040
1631021178279,2040
1631021178283,2039
1631021178287,2039
1631021178291,2038
1631021178295,2038
1631021178299,2038
1631021178303,2038
1631021178307,2038
1631021178311,2038
1631021178315,2038
1631021178319,2037
1631021178323,2037
1631021178327,2036
1631021178331,2036
1631021178335,2036
1631021178339,2036
1631021178343,2037
1631021178347,2037
1631021178351,2037
1631021178355,2037
1631021178359,2037
1631021178363,2036
1631021178367,2036
1631021178371,2035
1631021178375,2036
1631021178379,2036
1631021178383,2036
1631021178387,2036
1631021178391,2036
1631021178395,2036
1631021178399,2036
1631021178403,2036
1631021178407,2036
1631021178411,2036
1631021178415,2036
1631021178419,2036
1631021178423,2037
1631021178427,2037
1631021178431,2037
1631021178435,2037
1631021178439,2037
1631021178443,2037
1631021178447,2036
1631021178451,2037
1631021178455,2037
1631021178459,2037
1631021178463,2038
1631021178467,2038
1631021178471,2038
1631021178475,2038
1631021178479,2038
1631021178483,2038
1631021178487,2038
1631021178491,2039
1631021178495,2039
1631021178499,2038
1631021178503,2039
1631021178507,2040
1631021178511,2041
1631021178515,2041
1631021178519,2041
1631021178523,2040
1631021178527,2038
1631021178531,2038
1631021178535,2039
1631021178539,2042
1631021178543,2045
1631021178547,2048
1631021178551,2049
1631021178555,2051
1631021178559,2051
1631021178563,2050
1631021178567,2048
1631021178571,2044
1631021178575,2041
1631021178579,2038
1631021178583,2037
1631021178587,2037
1631021178591,2038
1631021178595,2039
1631021178599,2039
1631021178603,2039
1631021178607,2039
1631021178611,2038
1631021178615,2039
1631021178619,2040
1631021178623,2040
1631021178627,2040
1631021178631,2037
1631021178635,2031
1631021178639,2027
1631021178643,2033
1631021178647,2057
1631021178651,2111
1631021178655,2177
1631021178659,2228
1631021178663,2238
1631021178667,2195
1631021178671,2114
1631021178675,2029
1631021178679,1971
1631021178683,1956
1631021178687,1973
1631021178691,2002
1631021178695,2027
1631021178699,2041
1631021178703,2043
1631021178707,2045
1631021178711,2047
1631021178715,2045
1631021178719,2044
1631021178723,2043
1631021178727,2044
1631021178731,2044
1631021178735,2045
1631021178739,2046
1631021178743,2047
1631021178747,2048
1631021178751,2048
1631021178755,2050
1631021178759,2051
1631021178763,2051
1631021178767,2052
1631021178771,2053
1631021178775,2053
1631021178779,2054
1631021178783,2056
1631021178787,2058
1631021178791,2059
1631021178795,2061
1631021178799,2062
1631021178803,2064
1631021178807,2065
1631021178811,2067
1631021178815,2069
1631021178819,2071
1631021178823,2073
1631021178827,2076
1631021178831,2080
1631021178835,2083
1631021178839,2086
1631021178843,2089
1631021178847,2091
1631021178851,2094
1631021178855,2097
1631021178859,2100
1631021178863,2103
1631021178867,2107
1631021178871,2111
1631021178875,2114
1631021178879,2116
1631021178883,2118
1631021178887,2120
1631021178891,2121
1631021178895,2121
1631021178899,2121
1631021178903,2120
1631021178907,2118
1631021178911,2115
1631021178915,2110
1631021178919,2103
1631021178923,2096
1631021178927,2087
1631021178931,2080
1631021178935,2073
1631021178939,2066
1631021178943,2061
1631021178947,2056
1631021178951,2052
1631021178955,2048
1631021178959,2045
1631021178963,2042
1631021178967,2039
1631021178971,2038
1631021178975,2037
1631021178979,2036
1631021178983,2036
1631021178987,2036
1631021178991,2035
1631021178995,2035
1631021178999,2035
1631021179003,2035
1631021179007,2035
1631021179011,2035
1631021179015,2035
1631021179019,2035
1631021179023,2036
1631021179027,2036
1631021179031,2037
1631021179035,2037
1631021179039,2037
1631021179043,2037
1631021179047,2037
1631021179051,2037
1631021179055,2037
1631021179059,2037
1631021179063,2038
1631021179067,2039
1631021179071,2039
1631021179075,2040
1631021179079,2039
1631021179083,2039
1631021179087,2039
1631021179091,2038
1631021179095,2038
1631021179099,2038
1631021179103,2038
1631021179107,2039
1631021179111,2039
1631021179115,2039
1631021179119,2038
1631021179123,2037
1631021179127,2036
1631021179131,2036
1631021179135,2035
1631021179139,2036
1631021179143,2036
1631021179147,2037
1631021179151,2037
1631021179155,2037
1631021179159,2037
1631021179163,2036
1631021179167,2036
1631021179171,2036
1631021179175,2036
1631021179179,2036
1631021179183,2036
1631021179187,2037
1631021179191,2037
1631021179195,2037
1631021179199,2037
1631021179203,2037
1631021179207,2037
1631021179211,2036
1631021179215,2036
1631021179219,2036
1631021179223,2037
1631021179227,2038
1631021179231,2039
1631021179235,2039
1631021179239,2038
1631021179243,2037
1631021179247,2037
1631021179251,2036
1631021179255,2036
1631021179259,2037
1631021179263,2038
1631021179267,2038
1631021179271,2039
1631021179275,2039
1631021179279,2039
1631021179283,2038
1631021179287,2038
1631021179291,2037
1631021179295,2038
1631021179299,2038
1631021179303,2039
1631021179307,2040
1631021179311,2040
1631021179315,2040
1631021179319,2039
1631021179323,2039
1631021179327,2038
1631021179331,2038
1631021179335,2039
1631021179339,2040
1631021179343,2040
1631021179347,2040
1631021179351,2040
1631021179355,2040
1631021179359,2040
1631021179363,2039
1631021179367,2039
1631021179371,2039
1631021179375,2040
1631021179379,2041
1631021179383,2042
1631021179387,2043
1631021179391,2043
1631021179395,2042
1631021179399,2041
1631021179403,2040
1631021179407,2040
1631021179411,2042
1631021179415,2044
1631021179419,2047
1631021179423,2049
1631021179427,2051
1631021179431,2053
1631021179435,2053
1631021179439,2051
1631021179443,2048
1631021179447,2044
1631021179451,2041
1631021179455,2039
1631021179459,2038
1631021179463,2038
1631021179467,2039
1631021179471,2040
1631021179475,2040
1631021179479,2040
1631021179483,2040
1631021179487,2041
1631021179491,2041
1631021179495,2042
1631021179499,2041
1631021179503,2038
1631021179507,2033
1631021179511,2029
1631021179515,2033
1631021179519,2052
1631021179523,2099
1631021179527,2163
1631021179531,2219
1631021179535,2240
1631021179539,2210
1631021179543,2137
1631021179547,2050
1631021179551,1984
1631021179555,1958
1631021179559,1969
1631021179563,1997
1631021179567,2025
1631021179571,2041
1631021179575,2044
1631021179579,2044
1631021179583,2045
1631021179587,2044
1631021179591,2043
1631021179595,2043
1631021179599,2044
1631021179603,2045
1631021179607,2045
1631021179611,2046
1631021179615,2046
1631021179619,2047
1631021179623,2048
1631021179627,2048
1631021179631,2049
1631021179635,2050
1631021179639,2051
1631021179643,2052
1631021179647,2052
1631021179651,2053
1631021179655,2054
1631021179659,2055
1631021179663,2057
1631021179667,2058
1631021179671,2060
1631021179675,2062
1631021179679,2063
1631021179683,2065
1631021179687,2066
1631021179691,2068
1631021179695,2070
1631021179699,2073
1631021179703,2076
1631021179707,2079
1631021179711,2082
1631021179715,2085
1631021179719,2088
1631021179723,2090
1631021179727,2093
1631021179731,2096
1631021179735,2100
1631021179739,2103
1631021179743,2106
1631021179747,2109
1631021179751,2112
1631021179755,2114
1631021179759,2116
1631021179763,2117
1631021179767,2118
1631021179771,2118
1631021179775,2118
1631021179779,2117
1631021179783,2115
1631021179787,2112
1631021179791,2107
1631021179795,2100
1631021179799,2093
1631021179803,2085
1631021179807,2077
1631021179811,2070
1631021179815,2064
1631021179819,2058
1631021179823,2054
1631021179827,2049
1631021179831,2047
1631021179835,2043
1631021179839,2041
1631021179843,2039
1631021179847,2037
1631021179851,2036
1631021179855,2035
1631021179859,2034
1631021179863,2034
1631021179867,2035
1631021179871,2035
1631021179875,2035
1631021179879,2035
1631021179883,2035
1631021179887,2034
1631021179891,2034
1631021179895,2035
1631021179899,2035
1631021179903,2035
1631021179907,2036
1631021179911,2036
1631021179915,2036
1631021179919,2037
1631021179923,2037
1631021179927,2036
1631021179931,2036
1631021179935,2036
1631021179939,2037
1631021179943,2037
1631021179947,2037
1631021179951,2038
1631021179955,2038
1631021179959,2038
1631021179963,2038
1631021179967,2037
1631021179971,2037
1631021179975,2037
1631021179979,2037
1631021179983,2037
1631021179987,2037
1631021179991,2037
1631021179995,2037
1631021179999,2037
1631021180003,2037
1631021180007,2036
1631021180011,2036
1631021180015,2036
1631021180019,2035
1631021180023,2036
1631021180027,2036
1631021180031,2037
1631021180035,2037
1631021180039,2037
1631021180043,2037
1631021180047,2036
1631021180051,2035
1631021180055,2035
1631021180059,2035
1631021180063,2036
1631021180067,2037
1631021180071,2038
1631021180075,2038
1631021180079,2038
1631021180083,2037
1631021180087,2036
1631021180091,2036
1631021180095,2035
1631021180099,2035
1631021180103,2036
1631021180107,2037
1631021180111,2038
1631021180115,2038
1631021180119,2038
1631021180123,2038
1631021180127,2037
1631021180131,2037
1631021180135,2037
1631021180139,2038
1631021180143,2038
1631021180147,2038
1631021180151,2039
1631021180155,2039
1631021180159,2039
1631021180163,2039
1631021180167,2039
1631021180171,2038
1631021180175,2038
1631021180179,2038
1631021180183,2039
1631021180187,2040
1631021180191,2040
1631021180195,2041
1631021180199,2041
1631021180203,2041
1631021180207,2040
1631021180211,2040
1631021180215,2040
1631021180219,2041
1631021180223,2042
1631021180227,2042
1631021180231,2042
1631021180235,2042
1631021180239,2042
1631021180243,2042
1631021180247,2041
1631021180251,2041
1631021180255,2041
1631021180259,2042
1631021180263,2044
1631021180267,2045
1631021180271,2046
1631021180275,2045
1631021180279,2044
1631021180283,2043
1631021180287,2043
1631021180291,2045
1631021180295,2048
1631021180299,2050
1631021180303,2053
1631021180307,2055
1631021180311,2055
1631021180315,2055
1631021180319,2052
1631021180323,2049
1631021180327,2045
1631021180331,2042
1631021180335,2040
1631021180339,2039
1631021180343,2039
1631021180347,2039
1631021180351,2040
1631021180355,2040
1631021180359,2040
1631021180363,2040
1631021180367,2041
1631021180371,2042
1631021180375,2042
1631021180379,2041
1631021180383,2037
1631021180387,2031
1631021180391,2027
1631021180395,2033
1631021180399,2058
1631021180403,2114
1631021180407,2182
1631021180411,2236
1631021180415,2247
1631021180419,2204
1631021180423,2121
1631021180427,2034
1631021180431,1974
1631021180435,1957
1631021180439,1974
1631021180443,2003
1631021180447,2027
1631021180451,2039
1631021180455,2041
1631021180459,2042
1631021180463,2044
1631021180467,2043
1631021180471,2043
1631021180475,2042
1631021180479,2043
1631021180483,2044
1631021180487,2043
1631021180491,2044
1631021180495,2044
1631021180499,2045
1631021180503,2047
1631021180507,2048
1631021180511,2049
1631021180515,2049
1631021180519,2049
1631021180523,2050
1631021180527,2050
1631021180531,2052
1631021180535,2054
1631021180539,2056
1631021180543,2057
1631021180547,2058
1631021180551,2059
1631021180555,2060
1631021180559,2062
1631021180563,2065
1631021180567,2067
1631021180571,2069
1631021180575,2071
1631021180579,2073
1631021180583,2076
1631021180587,2079
1631021180591,2083
1631021180595,2086
1631021180599,2089
1631021180603,2091
1631021180607,2094
1631021180611,2097
1631021180615,2100
1631021180619,2104
1631021180623,2107
1631021180627,2111
1631021180631,2113
1631021180635,2115
1631021180639,2117
1631021180643,2118
1631021180647,2119
1631021180651,2120
1631021180655,2120
1631021180659,2119
1631021180663,2117
1631021180667,2113
1631021180671,2107
1631021180675,2099
1631021180679,2090
1631021180683,2081
1631021180687,2073
1631021180691,2066
1631021180695,2061
1631021180699,2055
1631021180703,2051
1631021180707,2048
1631021180711,2044
1631021180715,2041
1631021180719,2039
1631021180723,2036
1631021180727,2034
1631021180731,2032
1631021180735,2030
1631021180739,2030
1631021180743,2030
1631021180747,2031
1631021180751,2032
1631021180755,2033
1631021180759,2032
1631021180763,2031
1631021180767,2031
1631021180771,2030
1631021180775,2031
1631021180779,2032
1631021180783,2033
1631021180787,2034
1631021180791,2035
1631021180795,2035
1631021180799,2034
1631021180803,2034
1631021180807,2034
1631021180811,2034
1631021180815,2035
1631021180819,2036
1631021180823,2036
1631021180827,2037
1631021180831,2037
1631021180835,2037
1631021180839,2036
1631021180843,2036
1631021180847,2035
1631021180851,2034
1631021180855,2034
1631021180859,2034
1631021180863,2034
1631021180867,2035
1631021180871,2035
1631021180875,2034
1631021180879,2034
1631021180883,2033
1631021180887,2033
1631021180891,2033
1631021180895,2033
1631021180899,2033
1631021180903,2033
1631021180907,2033
1631021180911,2034
1631021180915,2034
1631021180919,2034
1631021180923,2034
1631021180927,2033
1631021180931,2032
1631021180935,2032
1631021180939,2032
1631021180943,2032
1631021180947,2032
1631021180951,2032
1631021180955,2032
1631021180959,2032
1631021180963,2032
1631021180967,2032
1631021180971,2032
1631021180975,2033
1631021180979,2033
1631021180983,2033
1631021180987,2034
1631021180991,2035
1631021180995,2035
1631021180999,2035
1631021181003,2035
1631021181007,2034
1631021181011,2033
1631021181015,2033
1631021181019,2033
1631021181023,2034
1631021181027,2034
1631021181031,2035
1631021181035,2036
1631021181039,2035
1631021181043,2035
1631021181047,2034
1631021181051,2034
1631021181055,2034
1631021181059,2034
1631021181063,2034
1631021181067,2034
1631021181071,2035
1631021181075,2035
1631021181079,2035
1631021181083,2035
1631021181087,2035
1631021181091,2035
1631021181095,2036
1631021181099,2037
1631021181103,2038
1631021181107,2038
1631021181111,2036
1631021181115,2035
1631021181119,2034
1631021181123,2035
1631021181127,2037
1631021181131,2040
1631021181135,2043
1631021181139,2046
1631021181143,2048
1631021181147,2048
1631021181151,2048
1631021181155,2046
1631021181159,2042
1631021181163,2037
1631021181167,2034
1631021181171,2032
1631021181175,2032
1631021181179,2033
1631021181183,2034
1631021181187,2035
1631021181191,2035
1631021181195,2036
1631021181199,2036
1631021181203,2037
1631021181207,2037
1631021181211,2036
1631021181215,2033
1631021181219,2027
1631021181223,2022
1631021181227,2023
1631021181231,2039
1631021181235,2082
1631021181239,2150
1631021181243,2216
1631021181247,2250
1631021181251,2231
1631021181255,2160
1631021181259,2066
1631021181263,1988
1631021181267,1949
1631021181271,1953
1631021181275,1981
1631021181279,2011
1631021181283,2032
1631021181287,2037
1631021181291,2038
1631021181295,2040
1631021181299,2040
1631021181303,2039
1631021181307,2038
1631021181311,2040
1631021181315,2041
1631021181319,2042
1631021181323,2042
1631021181327,2042
1631021181331,2042
1631021181335,2043
1631021181339,2045
1631021181343,2046
1631021181347,2047
1631021181351,2048
1631021181355,2048
1631021181359,2049
1631021181363,2049
1631021181367,2050
1631021181371,2052
1631021181375,2054
1631021181379,2056
1631021181383,2058
1631021181387,2060
1631021181391,2061
1631021181395,2062
1631021181399,2064
1631021181403,2066
1631021181407,2069
1631021181411,2072
1631021181415,2074
1631021181419,2076
1631021181423,2079
1631021181427,2082
1631021181431,2086
1631021181435,2090
1631021181439,2094
1631021181443,2097
1631021181447,2100
1631021181451,2104
1631021181455,2107
1631021181459,2111
1631021181463,2115
1631021181467,2117
1631021181471,2120
1631021181475,2121
1631021181479,2123
1631021181483,2123
1631021181487,2122
1631021181491,2121
1631021181495,2117
1631021181499,2113
1631021181503,2107
1631021181507,2100
1631021181511,2092
1631021181515,2084
1631021181519,2076
1631021181523,2068
1631021181527,2061
1631021181531,2055
1631021181535,2049
1631021181539,2046
1631021181543,2042
1631021181547,2040
1631021181551,2038
1631021181555,2036
1631021181559,2034
1631021181563,2033
1631021181567,2031
1631021181571,2030
1631021181575,2029
1631021181579,2029
1631021181583,2029
1631021181587,2030
1631021181591,2031
1631021181595,2032
1631021181599,2032
1631021181603,2031
1631021181607,2031
1631021181611,2031
1631021181615,2032
1631021181619,2033
1631021181623,2034
1631021181627,2035
1631021181631,2035
1631021181635,2035
1631021181639,2035
1631021181643,2034
1631021181647,2034
1631021181651,2034
1631021181655,2035
1631021181659,2036
1631021181663,2036
1631021181667,2037
1631021181671,2037
1631021181675,2038
1631021181679,2037
1631021181683,2037
1631021181687,2036
1631021181691,2036
1631021181695,2036
1631021181699,2035
1631021181703,2035
1631021181707,2035
1631021181711,2035
1631021181715,2035
1631021181719,2034
1631021181723,2034
1631021181727,2033
1631021181731,2033
1631021181735,2033
1631021181739,2033
1631021181743,2033
1631021181747,2033
1631021181751,2034
1631021181755,2034
1631021181759,2034
1631021181763,2034
1631021181767,2033
1631021181771,2033
1631021181775,2033
1631021181779,2033
1631021181783,2034
1631021181787,2034
1631021181791,2034
1631021181795,2035
1631021181799,2035
1631021181803,2035
1631021181807,2035
1631021181811,2034
1631021181815,2035
1631021181819,2035
1631021181823,2035
1631021181827,2036
1631021181831,2036
1631021181835,2036
1631021181839,2036
1631021181843,2035
1631021181847,2035
1631021181851,2034
1631021181855,2035
1631021181859,2035
1631021181863,2036
1631021181867,2037
1631021181871,2038
1631021181875,2038
1631021181879,2037
1631021181883,2036
1631021181887,2036
1631021181891,2036
1631021181895,2037
1631021181899,2038
1631021181903,2039
1631021181907,2040
1631021181911,2039
1631021181915,2039
1631021181919,2038
1631021181923,2037
1631021181927,2038
1631021181931,2039
1631021181935,2041
1631021181939,2044
1631021181943,2047
1631021181947,2049
1631021181951,2052
1631021181955,2054
1631021181959,2053
1631021181963,2052
1631021181967,2049
1631021181971,2047
1631021181975,2045
1631021181979,2042
1631021181983,2041
1631021181987,2040
1631021181991,2039
1631021181995,2039
1631021181999,2040
1631021182003,2040
1631021182007,2040
1631021182011,2040
1631021182015,2040
1631021182019,2042
1631021182023,2044
1631021182027,2044
1631021182031,2043
1631021182035,2039
1631021182039,2033
1631021182043,2030
1631021182047,2038
1631021182051,2065
1631021182055,2122
1631021182059,2190
1631021182063,2240
1631021182067,2247
1631021182071,2199
1631021182075,2114
1631021182079,2027
1631021182083,1970
1631021182087,1956
1631021182091,1976
1631021182095,2007
1631021182099,2034
1631021182103,2047
1631021182107,2048
1631021182111,2050
1631021182115,2050
1631021182119,2048
1631021182123,2048
1631021182127,2048
1631021182131,2048
1631021182135,2049
1631021182139,2050
1631021182143,2051
1631021182147,2052
1631021182151,2053
1631021182155,2054
1631021182159,2055
1631021182163,2055
1631021182167,2056
1631021182171,2056
1631021182175,2057
1631021182179,2059
1631021182183,2060
1631021182187,2062
1631021182191,2064
1631021182195,2065
1631021182199,2067
1631021182203,2068
1631021182207,2070
1631021182211,2071
1631021182215,2073
1631021182219,2075
1631021182223,2077
1631021182227,2080
1631021182231,2082
1631021182235,2085
1631021182239,2087
1631021182243,2090
1631021182247,2093
1631021182251,2096
1631021182255,2100
1631021182259,2104
1631021182263,2107
1631021182267,2111
1631021182271,2115
1631021182275,2118
1631021182279,2121
1631021182283,2123
1631021182287,2125
1631021182291,2126
1631021182295,2127
1631021182299,2128
1631021182303,2129
1631021182307,2128
1631021182311,2126
1631021182315,2123
1631021182319,2117
1631021182323,2110
1631021182327,2102
1631021182331,2094
1631021182335,2086
1631021182339,2079
1631021182343,2072
1631021182347,2067
1631021182351,2061
1631021182355,2056
1631021182359,2052
1631021182363,2048
1631021182367,2046
1631021182371,2044
1631021182375,2042
1631021182379,2041
1631021182383,2041
1631021182387,2040
1631021182391,2040
1631021182395,2040
1631021182399,2040
1631021182403,2040
1631021182407,2039
1631021182411,2039
1631021182415,2039
1631021182419,2039
1631021182423,2040
1631021182427,2041
1631021182431,2041
1631021182435,2041
1631021182439,2041
1631021182443,2041
1631021182447,2041
1631021182451,2041
1631021182455,2041
1631021182459,2041
1631021182463,2042
1631021182467,2043
1631021182471,2044
1631021182475,2044
1631021182479,2043
1631021182483,2043
1631021182487,2042
1631021182491,2042
1631021182495,2042
1631021182499,2042
1631021182503,2043
1631021182507,2043
1631021182511,2043
1631021182515,2043
1631021182519,2042
1631021182523,2042
1631021182527,2041
1631021182531,2041
1631021182535,2041
1631021182539,2040
1631021182543,2040
1631021182547,2040
1631021182551,2040
1631021182555,2040
1631021182559,2040
1631021182563,2040
1631021182567,2039
1631021182571,2039
1631021182575,2039
1631021182579,2039
1631021182583,2040
1631021182587,2040
1631021182591,2041
1631021182595,2041
1631021182599,2041
1631021182603,2040
1631021182607,2040
1631021182611,2040
1631021182615,2040
1631021182619,2040
1631021182623,2040
1631021182627,2040
1631021182631,2041
1631021182635,2041
1631021182639,2041
1631021182643,2041
1631021182647,2041
1631021182651,2041
1631021182655,2041
1631021182659,2041
1631021182663,2041
1631021182667,2041
1631021182671,2042
1631021182675,2042
1631021182679,2042
1631021182683,2042
1631021182687,2042
1631021182691,2042
1631021182695,2042
1631021182699,2043
1631021182703,2043
1631021182707,2043
1631021182711,2042
1631021182715,2041
1631021182719,2041
1631021182723,2041
1631021182727,2042
1631021182731,2044
1631021182735,2046
1631021182739,2048
1631021182743,2051
1631021182747,2053
1631021182751,2055
1631021182755,2055
1631021182759,2054
1631021182763,2052
1631021182767,2050
1631021182771,2048
1631021182775,2047
1631021182779,2045
1631021182783,2044
1631021182787,2042
1631021182791,2042
1631021182795,2041
1631021182799,2041
1631021182803,2041
1631021182807,2041
1631021182811,2041
1631021182815,2041
1631021182819,2042
1631021182823,2042
1631021182827,2042
1631021182831,2040
1631021182835,2036
1631021182839,2031
1631021182843,2032
1631021182847,2044
1631021182851,2081
1631021182855,2142
1631021182859,2206
1631021182863,2244
1631021182867,2233
1631021182871,2171
1631021182875,2082
1631021182879,2003
1631021182883,1960
1631021182887,1959
1631021182891,1985
1631021182895,2016
1631021182899,2038
1631021182903,2046
1631021182907,2047
1631021182911,2048
1631021182915,2047
1631021182919,2045
1631021182923,2044
1631021182927,2044
1631021182931,2045
1631021182935,2046
1631021182939,2047
1631021182943,2048
1631021182947,2049
1631021182951,2050
1631021182955,2051
1631021182959,2051
1631021182963,2052
1631021182967,2052
1631021182971,2053
1631021182975,2054
1631021182979,2056
1631021182983,2057
1631021182987,2059
1631021182991,2060
1631021182995,2061
1631021182999,2063
1631021183003,2065
1631021183007,2066
1631021183011,2067
1631021183015,2069
1631021183019,2071
1631021183023,2074
1631021183027,2077
1631021183031,2080
1631021183035,2083
1631021183039,2086
1631021183043,2089
1631021183047,2091
1631021183051,2094
1631021183055,2098
1631021183059,2101
1631021183063,2105
1631021183067,2109
1631021183071,2113
1631021183075,2116
1631021183079,2118
1631021183083,2121
1631021183087,2122
1631021183091,2124
1631021183095,2125
1631021183099,2126
1631021183103,2127
1631021183107,2125
1631021183111,2123
1631021183115,2118
1631021183119,2111
1631021183123,2103
1631021183127,2094
1631021183131,2085
1631021183135,2077
1631021183139,2070
1631021183143,2064
1631021183147,2058
1631021183151,2053
1631021183155,2049
1631021183159,2047
1631021183163,2044
1631021183167,2041
1631021183171,2038
1631021183175,2036
1631021183179,2034
1631021183183,2034
1631021183187,2034
1631021183191,2034
1631021183195,2035
1631021183199,2034
1631021183203,2034
1631021183207,2032
1631021183211,2032
1631021183215,2031
1631021183219,2031
1631021183223,2032
1631021183227,2033
1631021183231,2034
1631021183235,2034
1631021183239,2034
1631021183243,2034
1631021183247,2034
1631021183251,2034
1631021183255,2034
1631021183259,2035
1631021183263,2036
1631021183267,2037
1631021183271,2037
1631021183275,2038
1631021183279,2038
1631021183283,2038
1631021183287,2037
1631021183291,2036
1631021183295,2036
1631021183299,2036
1631021183303,2037
1631021183307,2037
1631021183311,2038
1631021183315,2037
1631021183319,2037
1631021183323,2036
1631021183327,2036
1631021183331,2035
1631021183335,2035
1631021183339,2035
1631021183343,2035
1631021183347,2035
1631021183351,2035
1631021183355,2036
1631021183359,2036
1631021183363,2036
1631021183367,2036
1631021183371,2036
1631021183375,2035
1631021183379,2035
1631021183383,2035
1631021183387,2035
1631021183391,2035
1631021183395,2036
1631021183399,2036
1631021183403,2036
1631021183407,2036
1631021183411,2035
1631021183415,2035
1631021183419,2034
1631021183423,2034
1631021183427,2035
1631021183431,2035
1631021183435,2036
1631021183439,2036
1631021183443,2036
1631021183447,2036
1631021183451,2036
1631021183455,2036
1631021183459,2036
1631021183463,2037
1631021183467,2037
1631021183471,2038
1631021183475,2039
1631021183479,2039
1631021183483,2038
1631021183487,2037
1631021183491,2036
1631021183495,2036
1631021183499,2037
1631021183503,2039
1631021183507,2042
1631021183511,2045
1631021183515,2048
1631021183519,2050
1631021183523,2051
1631021183527,2051
1631021183531,2050
1631021183535,2048
1631021183539,2048
1631021183543,2046
1631021183547,2044
1631021183551,2041
1631021183555,2039
1631021183559,2037
1631021183563,2036
1631021183567,2035
1631021183571,2036
1631021183575,2037
1631021183579,2038
1631021183583,2038
1631021183587,2039
1631021183591,2041
1631021183595,2042
1631021183599,2041
1631021183603,2038
1631021183607,2032
1631021183611,2025
1631021183615,2026
1631021183619,2041
1631021183623,2084
1631021183627,2150
1631021183631,2214
1631021183635,2245
1631021183639,2223
1631021183643,2153
1631021183647,2062
1631021183651,1987
1631021183655,1952
1631021183659,1958
1631021183663,1986
1631021183667,2016
1631021183671,2037
1631021183675,2042
1631021183679,2043
1631021183683,2045
1631021183687,2044
1631021183691,2043
1631021183695,2043
1631021183699,2044
1631021183703,2046
1631021183707,2047
1631021183711,2048
1631021183715,2048
1631021183719,2048
1631021183723,2048
1631021183727,2049
1631021183731,2049
1631021183735,2050
1631021183739,2052
1631021183743,2053
1631021183747,2055
1631021183751,2057
1631021183755,2058
1631021183759,2059
1631021183763,2060
1631021183767,2061
1631021183771,2062
1631021183775,2064
1631021183779,2066
1631021183783,2069
1631021183787,2071
1631021183791,2073
1631021183795,2076
1631021183799,2078
1631021183803,2080
1631021183807,2083
1631021183811,2086
1631021183815,2089
1631021183819,2092
1631021183823,2096
1631021183827,2100
1631021183831,2105
1631021183835,2108
1631021183839,2111
1631021183843,2115
1631021183847,2117
1631021183851,2119
1631021183855,2122
1631021183859,2124
1631021183863,2126
1631021183867,2127
1631021183871,2128
1631021183875,2127
1631021183879,2125
1631021183883,2121
1631021183887,2115
1631021183891,2108
1631021183895,2100
1631021183899,2092
1631021183903,2085
1631021183907,2078
1631021183911,2071
1631021183915,2065
1631021183919,2059
1631021183923,2054
1631021183927,2049
1631021183931,2046
1631021183935,2043
1631021183939,2041
1631021183943,2040
1631021183947,2039
1631021183951,2038
1631021183955,2038
1631021183959,2038
1631021183963,2037
1631021183967,2036
1631021183971,2035
1631021183975,2035
1631021183979,2036
1631021183983,2037
1631021183987,2037
1631021183991,2038
1631021183995,2038
1631021183999,2038
1631021184003,2038
1631021184007,2038
1631021184011,2038
1631021184015,2039
1631021184019,2039
1631021184023,2040
1631021184027,2041
1631021184031,2041
1631021184035,2041
1631021184039,2042
1631021184043,2042
1631021184047,2042
1631021184051,2042
1631021184055,2042
1631021184059,2042
1631021184063,2042
1631021184067,2042
1631021184071,2042
1631021184075,2042
1631021184079,2042
1631021184083,2042
1631021184087,2042
1631021184091,2041
1631021184095,2041
1631021184099,2041
1631021184103,2041
1631021184107,2041
1631021184111,2042
1631021184115,2041
1631021184119,2041
1631021184123,2040
1631021184127,2039
1631021184131,2039
1631021184135,2039
1631021184139,2040
1631021184143,2041
1631021184147,2041
1631021184151,2041
1631021184155,2041
1631021184159,2041
1631021184163,2041
1631021184167,2040
1631021184171,2040
1631021184175,2040
1631021184179,2040
1631021184183,2041
1631021184187,2042
1631021184191,2042
1631021184195,2042
1631021184199,2042
1631021184203,2041
1631021184207,2041
1631021184211,2040
1631021184215,2041
1631021184219,2041
1631021184223,2042
1631021184227,2042
1631021184231,2043
1631021184235,2042
1631021184239,2042
1631021184243,2042
1631021184247,2041
1631021184251,2041
1631021184255,2041
1631021184259,2042
1631021184263,2042
1631021184267,2043
1631021184271,2043
1631021184275,2043
1631021184279,2043
1631021184283,2043
1631021184287,2044
1631021184291,2045
1631021184295,2048
1631021184299,2050
1631021184303,2053
1631021184307,2055
1631021184311,2057
1631021184315,2057
1631021184319,2055
1631021184323,2053
1631021184327,2050
1631021184331,2048
1631021184335,2045
1631021184339,2043
1631021184343,2041
1631021184347,2040
1631021184351,2040
1631021184355,2040
1631021184359,2041
1631021184363,2041
1631021184367,2041
1631021184371,2041
1631021184375,2042
1631021184379,2043
1631021184383,2043
1631021184387,2043
1631021184391,2039
1631021184395,2034
1631021184399,2030
