timestamp,ecg_waveform
1630070094709,2130
1630070094713,2131
1630070094717,2132
1630070094721,2130
1630070094725,2126
1630070094729,2119
1630070094733,2111
1630070094737,2100
1630070094741,2089
1630070094745,2079
1630070094749,2069
1630070094753,2061
1630070094757,2053
1630070094761,2048
1630070094765,2043
1630070094769,2040
1630070094773,2038
1630070094777,2035
1630070094781,2031
1630070094785,2027
1630070094789,2025
1630070094793,2023
1630070094797,2023
1630070094801,2024
1630070094805,2024
1630070094809,2025
1630070094813,2026
1630070094817,2027
1630070094821,2028
1630070094825,2029
1630070094829,2029
1630070094833,2028
1630070094837,2028
1630070094841,2029
1630070094845,2031
1630070094849,2033
1630070094853,2034
1630070094857,2034
1630070094861,2033
1630070094865,2032
1630070094869,2032
1630070094873,2032
1630070094877,2034
1630070094881,2037
1630070094885,2040
1630070094889,2044
1630070094893,2046
1630070094897,2046
1630070094901,2045
1630070094905,2043
1630070094909,2042
1630070094913,2041
1630070094917,2042
1630070094921,2043
1630070094925,2044
1630070094929,2045
1630070094933,2044
1630070094937,2043
1630070094941,2042
1630070094945,2044
1630070094949,2048
1630070094953,2051
1630070094957,2053
1630070094961,2052
1630070094965,2048
1630070094969,2045
1630070094973,2041
1630070094977,2039
1630070094981,2039
1630070094985,2040
1630070094989,2041
1630070094993,2042
1630070094997,2044
1630070095001,2048
1630070095005,2052
1630070095009,2056
1630070095013,2057
1630070095017,2057
1630070095021,2055
1630070095025,2054
1630070095029,2053
1630070095033,2055
1630070095037,2058
1630070095041,2061
1630070095045,2064
1630070095049,2065
1630070095053,2065
1630070095057,2063
1630070095061,2060
1630070095065,2056
1630070095069,2051
1630070095073,2048
1630070095077,2044
1630070095081,2040
1630070095085,2036
1630070095089,2031
1630070095093,2026
1630070095097,2021
1630070095101,2018
1630070095105,2017
1630070095109,2017
1630070095113,2017
1630070095117,2016
1630070095121,2013
1630070095125,2012
1630070095129,2012
1630070095133,2015
1630070095137,2019
1630070095141,2021
1630070095145,2022
1630070095149,2021
1630070095153,2019
1630070095157,2019
1630070095161,2019
1630070095165,2021
1630070095169,2023
1630070095173,2025
1630070095177,2027
1630070095181,2029
1630070095185,2035
1630070095189,2044
1630070095193,2055
1630070095197,2070
1630070095201,2089
1630070095205,2109
1630070095209,2130
1630070095213,2149
1630070095217,2164
1630070095221,2176
1630070095225,2186
1630070095229,2197
1630070095233,2210
1630070095237,2224
1630070095241,2238
1630070095245,2251
1630070095249,2260
1630070095253,2267
1630070095257,2272
1630070095261,2277
1630070095265,2283
1630070095269,2289
1630070095273,2296
1630070095277,2304
1630070095281,2311
1630070095285,2315
1630070095289,2316
1630070095293,2318
1630070095297,2324
1630070095301,2336
1630070095305,2360
1630070095309,2389
1630070095313,2417
1630070095317,2433
1630070095321,2430
1630070095325,2408
1630070095329,2373
1630070095333,2335
1630070095337,2306
1630070095341,2291
1630070095345,2290
1630070095349,2297
1630070095353,2307
1630070095357,2313
1630070095361,2315
1630070095365,2312
1630070095369,2308
1630070095373,2304
1630070095377,2302
1630070095381,2301
1630070095385,2300
1630070095389,2298
1630070095393,2295
1630070095397,2292
1630070095401,2289
1630070095405,2286
1630070095409,2281
1630070095413,2274
1630070095417,2266
1630070095421,2258
1630070095425,2250
1630070095429,2244
1630070095433,2239
1630070095437,2233
1630070095441,2226
1630070095445,2216
1630070095449,2206
1630070095453,2198
1630070095457,2193
1630070095461,2190
1630070095465,2184
1630070095469,2174
1630070095473,2158
1630070095477,2141
1630070095481,2128
1630070095485,2119
1630070095489,2114
1630070095493,2109
1630070095497,2102
1630070095501,2093
1630070095505,2084
1630070095509,2075
1630070095513,2067
1630070095517,2058
1630070095521,2048
1630070095525,2041
1630070095529,2034
1630070095533,2029
1630070095537,2026
1630070095541,2022
1630070095545,2019
1630070095549,2015
1630070095553,2010
1630070095557,2005
1630070095561,2002
1630070095565,1999
1630070095569,1998
1630070095573,1997
1630070095577,1997
1630070095581,1996
1630070095585,1996
1630070095589,1994
1630070095593,1990
1630070095597,1986
1630070095601,1984
1630070095605,1984
1630070095609,1986
1630070095613,1987
1630070095617,1988
1630070095621,1986
1630070095625,1982
1630070095629,1978
1630070095633,1977
1630070095637,1978
1630070095641,1981
1630070095645,1984
1630070095649,1985
1630070095653,1983
1630070095657,1979
1630070095661,1973
1630070095665,1969
1630070095669,1967
1630070095673,1968
1630070095677,1969
1630070095681,1970
1630070095685,1970
1630070095689,1969
1630070095693,1966
1630070095697,1963
1630070095701,1960
1630070095705,1958
1630070095709,1957
1630070095713,1957
1630070095717,1957
1630070095721,1957
1630070095725,1958
1630070095729,1958
1630070095733,1957
1630070095737,1956
1630070095741,1954
1630070095745,1952
1630070095749,1951
1630070095753,1950
1630070095757,1950
1630070095761,1950
1630070095765,1950
1630070095769,1950
1630070095773,1949
1630070095777,1948
1630070095781,1946
1630070095785,1946
1630070095789,1946
1630070095793,1946
1630070095797,1946
1630070095801,1945
1630070095805,1944
1630070095809,1943
1630070095813,1942
1630070095817,1943
1630070095821,1944
1630070095825,1946
1630070095829,1948
1630070095833,1950
1630070095837,1952
1630070095841,1953
1630070095845,1954
1630070095849,1954
1630070095853,1953
1630070095857,1952
1630070095861,1951
1630070095865,1952
1630070095869,1955
1630070095873,1958
1630070095877,1961
1630070095881,1963
1630070095885,1964
1630070095889,1963
1630070095893,1963
1630070095897,1965
1630070095901,1968
1630070095905,1971
1630070095909,1974
1630070095913,1977
1630070095917,1979
1630070095921,1980
1630070095925,1981
1630070095929,1980
1630070095933,1978
1630070095937,1977
1630070095941,1981
1630070095945,1993
1630070095949,2011
1630070095953,2035
1630070095957,2059
1630070095961,2079
1630070095965,2087
1630070095969,2081
1630070095973,2061
1630070095977,2034
1630070095981,2007
1630070095985,1989
1630070095989,1985
1630070095993,1992
1630070095997,2005
1630070096001,2018
1630070096005,2026
1630070096009,2032
1630070096013,2037
1630070096017,2041
1630070096021,2045
1630070096025,2048
1630070096029,2048
1630070096033,2049
1630070096037,2051
1630070096041,2054
1630070096045,2060
1630070096049,2067
1630070096053,2074
1630070096057,2081
1630070096061,2086
1630070096065,2088
1630070096069,2088
1630070096073,2087
1630070096077,2087
1630070096081,2089
1630070096085,2092
1630070096089,2096
1630070096093,2098
1630070096097,2099
1630070096101,2100
1630070096105,2101
1630070096109,2103
1630070096113,2106
1630070096117,2109
1630070096121,2111
1630070096125,2114
1630070096129,2115
1630070096133,2116
1630070096137,2117
1630070096141,2119
1630070096145,2121
1630070096149,2124
1630070096153,2126
1630070096157,2128
1630070096161,2129
1630070096165,2129
1630070096169,2130
1630070096173,2131
1630070096177,2132
1630070096181,2132
1630070096185,2132
1630070096189,2131
1630070096193,2130
1630070096197,2130
1630070096201,2130
1630070096205,2131
1630070096209,2131
1630070096213,2131
1630070096217,2130
1630070096221,2128
1630070096225,2126
1630070096229,2125
1630070096233,2125
1630070096237,2125
1630070096241,2125
1630070096245,2124
1630070096249,2122
1630070096253,2121
1630070096257,2118
1630070096261,2117
1630070096265,2116
1630070096269,2116
1630070096273,2118
1630070096277,2120
1630070096281,2122
1630070096285,2122
1630070096289,2122
1630070096293,2121
1630070096297,2121
1630070096301,2121
1630070096305,2121
1630070096309,2122
1630070096313,2122
1630070096317,2122
1630070096321,2122
1630070096325,2121
1630070096329,2121
1630070096333,2122
1630070096337,2122
1630070096341,2123
1630070096345,2124
1630070096349,2124
1630070096353,2125
1630070096357,2125
1630070096361,2126
1630070096365,2128
1630070096369,2129
1630070096373,2131
1630070096377,2132
1630070096381,2132
1630070096385,2131
1630070096389,2130
1630070096393,2130
1630070096397,2129
1630070096401,2129
1630070096405,2129
1630070096409,2129
1630070096413,2129
1630070096417,2129
1630070096421,2129
1630070096425,2129
1630070096429,2130
1630070096433,2131
1630070096437,2131
1630070096441,2131
1630070096445,2132
1630070096449,2132
1630070096453,2131
1630070096457,2131
1630070096461,2130
1630070096465,2130
1630070096469,2132
1630070096473,2134
1630070096477,2136
1630070096481,2138
1630070096485,2138
1630070096489,2136
1630070096493,2134
1630070096497,2133
1630070096501,2132
1630070096505,2131
1630070096509,2131
1630070096513,2131
1630070096517,2131
1630070096521,2131
1630070096525,2131
1630070096529,2131
1630070096533,2131
1630070096537,2130
1630070096541,2129
1630070096545,2129
1630070096549,2129
1630070096553,2130
1630070096557,2131
1630070096561,2132
1630070096565,2132
1630070096569,2132
1630070096573,2131
1630070096577,2129
1630070096581,2127
1630070096585,2127
1630070096589,2133
1630070096593,2146
1630070096597,2169
1630070096601,2196
1630070096605,2222
1630070096609,2237
1630070096613,2234
1630070096617,2212
1630070096621,2177
1630070096625,2140
1630070096629,2113
1630070096633,2100
1630070096637,2101
1630070096641,2109
1630070096645,2118
1630070096649,2123
1630070096653,2126
1630070096657,2125
1630070096661,2124
1630070096665,2124
1630070096669,2124
1630070096673,2125
1630070096677,2126
1630070096681,2126
1630070096685,2127
1630070096689,2127
1630070096693,2127
1630070096697,2127
1630070096701,2126
1630070096705,2126
1630070096709,2126
1630070096713,2125
1630070096717,2125
1630070096721,2125
1630070096725,2126
1630070096729,2127
1630070096733,2127
1630070096737,2127
1630070096741,2126
1630070096745,2126
1630070096749,2126
1630070096753,2126
1630070096757,2127
1630070096761,2127
1630070096765,2127
1630070096769,2127
1630070096773,2126
1630070096777,2126
1630070096781,2125
1630070096785,2125
1630070096789,2125
1630070096793,2125
1630070096797,2126
1630070096801,2126
1630070096805,2125
1630070096809,2123
1630070096813,2121
1630070096817,2120
1630070096821,2118
1630070096825,2118
1630070096829,2117
1630070096833,2116
1630070096837,2115
1630070096841,2113
1630070096845,2110
1630070096849,2108
1630070096853,2105
1630070096857,2103
1630070096861,2101
1630070096865,2100
1630070096869,2099
1630070096873,2099
1630070096877,2098
1630070096881,2096
1630070096885,2094
1630070096889,2092
1630070096893,2089
1630070096897,2087
1630070096901,2085
1630070096905,2083
1630070096909,2082
1630070096913,2080
1630070096917,2079
1630070096921,2078
1630070096925,2076
1630070096929,2075
1630070096933,2073
1630070096937,2072
1630070096941,2071
1630070096945,2071
1630070096949,2071
1630070096953,2070
1630070096957,2070
1630070096961,2069
1630070096965,2068
1630070096969,2067
1630070096973,2066
1630070096977,2065
1630070096981,2063
1630070096985,2062
1630070096989,2061
1630070096993,2061
1630070096997,2060
1630070097001,2059
1630070097005,2058
1630070097009,2057
1630070097013,2056
1630070097017,2055
1630070097021,2054
1630070097025,2053
1630070097029,2052
1630070097033,2051
1630070097037,2050
1630070097041,2050
1630070097045,2049
1630070097049,2048
1630070097053,2047
1630070097057,2046
1630070097061,2045
1630070097065,2044
1630070097069,2044
1630070097073,2044
1630070097077,2044
1630070097081,2044
1630070097085,2043
1630070097089,2043
1630070097093,2042
1630070097097,2041
1630070097101,2040
1630070097105,2040
1630070097109,2041
1630070097113,2043
1630070097117,2044
1630070097121,2045
1630070097125,2044
1630070097129,2042
1630070097133,2040
1630070097137,2038
1630070097141,2037
1630070097145,2036
1630070097149,2035
1630070097153,2035
1630070097157,2034
1630070097161,2034
1630070097165,2034
1630070097169,2034
1630070097173,2034
1630070097177,2033
1630070097181,2031
1630070097185,2030
1630070097189,2029
1630070097193,2029
1630070097197,2030
1630070097201,2031
1630070097205,2031
1630070097209,2029
1630070097213,2025
1630070097217,2021
1630070097221,2020
1630070097225,2025
1630070097229,2037
1630070097233,2057
1630070097237,2082
1630070097241,2108
1630070097245,2126
1630070097249,2127
1630070097253,2110
1630070097257,2077
1630070097261,2041
1630070097265,2011
1630070097269,1995
1630070097273,1994
1630070097277,2002
1630070097281,2012
1630070097285,2017
1630070097289,2019
1630070097293,2018
1630070097297,2017
1630070097301,2016
1630070097305,2015
1630070097309,2015
1630070097313,2015
1630070097317,2014
1630070097321,2014
1630070097325,2013
1630070097329,2012
1630070097333,2012
1630070097337,2011
1630070097341,2010
1630070097345,2010
1630070097349,2010
1630070097353,2010
1630070097357,2010
1630070097361,2010
1630070097365,2010
1630070097369,2010
1630070097373,2010
1630070097377,2009
1630070097381,2008
1630070097385,2008
1630070097389,2007
1630070097393,2007
1630070097397,2007
1630070097401,2006
1630070097405,2005
1630070097409,2003
1630070097413,2002
1630070097417,2000
1630070097421,1998
1630070097425,1997
1630070097429,1997
1630070097433,1996
1630070097437,1996
1630070097441,1995
1630070097445,1995
1630070097449,1994
1630070097453,1992
1630070097457,1990
1630070097461,1988
1630070097465,1985
1630070097469,1983
1630070097473,1981
1630070097477,1979
1630070097481,1977
1630070097485,1975
1630070097489,1973
1630070097493,1971
1630070097497,1969
1630070097501,1966
1630070097505,1963
1630070097509,1959
1630070097513,1957
1630070097517,1954
1630070097521,1953
1630070097525,1951
1630070097529,1948
1630070097533,1945
1630070097537,1941
1630070097541,1937
1630070097545,1934
1630070097549,1932
1630070097553,1930
1630070097557,1928
1630070097561,1926
1630070097565,1925
1630070097569,1923
1630070097573,1920
1630070097577,1917
1630070097581,1914
1630070097585,1912
1630070097589,1910
1630070097593,1908
1630070097597,1907
1630070097601,1906
1630070097605,1904
1630070097609,1901
1630070097613,1898
1630070097617,1895
1630070097621,1891
1630070097625,1889
1630070097629,1886
1630070097633,1884
1630070097637,1882
1630070097641,1880
1630070097645,1878
1630070097649,1875
1630070097653,1872
1630070097657,1869
1630070097661,1867
1630070097665,1865
1630070097669,1863
1630070097673,1861
1630070097677,1860
1630070097681,1858
1630070097685,1856
1630070097689,1853
1630070097693,1851
1630070097697,1849
1630070097701,1847
1630070097705,1846
1630070097709,1845
1630070097713,1845
1630070097717,1845
1630070097721,1845
1630070097725,1846
1630070097729,1846
1630070097733,1846
1630070097737,1845
1630070097741,1845
1630070097745,1845
1630070097749,1847
1630070097753,1850
1630070097757,1853
1630070097761,1856
1630070097765,1857
1630070097769,1857
1630070097773,1856
1630070097777,1855
1630070097781,1855
1630070097785,1856
1630070097789,1857
1630070097793,1858
1630070097797,1860
1630070097801,1861
1630070097805,1862
1630070097809,1863
1630070097813,1864
1630070097817,1865
1630070097821,1866
1630070097825,1867
1630070097829,1868
1630070097833,1869
1630070097837,1871
1630070097841,1872
1630070097845,1874
1630070097849,1876
1630070097853,1876
1630070097857,1875
1630070097861,1874
1630070097865,1875
1630070097869,1880
1630070097873,1890
1630070097877,1909
1630070097881,1934
1630070097885,1962
1630070097889,1984
1630070097893,1992
1630070097897,1981
1630070097901,1953
1630070097905,1918
1630070097909,1887
1630070097913,1870
1630070097917,1868
1630070097921,1876
1630070097925,1887
1630070097929,1896
1630070097933,1900
1630070097937,1902
1630070097941,1903
1630070097945,1905
1630070097949,1907
1630070097953,1910
1630070097957,1912
1630070097961,1915
1630070097965,1918
1630070097969,1920
1630070097973,1923
1630070097977,1925
1630070097981,1928
1630070097985,1931
1630070097989,1934
1630070097993,1939
1630070097997,1944
1630070098001,1950
1630070098005,1955
1630070098009,1959
1630070098013,1962
1630070098017,1965
1630070098021,1967
1630070098025,1970
1630070098029,1972
1630070098033,1975
1630070098037,1977
1630070098041,1979
1630070098045,1981
1630070098049,1982
1630070098053,1984
1630070098057,1985
1630070098061,1985
1630070098065,1985
1630070098069,1984
1630070098073,1983
1630070098077,1983
1630070098081,1982
1630070098085,1982
1630070098089,1982
1630070098093,1981
1630070098097,1979
1630070098101,1978
1630070098105,1977
1630070098109,1977
1630070098113,1977
1630070098117,1977
1630070098121,1977
1630070098125,1977
1630070098129,1976
1630070098133,1976
1630070098137,1976
1630070098141,1976
1630070098145,1975
1630070098149,1975
1630070098153,1975
1630070098157,1974
1630070098161,1974
1630070098165,1973
1630070098169,1973
1630070098173,1973
1630070098177,1972
1630070098181,1971
1630070098185,1971
1630070098189,1971
1630070098193,1971
1630070098197,1972
1630070098201,1972
1630070098205,1973
1630070098209,1973
1630070098213,1973
1630070098217,1974
1630070098221,1974
1630070098225,1974
1630070098229,1975
1630070098233,1976
1630070098237,1977
1630070098241,1978
1630070098245,1979
1630070098249,1979
1630070098253,1980
1630070098257,1980
1630070098261,1980
1630070098265,1981
1630070098269,1981
1630070098273,1983
1630070098277,1985
1630070098281,1988
1630070098285,1990
1630070098289,1993
1630070098293,1994
1630070098297,1995
1630070098301,1996
1630070098305,1997
1630070098309,1998
1630070098313,2000
1630070098317,2001
1630070098321,2003
1630070098325,2004
1630070098329,2006
1630070098333,2008
1630070098337,2010
1630070098341,2013
1630070098345,2015
1630070098349,2017
1630070098353,2020
1630070098357,2023
1630070098361,2025
1630070098365,2027
1630070098369,2029
1630070098373,2031
1630070098377,2033
1630070098381,2034
1630070098385,2036
1630070098389,2038
1630070098393,2040
1630070098397,2042
1630070098401,2044
1630070098405,2048
1630070098409,2051
1630070098413,2054
1630070098417,2057
1630070098421,2058
1630070098425,2058
1630070098429,2058
1630070098433,2059
1630070098437,2061
1630070098441,2063
1630070098445,2064
1630070098449,2066
1630070098453,2067
1630070098457,2068
1630070098461,2070
1630070098465,2072
1630070098469,2074
1630070098473,2077
1630070098477,2080
1630070098481,2083
1630070098485,2086
1630070098489,2089
1630070098493,2092
1630070098497,2094
1630070098501,2096
1630070098505,2097
1630070098509,2096
1630070098513,2096
1630070098517,2099
1630070098521,2107
1630070098525,2121
1630070098529,2144
1630070098533,2171
1630070098537,2198
1630070098541,2214
1630070098545,2214
1630070098549,2196
1630070098553,2166
1630070098557,2134
1630070098561,2111
1630070098565,2103
1630070098569,2107
1630070098573,2119
1630070098577,2130
1630070098581,2138
1630070098585,2141
1630070098589,2143
1630070098593,2145
1630070098597,2147
1630070098601,2150
1630070098605,2153
1630070098609,2155
1630070098613,2157
1630070098617,2158
1630070098621,2159
1630070098625,2161
1630070098629,2163
1630070098633,2166
1630070098637,2168
1630070098641,2170
1630070098645,2171
1630070098649,2172
1630070098653,2173
1630070098657,2175
1630070098661,2175
1630070098665,2176
1630070098669,2177
1630070098673,2178
1630070098677,2179
1630070098681,2180
1630070098685,2181
1630070098689,2182
1630070098693,2182
1630070098697,2182
1630070098701,2182
1630070098705,2182
1630070098709,2183
1630070098713,2183
1630070098717,2184
1630070098721,2184
1630070098725,2185
1630070098729,2185
1630070098733,2185
1630070098737,2185
1630070098741,2184
1630070098745,2183
1630070098749,2182
1630070098753,2181
1630070098757,2181
1630070098761,2180
1630070098765,2180
1630070098769,2179
1630070098773,2178
1630070098777,2177
1630070098781,2176
1630070098785,2176
1630070098789,2175
1630070098793,2175
1630070098797,2174
1630070098801,2174
1630070098805,2173
1630070098809,2172
1630070098813,2170
1630070098817,2169
1630070098821,2167
1630070098825,2166
1630070098829,2165
1630070098833,2165
1630070098837,2164
1630070098841,2163
1630070098845,2163
1630070098849,2162
1630070098853,2162
1630070098857,2162
1630070098861,2162
1630070098865,2162
1630070098869,2162
1630070098873,2163
1630070098877,2163
1630070098881,2163
1630070098885,2163
1630070098889,2163
1630070098893,2162
1630070098897,2161
1630070098901,2160
1630070098905,2160
1630070098909,2160
1630070098913,2160
1630070098917,2160
1630070098921,2161
1630070098925,2161
1630070098929,2160
1630070098933,2160
1630070098937,2159
1630070098941,2158
1630070098945,2158
1630070098949,2157
1630070098953,2157
1630070098957,2157
1630070098961,2157
1630070098965,2156
1630070098969,2156
1630070098973,2155
1630070098977,2154
1630070098981,2154
1630070098985,2153
1630070098989,2153
1630070098993,2153
1630070098997,2153
1630070099001,2153
1630070099005,2153
1630070099009,2153
1630070099013,2152
1630070099017,2151
1630070099021,2150
1630070099025,2150
1630070099029,2149
1630070099033,2149
1630070099037,2149
1630070099041,2149
1630070099045,2150
1630070099049,2151
1630070099053,2152
1630070099057,2153
1630070099061,2154
1630070099065,2154
1630070099069,2153
1630070099073,2152
1630070099077,2151
1630070099081,2150
1630070099085,2150
1630070099089,2149
1630070099093,2149
1630070099097,2149
1630070099101,2148
1630070099105,2148
1630070099109,2147
1630070099113,2147
1630070099117,2147
1630070099121,2147
1630070099125,2147
1630070099129,2147
1630070099133,2146
1630070099137,2146
1630070099141,2145
1630070099145,2145
1630070099149,2144
1630070099153,2143
1630070099157,2141
1630070099161,2140
1630070099165,2144
1630070099169,2153
1630070099173,2173
1630070099177,2198
1630070099181,2225
1630070099185,2243
1630070099189,2244
1630070099193,2226
1630070099197,2194
1630070099201,2158
1630070099205,2129
1630070099209,2114
1630070099213,2112
1630070099217,2117
1630070099221,2124
1630070099225,2130
1630070099229,2132
1630070099233,2134
1630070099237,2135
1630070099241,2135
1630070099245,2136
1630070099249,2135
1630070099253,2135
1630070099257,2135
1630070099261,2134
1630070099265,2134
1630070099269,2135
1630070099273,2135
1630070099277,2136
1630070099281,2136
1630070099285,2137
1630070099289,2137
1630070099293,2136
1630070099297,2136
1630070099301,2135
1630070099305,2135
1630070099309,2135
1630070099313,2136
1630070099317,2136
1630070099321,2137
1630070099325,2137
1630070099329,2137
1630070099333,2137
1630070099337,2137
1630070099341,2137
1630070099345,2137
1630070099349,2137
1630070099353,2137
1630070099357,2138
1630070099361,2138
1630070099365,2138
1630070099369,2138
1630070099373,2138
1630070099377,2137
1630070099381,2135
1630070099385,2134
1630070099389,2133
1630070099393,2133
1630070099397,2132
1630070099401,2131
1630070099405,2130
1630070099409,2128
1630070099413,2127
1630070099417,2125
1630070099421,2123
1630070099425,2122
1630070099429,2121
1630070099433,2121
1630070099437,2120
1630070099441,2119
1630070099445,2118
1630070099449,2117
1630070099453,2116
1630070099457,2115
1630070099461,2113
1630070099465,2111
1630070099469,2109
1630070099473,2107
1630070099477,2106
1630070099481,2106
1630070099485,2105
1630070099489,2104
1630070099493,2103
1630070099497,2102
1630070099501,2101
1630070099505,2100
1630070099509,2100
1630070099513,2099
1630070099517,2099
1630070099521,2099
1630070099525,2098
1630070099529,2098
1630070099533,2097
1630070099537,2096
1630070099541,2095
1630070099545,2095
1630070099549,2094
1630070099553,2094
1630070099557,2094
1630070099561,2094
1630070099565,2094
1630070099569,2093
1630070099573,2092
1630070099577,2092
1630070099581,2091
1630070099585,2090
1630070099589,2089
1630070099593,2089
1630070099597,2089
1630070099601,2089
1630070099605,2088
1630070099609,2087
1630070099613,2086
1630070099617,2084
1630070099621,2083
1630070099625,2083
1630070099629,2083
1630070099633,2083
1630070099637,2083
1630070099641,2082
1630070099645,2082
1630070099649,2081
1630070099653,2081
1630070099657,2080
1630070099661,2079
1630070099665,2078
1630070099669,2077
1630070099673,2076
1630070099677,2076
1630070099681,2076
1630070099685,2078
1630070099689,2079
1630070099693,2079
1630070099697,2079
1630070099701,2078
1630070099705,2076
1630070099709,2074
1630070099713,2072
1630070099717,2072
1630070099721,2072
1630070099725,2071
1630070099729,2070
1630070099733,2069
1630070099737,2068
1630070099741,2066
1630070099745,2066
1630070099749,2065
1630070099753,2065
1630070099757,2064
1630070099761,2063
1630070099765,2063
1630070099769,2062
1630070099773,2062
1630070099777,2062
1630070099781,2062
1630070099785,2060
1630070099789,2057
1630070099793,2054
1630070099797,2054
1630070099801,2059
1630070099805,2071
1630070099809,2091
1630070099813,2117
1630070099817,2143
1630070099821,2159
1630070099825,2159
1630070099829,2140
1630070099833,2108
1630070099837,2072
1630070099841,2045
1630070099845,2030
1630070099849,2030
1630070099853,2038
1630070099857,2047
1630070099861,2051
1630070099865,2054
1630070099869,2054
1630070099873,2053
1630070099877,2053
1630070099881,2053
1630070099885,2053
1630070099889,2053
1630070099893,2053
1630070099897,2053
1630070099901,2053
1630070099905,2053
1630070099909,2054
1630070099913,2054
1630070099917,2055
1630070099921,2055
1630070099925,2055
1630070099929,2055
1630070099933,2055
1630070099937,2055
1630070099941,2055
1630070099945,2055
1630070099949,2056
1630070099953,2057
1630070099957,2058
1630070099961,2059
1630070099965,2059
1630070099969,2059
1630070099973,2059
1630070099977,2059
1630070099981,2059
1630070099985,2059
1630070099989,2060
1630070099993,2060
1630070099997,2060
1630070100001,2060
1630070100005,2060
1630070100009,2060
1630070100013,2060
1630070100017,2059
1630070100021,2058
1630070100025,2058
1630070100029,2057
1630070100033,2056
1630070100037,2055
1630070100041,2054
1630070100045,2053
1630070100049,2051
1630070100053,2050
1630070100057,2049
1630070100061,2048
1630070100065,2048
1630070100069,2047
1630070100073,2047
1630070100077,2046
1630070100081,2046
1630070100085,2045
1630070100089,2044
1630070100093,2043
1630070100097,2041
1630070100101,2039
1630070100105,2038
1630070100109,2037
1630070100113,2037
1630070100117,2036
1630070100121,2036
1630070100125,2035
1630070100129,2034
1630070100133,2033
1630070100137,2033
1630070100141,2032
1630070100145,2032
1630070100149,2032
1630070100153,2031
1630070100157,2031
1630070100161,2031
1630070100165,2031
1630070100169,2030
1630070100173,2030
1630070100177,2029
1630070100181,2028
1630070100185,2028
1630070100189,2028
1630070100193,2028
1630070100197,2028
1630070100201,2028
1630070100205,2028
1630070100209,2026
1630070100213,2025
1630070100217,2024
1630070100221,2023
1630070100225,2023
1630070100229,2023
1630070100233,2023
1630070100237,2023
1630070100241,2022
1630070100245,2022
1630070100249,2022
1630070100253,2022
1630070100257,2022
1630070100261,2021
1630070100265,2021
1630070100269,2019
1630070100273,2019
1630070100277,2019
1630070100281,2019
1630070100285,2020
1630070100289,2020
1630070100293,2019
1630070100297,2019
1630070100301,2018
1630070100305,2018
1630070100309,2017
1630070100313,2017
1630070100317,2017
1630070100321,2017
1630070100325,2018
1630070100329,2019
1630070100333,2021
1630070100337,2022
1630070100341,2023
1630070100345,2022
1630070100349,2021
1630070100353,2020
1630070100357,2019
1630070100361,2019
1630070100365,2020
1630070100369,2019
1630070100373,2019
1630070100377,2019
1630070100381,2018
1630070100385,2018
1630070100389,2019
1630070100393,2019
1630070100397,2019
1630070100401,2020
1630070100405,2020
1630070100409,2020
1630070100413,2020
1630070100417,2020
1630070100421,2021
1630070100425,2021
1630070100429,2020
1630070100433,2018
1630070100437,2016
1630070100441,2016
1630070100445,2022
1630070100449,2035
1630070100453,2055
1630070100457,2081
1630070100461,2107
1630070100465,2122
1630070100469,2121
1630070100473,2101
1630070100477,2069
1630070100481,2036
1630070100485,2010
1630070100489,1999
1630070100493,2000
1630070100497,2009
1630070100501,2017
1630070100505,2022
1630070100509,2024
1630070100513,2023
1630070100517,2023
1630070100521,2023
1630070100525,2024
1630070100529,2024
1630070100533,2024
1630070100537,2025
1630070100541,2025
1630070100545,2026
1630070100549,2026
1630070100553,2027
1630070100557,2027
1630070100561,2028
1630070100565,2028
1630070100569,2029
1630070100573,2030
1630070100577,2030
1630070100581,2031
1630070100585,2031
1630070100589,2031
1630070100593,2032
1630070100597,2033
1630070100601,2034
1630070100605,2035
1630070100609,2036
1630070100613,2036
1630070100617,2036
1630070100621,2036
1630070100625,2037
1630070100629,2037
1630070100633,2038
1630070100637,2039
1630070100641,2039
1630070100645,2039
1630070100649,2039
1630070100653,2039
1630070100657,2039
1630070100661,2038
1630070100665,2037
1630070100669,2037
1630070100673,2036
1630070100677,2035
1630070100681,2035
1630070100685,2034
1630070100689,2034
1630070100693,2033
1630070100697,2032
1630070100701,2031
1630070100705,2030
1630070100709,2030
1630070100713,2029
1630070100717,2028
1630070100721,2028
1630070100725,2027
1630070100729,2026
1630070100733,2025
1630070100737,2023
1630070100741,2022
1630070100745,2020
1630070100749,2019
1630070100753,2019
1630070100757,2018
1630070100761,2018
1630070100765,2018
1630070100769,2018
1630070100773,2018
1630070100777,2017
1630070100781,2016
1630070100785,2015
1630070100789,2015
1630070100793,2015
1630070100797,2015
1630070100801,2016
1630070100805,2016
1630070100809,2016
1630070100813,2016
1630070100817,2017
1630070100821,2016
1630070100825,2016
1630070100829,2015
1630070100833,2015
1630070100837,2015
1630070100841,2016
1630070100845,2016
1630070100849,2016
1630070100853,2016
1630070100857,2016
1630070100861,2016
1630070100865,2015
1630070100869,2015
1630070100873,2015
1630070100877,2015
1630070100881,2015
1630070100885,2015
1630070100889,2015
1630070100893,2015
1630070100897,2015
1630070100901,2015
1630070100905,2015
1630070100909,2015
1630070100913,2015
1630070100917,2015
1630070100921,2015
1630070100925,2015
1630070100929,2015
1630070100933,2015
1630070100937,2015
1630070100941,2015
1630070100945,2015
1630070100949,2015
1630070100953,2015
1630070100957,2016
1630070100961,2016
1630070100965,2017
1630070100969,2019
1630070100973,2021
1630070100977,2022
1630070100981,2023
1630070100985,2023
1630070100989,2023
1630070100993,2022
1630070100997,2021
1630070101001,2021
1630070101005,2021
1630070101009,2021
1630070101013,2021
1630070101017,2021
1630070101021,2021
1630070101025,2021
1630070101029,2021
1630070101033,2022
1630070101037,2023
1630070101041,2023
1630070101045,2024
1630070101049,2024
1630070101053,2025
1630070101057,2025
1630070101061,2026
1630070101065,2026
1630070101069,2026
1630070101073,2026
1630070101077,2024
1630070101081,2025
1630070101085,2029
1630070101089,2038
1630070101093,2055
1630070101097,2079
1630070101101,2104
1630070101105,2123
1630070101109,2127
1630070101113,2114
1630070101117,2086
1630070101121,2053
1630070101125,2027
1630070101129,2012
1630070101133,2011
1630070101137,2018
1630070101141,2028
1630070101145,2035
1630070101149,2039
1630070101153,2040
1630070101157,2041
1630070101161,2042
1630070101165,2043
1630070101169,2044
1630070101173,2044
1630070101177,2045
1630070101181,2045
1630070101185,2046
1630070101189,2047
1630070101193,2048
1630070101197,2050
1630070101201,2051
1630070101205,2053
1630070101209,2053
1630070101213,2054
1630070101217,2055
1630070101221,2055
1630070101225,2056
1630070101229,2057
1630070101233,2058
1630070101237,2059
1630070101241,2061
1630070101245,2062
1630070101249,2063
1630070101253,2064
1630070101257,2064
1630070101261,2065
1630070101265,2065
1630070101269,2066
1630070101273,2067
1630070101277,2068
1630070101281,2069
1630070101285,2070
1630070101289,2071
1630070101293,2071
1630070101297,2071
1630070101301,2071
1630070101305,2071
1630070101309,2071
1630070101313,2071
1630070101317,2072
1630070101321,2072
1630070101325,2071
1630070101329,2071
1630070101333,2070
1630070101337,2070
1630070101341,2070
1630070101345,2070
1630070101349,2071
1630070101353,2071
1630070101357,2072
1630070101361,2072
1630070101365,2072
1630070101369,2071
1630070101373,2071
1630070101377,2070
1630070101381,2069
1630070101385,2069
1630070101389,2069
1630070101393,2068
1630070101397,2068
1630070101401,2068
1630070101405,2068
1630070101409,2068
1630070101413,2068
1630070101417,2069
1630070101421,2069
1630070101425,2069
1630070101429,2069
1630070101433,2070
1630070101437,2071
1630070101441,2072
1630070101445,2073
1630070101449,2073
1630070101453,2074
1630070101457,2073
1630070101461,2073
1630070101465,2073
1630070101469,2073
1630070101473,2074
1630070101477,2074
1630070101481,2075
1630070101485,2075
1630070101489,2075
1630070101493,2075
1630070101497,2075
1630070101501,2075
1630070101505,2075
1630070101509,2075
1630070101513,2075
1630070101517,2075
1630070101521,2075
1630070101525,2075
1630070101529,2074
1630070101533,2074
1630070101537,2073
1630070101541,2073
1630070101545,2074
1630070101549,2074
1630070101553,2075
1630070101557,2075
1630070101561,2075
1630070101565,2075
1630070101569,2076
1630070101573,2077
1630070101577,2077
1630070101581,2077
1630070101585,2077
1630070101589,2077
1630070101593,2078
1630070101597,2081
1630070101601,2083
1630070101605,2086
1630070101609,2087
1630070101613,2087
1630070101617,2087
1630070101621,2085
1630070101625,2084
1630070101629,2084
1630070101633,2084
1630070101637,2085
1630070101641,2085
1630070101645,2086
1630070101649,2086
1630070101653,2086
1630070101657,2086
1630070101661,2086
1630070101665,2085
1630070101669,2085
1630070101673,2085
1630070101677,2086
1630070101681,2086
1630070101685,2087
1630070101689,2087
1630070101693,2088
1630070101697,2087
1630070101701,2086
1630070101705,2084
1630070101709,2084
1630070101713,2087
1630070101717,2097
1630070101721,2114
1630070101725,2140
1630070101729,2167
1630070101733,2188
1630070101737,2195
1630070101741,2182
1630070101745,2154
1630070101749,2119
1630070101753,2088
1630070101757,2070
1630070101761,2065
1630070101765,2069
1630070101769,2078
1630070101773,2086
1630070101777,2091
1630070101781,2093
1630070101785,2095
1630070101789,2095
1630070101793,2095
1630070101797,2095
1630070101801,2096
1630070101805,2096
1630070101809,2097
1630070101813,2097
1630070101817,2098
1630070101821,2098
1630070101825,2099
1630070101829,2100
1630070101833,2101
1630070101837,2102
1630070101841,2103
1630070101845,2103
1630070101849,2104
1630070101853,2104
1630070101857,2105
1630070101861,2105
1630070101865,2105
1630070101869,2106
1630070101873,2107
1630070101877,2109
1630070101881,2110
1630070101885,2112
1630070101889,2113
1630070101893,2113
1630070101897,2113
1630070101901,2113
1630070101905,2113
1630070101909,2114
1630070101913,2115
1630070101917,2116
1630070101921,2117
1630070101925,2117
1630070101929,2117
1630070101933,2117
1630070101937,2116
1630070101941,2115
1630070101945,2115
1630070101949,2114
1630070101953,2113
1630070101957,2112
1630070101961,2112
1630070101965,2111
1630070101969,2111
1630070101973,2110
1630070101977,2110
1630070101981,2109
1630070101985,2108
1630070101989,2107
1630070101993,2107
1630070101997,2107
1630070102001,2107
1630070102005,2106
1630070102009,2105
1630070102013,2103
1630070102017,2101
1630070102021,2100
1630070102025,2098
1630070102029,2098
1630070102033,2097
1630070102037,2097
1630070102041,2096
1630070102045,2096
1630070102049,2095
1630070102053,2094
1630070102057,2094
1630070102061,2094
1630070102065,2094
1630070102069,2094
1630070102073,2095
1630070102077,2095
1630070102081,2095
1630070102085,2095
1630070102089,2094
1630070102093,2094
1630070102097,2093
1630070102101,2093
1630070102105,2093
1630070102109,2093
1630070102113,2093
1630070102117,2094
1630070102121,2094
1630070102125,2094
1630070102129,2094
1630070102133,2093
1630070102137,2093
1630070102141,2092
1630070102145,2091
1630070102149,2091
1630070102153,2091
1630070102157,2091
1630070102161,2091
1630070102165,2091
1630070102169,2090
1630070102173,2089
1630070102177,2088
1630070102181,2087
1630070102185,2086
1630070102189,2086
1630070102193,2086
1630070102197,2086
1630070102201,2086
1630070102205,2085
1630070102209,2084
1630070102213,2084
1630070102217,2085
1630070102221,2085
1630070102225,2086
1630070102229,2085
1630070102233,2084
1630070102237,2083
1630070102241,2082
1630070102245,2081
1630070102249,2080
1630070102253,2079
1630070102257,2078
1630070102261,2077
1630070102265,2076
1630070102269,2075
1630070102273,2075
1630070102277,2075
1630070102281,2074
1630070102285,2073
1630070102289,2072
1630070102293,2071
1630070102297,2070
1630070102301,2069
1630070102305,2069
1630070102309,2069
1630070102313,2068
1630070102317,2067
1630070102321,2064
1630070102325,2063
1630070102329,2066
1630070102333,2074
1630070102337,2091
1630070102341,2116
1630070102345,2143
1630070102349,2163
1630070102353,2168
1630070102357,2155
1630070102361,2125
1630070102365,2088
1630070102369,2055
1630070102373,2037
1630070102377,2031
1630070102381,2036
1630070102385,2045
1630070102389,2051
1630070102393,2055
1630070102397,2057
1630070102401,2057
1630070102405,2057
1630070102409,2056
1630070102413,2056
1630070102417,2056
1630070102421,2056
1630070102425,2056
1630070102429,2056
1630070102433,2057
1630070102437,2057
1630070102441,2058
1630070102445,2058
1630070102449,2058
1630070102453,2058
1630070102457,2058
1630070102461,2057
1630070102465,2057
1630070102469,2057
1630070102473,2057
1630070102477,2058
1630070102481,2058
1630070102485,2059
1630070102489,2059
1630070102493,2060
1630070102497,2060
1630070102501,2060
1630070102505,2060
1630070102509,2060
1630070102513,2061
1630070102517,2061
1630070102521,2061
1630070102525,2061
1630070102529,2061
1630070102533,2061
1630070102537,2060
1630070102541,2059
1630070102545,2058
1630070102549,2057
1630070102553,2056
1630070102557,2055
1630070102561,2054
1630070102565,2053
1630070102569,2052
1630070102573,2050
1630070102577,2049
1630070102581,2048
1630070102585,2047
1630070102589,2047
1630070102593,2046
1630070102597,2046
1630070102601,2046
1630070102605,2045
1630070102609,2044
1630070102613,2043
1630070102617,2041
1630070102621,2039
1630070102625,2038
1630070102629,2037
1630070102633,2037
1630070102637,2036
1630070102641,2035
1630070102645,2034
1630070102649,2034
1630070102653,2033
1630070102657,2032
1630070102661,2032
1630070102665,2031
1630070102669,2030
1630070102673,2030
1630070102677,2030
1630070102681,2030
1630070102685,2031
1630070102689,2031
1630070102693,2031
1630070102697,2031
1630070102701,2030
1630070102705,2030
1630070102709,2029
1630070102713,2029
1630070102717,2029
1630070102721,2030
1630070102725,2030
1630070102729,2030
1630070102733,2029
1630070102737,2029
1630070102741,2028
1630070102745,2027
1630070102749,2027
1630070102753,2027
1630070102757,2028
1630070102761,2028
1630070102765,2028
1630070102769,2027
1630070102773,2026
1630070102777,2025
1630070102781,2025
1630070102785,2025
1630070102789,2025
1630070102793,2025
1630070102797,2025
1630070102801,2025
1630070102805,2025
1630070102809,2025
1630070102813,2025
1630070102817,2024
1630070102821,2023
1630070102825,2023
1630070102829,2022
1630070102833,2022
1630070102837,2022
1630070102841,2024
1630070102845,2026
1630070102849,2028
1630070102853,2029
1630070102857,2028
1630070102861,2027
1630070102865,2025
1630070102869,2024
1630070102873,2024
1630070102877,2024
1630070102881,2024
1630070102885,2024
1630070102889,2023
1630070102893,2022
1630070102897,2021
1630070102901,2019
1630070102905,2019
1630070102909,2018
1630070102913,2018
1630070102917,2018
1630070102921,2017
1630070102925,2017
1630070102929,2016
1630070102933,2016
1630070102937,2015
1630070102941,2015
1630070102945,2013
1630070102949,2010
1630070102953,2008
1630070102957,2007
1630070102961,2013
1630070102965,2026
1630070102969,2047
1630070102973,2072
1630070102977,2097
1630070102981,2111
1630070102985,2108
1630070102989,2087
1630070102993,2053
1630070102997,2018
1630070103001,1992
1630070103005,1981
1630070103009,1983
1630070103013,1991
1630070103017,2000
1630070103021,2004
1630070103025,2005
1630070103029,2004
1630070103033,2003
1630070103037,2004
1630070103041,2004
1630070103045,2004
1630070103049,2004
1630070103053,2004
1630070103057,2003
1630070103061,2003
1630070103065,2003
1630070103069,2003
1630070103073,2004
1630070103077,2005
1630070103081,2005
1630070103085,2005
1630070103089,2005
1630070103093,2005
1630070103097,2005
1630070103101,2005
1630070103105,2005
1630070103109,2005
1630070103113,2006
1630070103117,2007
1630070103121,2007
1630070103125,2007
1630070103129,2007
1630070103133,2007
1630070103137,2005
1630070103141,2003
1630070103145,2001
1630070103149,1999
1630070103153,1997
1630070103157,1996
1630070103161,1994
1630070103165,1991
1630070103169,1989
1630070103173,1986
1630070103177,1983
1630070103181,1980
1630070103185,1977
1630070103189,1975
1630070103193,1972
1630070103197,1970
1630070103201,1968
1630070103205,1967
1630070103209,1965
1630070103213,1964
1630070103217,1963
1630070103221,1962
1630070103225,1961
1630070103229,1960
1630070103233,1960
1630070103237,1959
1630070103241,1958
1630070103245,1957
1630070103249,1956
1630070103253,1954
1630070103257,1952
1630070103261,1951
1630070103265,1949
1630070103269,1947
1630070103273,1946
1630070103277,1946
1630070103281,1945
1630070103285,1945
1630070103289,1945
1630070103293,1945
1630070103297,1944
1630070103301,1943
1630070103305,1943
1630070103309,1943
1630070103313,1944
1630070103317,1945
1630070103321,1945
1630070103325,1946
1630070103329,1946
1630070103333,1946
1630070103337,1946
1630070103341,1947
1630070103345,1947
1630070103349,1947
1630070103353,1948
1630070103357,1949
1630070103361,1950
1630070103365,1951
1630070103369,1951
1630070103373,1951
1630070103377,1951
1630070103381,1951
1630070103385,1951
1630070103389,1951
1630070103393,1952
1630070103397,1952
1630070103401,1953
1630070103405,1953
1630070103409,1954
1630070103413,1954
1630070103417,1953
1630070103421,1953
1630070103425,1953
1630070103429,1953
1630070103433,1954
1630070103437,1955
1630070103441,1956
1630070103445,1956
1630070103449,1957
1630070103453,1957
1630070103457,1957
1630070103461,1957
1630070103465,1957
1630070103469,1957
1630070103473,1958
1630070103477,1959
1630070103481,1960
1630070103485,1960
1630070103489,1961
1630070103493,1961
1630070103497,1962
1630070103501,1964
1630070103505,1967
1630070103509,1969
1630070103513,1970
1630070103517,1971
1630070103521,1971
1630070103525,1970
1630070103529,1970
1630070103533,1970
1630070103537,1970
1630070103541,1971
1630070103545,1971
1630070103549,1971
1630070103553,1972
1630070103557,1973
1630070103561,1974
1630070103565,1975
1630070103569,1975
1630070103573,1976
1630070103577,1976
1630070103581,1976
1630070103585,1976
1630070103589,1977
1630070103593,1978
1630070103597,1979
1630070103601,1979
1630070103605,1977
1630070103609,1976
1630070103613,1977
1630070103617,1983
1630070103621,1996
1630070103625,2017
1630070103629,2042
1630070103633,2065
1630070103637,2079
1630070103641,2077
1630070103645,2057
1630070103649,2026
1630070103653,1992
1630070103657,1968
1630070103661,1958
1630070103665,1961
1630070103669,1971
1630070103673,1981
1630070103677,1987
1630070103681,1989
1630070103685,1989
1630070103689,1989
1630070103693,1989
1630070103697,1989
1630070103701,1990
1630070103705,1991
1630070103709,1991
1630070103713,1992
1630070103717,1994
1630070103721,1995
1630070103725,1996
1630070103729,1997
1630070103733,1998
1630070103737,1998
1630070103741,1999
1630070103745,2001
1630070103749,2002
1630070103753,2004
1630070103757,2006
1630070103761,2008
1630070103765,2009
1630070103769,2010
1630070103773,2011
1630070103777,2012
1630070103781,2013
1630070103785,2014
1630070103789,2015
1630070103793,2016
1630070103797,2018
1630070103801,2019
1630070103805,2020
1630070103809,2021
1630070103813,2021
1630070103817,2022
1630070103821,2023
1630070103825,2024
1630070103829,2024
1630070103833,2025
1630070103837,2025
1630070103841,2025
1630070103845,2026
1630070103849,2026
1630070103853,2026
1630070103857,2026
1630070103861,2026
1630070103865,2027
1630070103869,2028
1630070103873,2029
1630070103877,2031
1630070103881,2033
1630070103885,2034
1630070103889,2034
1630070103893,2034
1630070103897,2033
1630070103901,2033
1630070103905,2034
1630070103909,2035
1630070103913,2036
1630070103917,2037
1630070103921,2038
1630070103925,2040
1630070103929,2041
1630070103933,2043
1630070103937,2044
1630070103941,2045
1630070103945,2046
1630070103949,2048
1630070103953,2050
1630070103957,2053
1630070103961,2057
1630070103965,2060
1630070103969,2064
1630070103973,2067
1630070103977,2070
1630070103981,2073
1630070103985,2075
1630070103989,2078
1630070103993,2080
1630070103997,2083
1630070104001,2085
1630070104005,2087
1630070104009,2089
1630070104013,2091
1630070104017,2092
1630070104021,2093
1630070104025,2094
1630070104029,2095
1630070104033,2096
1630070104037,2098
1630070104041,2099
1630070104045,2100
1630070104049,2100
1630070104053,2101
1630070104057,2101
1630070104061,2101
1630070104065,2102
1630070104069,2102
1630070104073,2104
1630070104077,2105
1630070104081,2107
1630070104085,2108
1630070104089,2108
1630070104093,2109
1630070104097,2109
1630070104101,2110
1630070104105,2111
1630070104109,2112
1630070104113,2112
1630070104117,2113
1630070104121,2113
1630070104125,2114
1630070104129,2114
1630070104133,2115
1630070104137,2115
1630070104141,2114
1630070104145,2114
1630070104149,2115
1630070104153,2116
1630070104157,2116
1630070104161,2117
1630070104165,2117
1630070104169,2117
1630070104173,2116
1630070104177,2116
1630070104181,2116
1630070104185,2118
1630070104189,2120
1630070104193,2123
1630070104197,2125
1630070104201,2125
1630070104205,2125
1630070104209,2123
1630070104213,2122
1630070104217,2121
1630070104221,2120
1630070104225,2120
1630070104229,2120
1630070104233,2120
1630070104237,2120
1630070104241,2120
1630070104245,2121
1630070104249,2121
1630070104253,2122
1630070104257,2121
1630070104261,2121
1630070104265,2121
1630070104269,2121
1630070104273,2122
1630070104277,2123
1630070104281,2123
1630070104285,2123
1630070104289,2121
1630070104293,2120
1630070104297,2122
1630070104301,2131
1630070104305,2148
1630070104309,2172
1630070104313,2199
1630070104317,2219
1630070104321,2224
1630070104325,2211
1630070104329,2183
1630070104333,2149
1630070104337,2120
1630070104341,2103
1630070104345,2099
1630070104349,2105
1630070104353,2114
1630070104357,2121
1630070104361,2126
1630070104365,2127
1630070104369,2128
1630070104373,2128
1630070104377,2127
1630070104381,2127
1630070104385,2127
1630070104389,2127
1630070104393,2127
1630070104397,2128
1630070104401,2129
1630070104405,2129
1630070104409,2128
1630070104413,2128
1630070104417,2127
1630070104421,2127
1630070104425,2128
1630070104429,2129
1630070104433,2130
1630070104437,2130
1630070104441,2131
1630070104445,2131
1630070104449,2131
1630070104453,2131
1630070104457,2131
1630070104461,2132
1630070104465,2132
1630070104469,2132
1630070104473,2132
1630070104477,2133
1630070104481,2134
1630070104485,2134
1630070104489,2135
1630070104493,2135
1630070104497,2135
1630070104501,2135
1630070104505,2135
1630070104509,2135
1630070104513,2134
1630070104517,2134
1630070104521,2134
1630070104525,2133
1630070104529,2132
1630070104533,2132
1630070104537,2130
1630070104541,2129
1630070104545,2129
1630070104549,2128
1630070104553,2127
1630070104557,2127
1630070104561,2126
1630070104565,2126
1630070104569,2126
1630070104573,2125
1630070104577,2124
1630070104581,2123
1630070104585,2122
1630070104589,2121
1630070104593,2120
1630070104597,2119
1630070104601,2119
1630070104605,2118
1630070104609,2117
1630070104613,2117
1630070104617,2116
1630070104621,2115
1630070104625,2115
1630070104629,2115
1630070104633,2115
1630070104637,2115
1630070104641,2115
1630070104645,2116
1630070104649,2116
1630070104653,2116
1630070104657,2116
1630070104661,2115
1630070104665,2115
1630070104669,2115
1630070104673,2115
1630070104677,2115
1630070104681,2115
1630070104685,2115
1630070104689,2115
1630070104693,2115
1630070104697,2115
1630070104701,2114
1630070104705,2114
1630070104709,2113
1630070104713,2113
1630070104717,2113
1630070104721,2113
1630070104725,2112
1630070104729,2112
1630070104733,2111
1630070104737,2111
1630070104741,2110
1630070104745,2110
1630070104749,2110
1630070104753,2110
1630070104757,2109
1630070104761,2109
1630070104765,2108
1630070104769,2108
1630070104773,2107
1630070104777,2106
1630070104781,2105
1630070104785,2105
1630070104789,2105
1630070104793,2105
1630070104797,2105
1630070104801,2105
1630070104805,2105
1630070104809,2104
1630070104813,2104
1630070104817,2103
1630070104821,2102
1630070104825,2101
1630070104829,2100
1630070104833,2100
1630070104837,2100
1630070104841,2099
1630070104845,2099
1630070104849,2099
1630070104853,2099
1630070104857,2100
1630070104861,2101
1630070104865,2102
1630070104869,2101
1630070104873,2099
1630070104877,2098
1630070104881,2096
1630070104885,2095
1630070104889,2095
1630070104893,2094
1630070104897,2093
1630070104901,2092
1630070104905,2091
1630070104909,2090
1630070104913,2090
1630070104917,2090
1630070104921,2089
1630070104925,2089
1630070104929,2088
1630070104933,2088
1630070104937,2087
1630070104941,2087
1630070104945,2087
1630070104949,2086
1630070104953,2084
1630070104957,2081
1630070104961,2080
1630070104965,2082
1630070104969,2090
1630070104973,2107
1630070104977,2131
1630070104981,2157
1630070104985,2177
1630070104989,2183
1630070104993,2169
1630070104997,2139
1630070105001,2102
1630070105005,2071
1630070105009,2051
1630070105013,2046
1630070105017,2049
1630070105021,2058
1630070105025,2065
1630070105029,2069
1630070105033,2071
1630070105037,2072
1630070105041,2071
1630070105045,2071
1630070105049,2071
1630070105053,2070
1630070105057,2070
1630070105061,2069
1630070105065,2069
1630070105069,2069
1630070105073,2069
1630070105077,2070
1630070105081,2070
1630070105085,2070
1630070105089,2071
1630070105093,2070
1630070105097,2070
1630070105101,2069
1630070105105,2070
1630070105109,2070
1630070105113,2071
1630070105117,2071
1630070105121,2072
1630070105125,2072
1630070105129,2072
1630070105133,2072
1630070105137,2071
1630070105141,2071
1630070105145,2071
1630070105149,2071
1630070105153,2071
1630070105157,2072
1630070105161,2073
1630070105165,2073
1630070105169,2072
1630070105173,2071
1630070105177,2069
1630070105181,2068
1630070105185,2067
1630070105189,2067
1630070105193,2065
1630070105197,2064
1630070105201,2063
1630070105205,2062
1630070105209,2060
1630070105213,2059
1630070105217,2057
1630070105221,2055
1630070105225,2054
1630070105229,2053
1630070105233,2052
1630070105237,2052
1630070105241,2051
1630070105245,2050
1630070105249,2049
1630070105253,2048
1630070105257,2046
1630070105261,2044
1630070105265,2043
1630070105269,2041
1630070105273,2041
1630070105277,2040
1630070105281,2039
1630070105285,2039
1630070105289,2038
1630070105293,2037
1630070105297,2036
1630070105301,2035
1630070105305,2034
1630070105309,2033
1630070105313,2033
1630070105317,2033
1630070105321,2033
1630070105325,2033
1630070105329,2032
1630070105333,2032
1630070105337,2031
1630070105341,2031
1630070105345,2031
1630070105349,2031
1630070105353,2030
1630070105357,2030
1630070105361,2029
1630070105365,2029
1630070105369,2029
1630070105373,2029
1630070105377,2028
1630070105381,2027
1630070105385,2027
1630070105389,2027
1630070105393,2026
1630070105397,2026
1630070105401,2026
1630070105405,2025
1630070105409,2024
1630070105413,2023
1630070105417,2021
1630070105421,2021
1630070105425,2020
1630070105429,2020
1630070105433,2019
1630070105437,2019
1630070105441,2019
1630070105445,2019
1630070105449,2018
1630070105453,2018
1630070105457,2017
1630070105461,2015
1630070105465,2013
1630070105469,2012
1630070105473,2011
1630070105477,2011
1630070105481,2010
1630070105485,2009
1630070105489,2008
1630070105493,2006
1630070105497,2004
1630070105501,2003
1630070105505,2002
1630070105509,2001
1630070105513,2001
1630070105517,2001
1630070105521,2000
1630070105525,2000
1630070105529,2000
1630070105533,1999
1630070105537,1999
1630070105541,2000
1630070105545,2001
1630070105549,2002
1630070105553,2003
1630070105557,2003
1630070105561,2002
1630070105565,2001
1630070105569,1999
1630070105573,1998
1630070105577,1997
1630070105581,1997
1630070105585,1996
1630070105589,1996
1630070105593,1995
1630070105597,1995
1630070105601,1995
1630070105605,1995
1630070105609,1995
1630070105613,1995
1630070105617,1994
1630070105621,1993
1630070105625,1992
1630070105629,1992
1630070105633,1993
1630070105637,1992
1630070105641,1991
1630070105645,1988
1630070105649,1986
1630070105653,1987
1630070105657,1994
1630070105661,2008
1630070105665,2030
1630070105669,2056
1630070105673,2081
1630070105677,2095
1630070105681,2091
1630070105685,2069
1630070105689,2036
1630070105693,2001
1630070105697,1975
1630070105701,1964
1630070105705,1967
1630070105709,1976
1630070105713,1985
1630070105717,1990
1630070105721,1991
1630070105725,1991
1630070105729,1990
1630070105733,1989
1630070105737,1989
1630070105741,1988
1630070105745,1987
1630070105749,1987
1630070105753,1986
1630070105757,1986
1630070105761,1986
1630070105765,1986
1630070105769,1986
1630070105773,1986
1630070105777,1987
1630070105781,1987
1630070105785,1987
1630070105789,1988
1630070105793,1989
1630070105797,1989
1630070105801,1990
1630070105805,1990
1630070105809,1990
1630070105813,1990
1630070105817,1989
1630070105821,1989
1630070105825,1988
1630070105829,1988
1630070105833,1987
1630070105837,1986
1630070105841,1985
1630070105845,1984
1630070105849,1982
1630070105853,1980
1630070105857,1978
1630070105861,1976
1630070105865,1974
1630070105869,1972
1630070105873,1970
1630070105877,1969
1630070105881,1967
1630070105885,1966
1630070105889,1964
1630070105893,1962
1630070105897,1960
1630070105901,1959
1630070105905,1957
1630070105909,1956
1630070105913,1955
1630070105917,1955
1630070105921,1954
1630070105925,1953
1630070105929,1952
1630070105933,1951
1630070105937,1950
1630070105941,1948
1630070105945,1947
1630070105949,1946
1630070105953,1945
1630070105957,1945
1630070105961,1944
1630070105965,1944
1630070105969,1943
1630070105973,1943
1630070105977,1942
1630070105981,1941
1630070105985,1941
1630070105989,1941
1630070105993,1941
1630070105997,1941
1630070106001,1942
1630070106005,1943
1630070106009,1943
1630070106013,1944
1630070106017,1944
1630070106021,1944
1630070106025,1944
1630070106029,1944
1630070106033,1945
1630070106037,1946
1630070106041,1947
1630070106045,1948
1630070106049,1949
1630070106053,1949
1630070106057,1949
1630070106061,1949
1630070106065,1949
1630070106069,1950
1630070106073,1951
1630070106077,1952
1630070106081,1953
1630070106085,1953
1630070106089,1953
1630070106093,1953
1630070106097,1953
1630070106101,1953
1630070106105,1954
1630070106109,1954
1630070106113,1954
1630070106117,1955
1630070106121,1956
1630070106125,1957
1630070106129,1957
1630070106133,1958
1630070106137,1958
1630070106141,1958
1630070106145,1959
1630070106149,1959
1630070106153,1960
1630070106157,1961
1630070106161,1962
1630070106165,1964
1630070106169,1964
1630070106173,1964
1630070106177,1964
1630070106181,1964
1630070106185,1964
1630070106189,1965
1630070106193,1966
1630070106197,1967
1630070106201,1968
1630070106205,1969
1630070106209,1969
1630070106213,1969
1630070106217,1970
1630070106221,1970
1630070106225,1971
1630070106229,1971
1630070106233,1972
1630070106237,1974
1630070106241,1976
1630070106245,1979
1630070106249,1981
1630070106253,1983
1630070106257,1982
1630070106261,1982
1630070106265,1981
1630070106269,1980
1630070106273,1981
1630070106277,1982
1630070106281,1983
1630070106285,1983
1630070106289,1984
1630070106293,1984
1630070106297,1984
1630070106301,1985
1630070106305,1985
1630070106309,1986
1630070106313,1987
1630070106317,1988
1630070106321,1989
1630070106325,1990
1630070106329,1991
1630070106333,1992
1630070106337,1993
1630070106341,1991
1630070106345,1989
1630070106349,1989
1630070106353,1993
1630070106357,2005
1630070106361,2024
1630070106365,2048
1630070106369,2074
1630070106373,2093
1630070106377,2096
1630070106381,2082
1630070106385,2054
1630070106389,2021
1630070106393,1994
1630070106397,1980
1630070106401,1980
1630070106405,1989
1630070106409,1999
1630070106413,2007
1630070106417,2010
1630070106421,2011
1630070106425,2011
1630070106429,2012
1630070106433,2014
1630070106437,2015
1630070106441,2017
1630070106445,2019
1630070106449,2021
1630070106453,2024
1630070106457,2026
1630070106461,2030
1630070106465,2033
1630070106469,2037
1630070106473,2041
1630070106477,2044
1630070106481,2047
1630070106485,2049
1630070106489,2053
1630070106493,2056
1630070106497,2059
1630070106501,2062
1630070106505,2065
1630070106509,2069
1630070106513,2073
1630070106517,2077
1630070106521,2082
1630070106525,2085
1630070106529,2088
1630070106533,2090
1630070106537,2092
1630070106541,2092
1630070106545,2094
1630070106549,2095
1630070106553,2097
1630070106557,2099
1630070106561,2101
1630070106565,2103
1630070106569,2105
1630070106573,2107
1630070106577,2109
1630070106581,2110
1630070106585,2111
1630070106589,2112
1630070106593,2113
1630070106597,2114
1630070106601,2114
1630070106605,2115
1630070106609,2116
1630070106613,2117
1630070106617,2118
1630070106621,2118
1630070106625,2118
1630070106629,2119
1630070106633,2119
1630070106637,2119
1630070106641,2119
1630070106645,2119
1630070106649,2119
1630070106653,2118
1630070106657,2118
1630070106661,2117
1630070106665,2117
1630070106669,2117
1630070106673,2118
1630070106677,2119
1630070106681,2119
1630070106685,2120
1630070106689,2120
1630070106693,2121
1630070106697,2121
1630070106701,2122
1630070106705,2122
1630070106709,2122
1630070106713,2123
1630070106717,2123
1630070106721,2124
1630070106725,2125
1630070106729,2126
1630070106733,2126
1630070106737,2126
1630070106741,2126
1630070106745,2126
1630070106749,2127
1630070106753,2127
1630070106757,2127
1630070106761,2128
1630070106765,2128
1630070106769,2128
1630070106773,2128
1630070106777,2128
1630070106781,2127
1630070106785,2126
1630070106789,2126
1630070106793,2126
1630070106797,2126
1630070106801,2126
1630070106805,2126
1630070106809,2126
1630070106813,2125
1630070106817,2125
1630070106821,2124
1630070106825,2124
1630070106829,2123
1630070106833,2123
1630070106837,2123
1630070106841,2123
1630070106845,2123
1630070106849,2123
1630070106853,2123
1630070106857,2123
1630070106861,2123
1630070106865,2124
1630070106869,2124
1630070106873,2125
1630070106877,2125
1630070106881,2125
1630070106885,2125
1630070106889,2125
1630070106893,2125
1630070106897,2125
1630070106901,2125
1630070106905,2125
1630070106909,2125
1630070106913,2125
1630070106917,2125
1630070106921,2125
1630070106925,2125
1630070106929,2126
1630070106933,2126
1630070106937,2127
1630070106941,2129
1630070106945,2130
1630070106949,2130
1630070106953,2129
1630070106957,2129
1630070106961,2128
1630070106965,2127
1630070106969,2127
1630070106973,2126
1630070106977,2126
1630070106981,2125
1630070106985,2124
1630070106989,2124
1630070106993,2123
1630070106997,2124
1630070107001,2124
1630070107005,2124
1630070107009,2125
1630070107013,2125
1630070107017,2125
1630070107021,2125
1630070107025,2125
1630070107029,2125
1630070107033,2124
1630070107037,2122
1630070107041,2120
1630070107045,2122
1630070107049,2131
1630070107053,2148
1630070107057,2173
1630070107061,2200
1630070107065,2221
1630070107069,2228
1630070107073,2217
1630070107077,2189
1630070107081,2154
1630070107085,2122
1630070107089,2101
1630070107093,2094
1630070107097,2098
1630070107101,2106
1630070107105,2114
1630070107109,2118
1630070107113,2121
1630070107117,2123
1630070107121,2124
1630070107125,2124
1630070107129,2125
1630070107133,2125
1630070107137,2125
1630070107141,2125
1630070107145,2126
1630070107149,2126
1630070107153,2127
1630070107157,2127
1630070107161,2127
1630070107165,2128
1630070107169,2128
1630070107173,2128
1630070107177,2128
1630070107181,2128
1630070107185,2128
1630070107189,2129
1630070107193,2129
1630070107197,2130
1630070107201,2131
1630070107205,2131
1630070107209,2131
1630070107213,2131
1630070107217,2132
1630070107221,2133
1630070107225,2134
1630070107229,2135
1630070107233,2136
1630070107237,2137
1630070107241,2137
1630070107245,2138
1630070107249,2138
1630070107253,2138
1630070107257,2138
1630070107261,2137
1630070107265,2136
1630070107269,2135
1630070107273,2134
1630070107277,2132
1630070107281,2132
1630070107285,2131
1630070107289,2129
1630070107293,2128
1630070107297,2127
1630070107301,2125
1630070107305,2124
1630070107309,2123
1630070107313,2123
1630070107317,2122
1630070107321,2122
1630070107325,2121
1630070107329,2119
1630070107333,2118
1630070107337,2116
1630070107341,2114
1630070107345,2112
1630070107349,2111
1630070107353,2110
1630070107357,2109
1630070107361,2107
1630070107365,2106
1630070107369,2105
1630070107373,2104
1630070107377,2103
1630070107381,2102
1630070107385,2101
1630070107389,2101
1630070107393,2100
1630070107397,2100
1630070107401,2100
1630070107405,2100
1630070107409,2100
1630070107413,2099
1630070107417,2098
1630070107421,2098
1630070107425,2097
1630070107429,2097
1630070107433,2097
1630070107437,2097
1630070107441,2096
1630070107445,2096
1630070107449,2095
1630070107453,2094
1630070107457,2093
1630070107461,2092
1630070107465,2091
1630070107469,2090
1630070107473,2090
1630070107477,2090
1630070107481,2089
1630070107485,2088
1630070107489,2087
1630070107493,2085
1630070107497,2084
1630070107501,2083
1630070107505,2082
1630070107509,2081
1630070107513,2081
1630070107517,2080
1630070107521,2079
1630070107525,2079
1630070107529,2078
1630070107533,2077
1630070107537,2076
1630070107541,2074
1630070107545,2074
1630070107549,2073
1630070107553,2072
1630070107557,2072
1630070107561,2071
1630070107565,2070
1630070107569,2070
1630070107573,2069
1630070107577,2068
1630070107581,2067
1630070107585,2066
1630070107589,2065
1630070107593,2065
1630070107597,2066
1630070107601,2068
1630070107605,2069
1630070107609,2070
1630070107613,2069
1630070107617,2067
1630070107621,2064
1630070107625,2063
1630070107629,2061
1630070107633,2060
1630070107637,2060
1630070107641,2059
1630070107645,2059
1630070107649,2058
1630070107653,2057
1630070107657,2055
1630070107661,2054
1630070107665,2053
1630070107669,2053
1630070107673,2052
1630070107677,2052
1630070107681,2052
1630070107685,2052
1630070107689,2052
1630070107693,2051
1630070107697,2049
1630070107701,2046
1630070107705,2043
1630070107709,2043
1630070107713,2049
1630070107717,2064
1630070107721,2088
1630070107725,2116
1630070107729,2139
1630070107733,2150
1630070107737,2142
1630070107741,2116
1630070107745,2080
1630070107749,2046
1630070107753,2022
1630070107757,2013
1630070107761,2016
1630070107765,2025
1630070107769,2033
1630070107773,2037
1630070107777,2038
1630070107781,2037
1630070107785,2036
1630070107789,2035
1630070107793,2034
1630070107797,2035
1630070107801,2035
1630070107805,2035
1630070107809,2035
1630070107813,2035
1630070107817,2035
1630070107821,2034
1630070107825,2034
1630070107829,2034
1630070107833,2034
1630070107837,2034
1630070107841,2035
1630070107845,2035
1630070107849,2035
1630070107853,2034
1630070107857,2034
1630070107861,2034
1630070107865,2033
1630070107869,2033
1630070107873,2034
1630070107877,2035
1630070107881,2035
1630070107885,2036
1630070107889,2036
1630070107893,2035
1630070107897,2035
1630070107901,2034
1630070107905,2033
1630070107909,2032
1630070107913,2032
1630070107917,2031
1630070107921,2031
1630070107925,2030
1630070107929,2027
1630070107933,2024
1630070107937,2021
1630070107941,2017
1630070107945,2014
1630070107949,2011
1630070107953,2008
1630070107957,2004
1630070107961,2001
1630070107965,1997
1630070107969,1994
1630070107973,1991
1630070107977,1988
1630070107981,1986
1630070107985,1983
1630070107989,1980
1630070107993,1978
1630070107997,1975
1630070108001,1973
1630070108005,1970
1630070108009,1968
1630070108013,1966
1630070108017,1964
1630070108021,1962
1630070108025,1960
1630070108029,1959
1630070108033,1957
1630070108037,1956
1630070108041,1956
1630070108045,1955
1630070108049,1954
1630070108053,1953
1630070108057,1952
1630070108061,1951
1630070108065,1950
1630070108069,1950
1630070108073,1950
1630070108077,1951
1630070108081,1951
1630070108085,1951
1630070108089,1950
1630070108093,1949
1630070108097,1948
1630070108101,1947
1630070108105,1947
1630070108109,1947
1630070108113,1948
1630070108117,1949
1630070108121,1950
1630070108125,1950
1630070108129,1950
1630070108133,1950
1630070108137,1950
1630070108141,1950
1630070108145,1950
1630070108149,1950
1630070108153,1950
1630070108157,1951
1630070108161,1950
1630070108165,1950
1630070108169,1950
1630070108173,1950
1630070108177,1950
1630070108181,1949
1630070108185,1950
1630070108189,1949
1630070108193,1950
1630070108197,1951
1630070108201,1951
1630070108205,1952
1630070108209,1952
1630070108213,1952
1630070108217,1952
1630070108221,1952
1630070108225,1953
1630070108229,1952
1630070108233,1953
1630070108237,1953
1630070108241,1953
1630070108245,1954
1630070108249,1955
1630070108253,1955
1630070108257,1956
1630070108261,1956
1630070108265,1956
1630070108269,1956
1630070108273,1958
1630070108277,1960
1630070108281,1962
1630070108285,1965
1630070108289,1966
1630070108293,1966
1630070108297,1965
1630070108301,1964
1630070108305,1963
1630070108309,1963
1630070108313,1964
1630070108317,1965
1630070108321,1965
1630070108325,1965
1630070108329,1965
1630070108333,1965
1630070108337,1965
1630070108341,1965
1630070108345,1965
1630070108349,1966
1630070108353,1966
1630070108357,1967
1630070108361,1967
1630070108365,1968
1630070108369,1969
1630070108373,1969
1630070108377,1967
1630070108381,1965
1630070108385,1964
1630070108389,1966
1630070108393,1976
1630070108397,1993
1630070108401,2017
1630070108405,2044
1630070108409,2065
1630070108413,2073
1630070108417,2063
1630070108421,2037
1630070108425,2002
1630070108429,1969
1630070108433,1950
1630070108437,1945
1630070108441,1951
1630070108445,1961
1630070108449,1969
1630070108453,1972
1630070108457,1973
1630070108461,1972
1630070108465,1971
1630070108469,1971
1630070108473,1972
1630070108477,1973
1630070108481,1975
1630070108485,1976
1630070108489,1976
1630070108493,1977
1630070108497,1977
1630070108501,1978
1630070108505,1978
1630070108509,1980
1630070108513,1981
1630070108517,1982
1630070108521,1983
1630070108525,1985
1630070108529,1986
1630070108533,1987
1630070108537,1987
1630070108541,1988
1630070108545,1989
1630070108549,1990
1630070108553,1991
1630070108557,1993
1630070108561,1994
1630070108565,1995
1630070108569,1996
1630070108573,1997
1630070108577,1997
1630070108581,1998
1630070108585,1998
1630070108589,1999
1630070108593,2000
1630070108597,2001
1630070108601,2001
1630070108605,2001
1630070108609,2001
1630070108613,2000
1630070108617,1999
1630070108621,1998
1630070108625,1998
1630070108629,1997
1630070108633,1996
1630070108637,1996
1630070108641,1995
1630070108645,1995
1630070108649,1994
1630070108653,1994
1630070108657,1993
1630070108661,1993
1630070108665,1992
1630070108669,1992
1630070108673,1992
1630070108677,1991
1630070108681,1991
1630070108685,1990
1630070108689,1989
1630070108693,1988
1630070108697,1987
1630070108701,1986
1630070108705,1985
1630070108709,1985
1630070108713,1985
1630070108717,1985
1630070108721,1985
1630070108725,1985
1630070108729,1985
1630070108733,1984
1630070108737,1984
1630070108741,1984
1630070108745,1984
1630070108749,1985
1630070108753,1986
1630070108757,1986
1630070108761,1987
1630070108765,1988
1630070108769,1988
1630070108773,1988
1630070108777,1989
1630070108781,1988
1630070108785,1989
1630070108789,1989
1630070108793,1989
1630070108797,1990
1630070108801,1991
1630070108805,1992
1630070108809,1992
1630070108813,1992
1630070108817,1992
1630070108821,1992
1630070108825,1993
1630070108829,1993
1630070108833,1993
1630070108837,1994
1630070108841,1995
1630070108845,1995
1630070108849,1995
1630070108853,1996
1630070108857,1996
1630070108861,1996
1630070108865,1996
1630070108869,1996
1630070108873,1997
1630070108877,1998
1630070108881,1998
1630070108885,1998
1630070108889,1999
1630070108893,1999
1630070108897,1999
1630070108901,2000
1630070108905,2000
1630070108909,2001
1630070108913,2001
1630070108917,2002
1630070108921,2003
1630070108925,2004
1630070108929,2004
1630070108933,2004
1630070108937,2004
1630070108941,2004
1630070108945,2006
1630070108949,2009
1630070108953,2013
1630070108957,2016
1630070108961,2018
1630070108965,2019
1630070108969,2019
1630070108973,2018
1630070108977,2018
1630070108981,2018
1630070108985,2018
1630070108989,2019
1630070108993,2020
1630070108997,2020
1630070109001,2021
1630070109005,2022
1630070109009,2023
1630070109013,2024
1630070109017,2025
1630070109021,2027
1630070109025,2029
1630070109029,2032
1630070109033,2035
1630070109037,2038
1630070109041,2041
1630070109045,2043
1630070109049,2044
1630070109053,2045
1630070109057,2046
1630070109061,2050
1630070109065,2061
1630070109069,2080
1630070109073,2107
1630070109077,2136
1630070109081,2159
1630070109085,2168
1630070109089,2158
1630070109093,2133
1630070109097,2100
1630070109101,2073
1630070109105,2060
1630070109109,2060
1630070109113,2071
1630070109117,2086
1630070109121,2098
1630070109125,2105
1630070109129,2109
1630070109133,2111
1630070109137,2113
1630070109141,2114
1630070109145,2116
1630070109149,2118
1630070109153,2121
1630070109157,2124
1630070109161,2126
1630070109165,2128
1630070109169,2130
1630070109173,2131
1630070109177,2132
1630070109181,2133
1630070109185,2135
1630070109189,2137
1630070109193,2140
1630070109197,2142
1630070109201,2144
1630070109205,2145
1630070109209,2146
1630070109213,2147
1630070109217,2148
1630070109221,2149
1630070109225,2151
1630070109229,2152
1630070109233,2153
1630070109237,2154
1630070109241,2154
1630070109245,2155
1630070109249,2155
1630070109253,2154
1630070109257,2154
1630070109261,2154
1630070109265,2153
1630070109269,2153
1630070109273,2154
1630070109277,2154
1630070109281,2154
1630070109285,2154
1630070109289,2154
1630070109293,2153
1630070109297,2152
1630070109301,2150
1630070109305,2149
1630070109309,2148
1630070109313,2148
1630070109317,2148
1630070109321,2147
1630070109325,2147
1630070109329,2146
1630070109333,2145
1630070109337,2144
1630070109341,2144
1630070109345,2143
1630070109349,2142
1630070109353,2141
1630070109357,2140
1630070109361,2139
1630070109365,2139
1630070109369,2139
1630070109373,2138
1630070109377,2137
1630070109381,2136
1630070109385,2136
1630070109389,2136
1630070109393,2136
1630070109397,2136
1630070109401,2136
1630070109405,2136
1630070109409,2136
1630070109413,2136
1630070109417,2136
1630070109421,2136
1630070109425,2136
1630070109429,2136
1630070109433,2136
1630070109437,2136
1630070109441,2136
1630070109445,2137
1630070109449,2136
1630070109453,2136
1630070109457,2136
1630070109461,2135
1630070109465,2134
1630070109469,2134
1630070109473,2135
1630070109477,2135
1630070109481,2135
1630070109485,2135
1630070109489,2135
1630070109493,2134
1630070109497,2134
1630070109501,2133
1630070109505,2133
1630070109509,2133
1630070109513,2133
1630070109517,2133
1630070109521,2132
1630070109525,2133
1630070109529,2133
1630070109533,2133
1630070109537,2133
1630070109541,2133
1630070109545,2132
1630070109549,2131
1630070109553,2131
1630070109557,2131
1630070109561,2131
1630070109565,2131
1630070109569,2131
1630070109573,2131
1630070109577,2130
1630070109581,2129
1630070109585,2129
1630070109589,2130
1630070109593,2131
1630070109597,2133
1630070109601,2135
1630070109605,2136
1630070109609,2136
1630070109613,2135
1630070109617,2134
1630070109621,2132
1630070109625,2131
1630070109629,2130
1630070109633,2130
1630070109637,2130
1630070109641,2130
1630070109645,2130
1630070109649,2131
1630070109653,2131
1630070109657,2131
1630070109661,2131
1630070109665,2130
1630070109669,2130
1630070109673,2131
1630070109677,2131
1630070109681,2132
1630070109685,2133
1630070109689,2132
1630070109693,2131
1630070109697,2128
1630070109701,2126
1630070109705,2128
1630070109709,2136
1630070109713,2152
1630070109717,2178
1630070109721,2207
1630070109725,2231
1630070109729,2241
1630070109733,2230
1630070109737,2202
1630070109741,2164
1630070109745,2130
1630070109749,2107
1630070109753,2099
1630070109757,2103
1630070109761,2111
1630070109765,2119
1630070109769,2124
1630070109773,2126
1630070109777,2127
1630070109781,2127
1630070109785,2127
1630070109789,2127
1630070109793,2128
1630070109797,2128
1630070109801,2128
1630070109805,2129
1630070109809,2129
1630070109813,2129
1630070109817,2129
1630070109821,2128
1630070109825,2128
1630070109829,2128
1630070109833,2128
1630070109837,2129
1630070109841,2129
1630070109845,2130
1630070109849,2130
1630070109853,2130
1630070109857,2130
1630070109861,2130
1630070109865,2130
1630070109869,2129
1630070109873,2130
1630070109877,2130
1630070109881,2131
1630070109885,2132
1630070109889,2132
1630070109893,2133
1630070109897,2133
1630070109901,2133
1630070109905,2133
1630070109909,2133
1630070109913,2133
1630070109917,2133
1630070109921,2133
1630070109925,2133
1630070109929,2132
1630070109933,2130
1630070109937,2129
1630070109941,2127
1630070109945,2125
1630070109949,2124
1630070109953,2123
1630070109957,2123
1630070109961,2122
1630070109965,2121
1630070109969,2121
1630070109973,2120
1630070109977,2119
1630070109981,2118
1630070109985,2118
1630070109989,2117
1630070109993,2116
1630070109997,2115
1630070110001,2113
1630070110005,2112
1630070110009,2110
1630070110013,2108
1630070110017,2106
1630070110021,2105
1630070110025,2104
1630070110029,2103
1630070110033,2102
1630070110037,2102
1630070110041,2102
1630070110045,2102
1630070110049,2102
1630070110053,2101
1630070110057,2100
1630070110061,2100
1630070110065,2099
1630070110069,2099
1630070110073,2099
1630070110077,2099
1630070110081,2099
1630070110085,2099
1630070110089,2099
1630070110093,2098
1630070110097,2097
1630070110101,2097
1630070110105,2096
1630070110109,2096
1630070110113,2096
1630070110117,2096
1630070110121,2095
1630070110125,2095
1630070110129,2094
1630070110133,2093
1630070110137,2092
1630070110141,2092
1630070110145,2091
1630070110149,2090
1630070110153,2090
1630070110157,2090
1630070110161,2089
1630070110165,2089
1630070110169,2088
1630070110173,2087
1630070110177,2087
1630070110181,2086
1630070110185,2085
1630070110189,2085
1630070110193,2085
1630070110197,2085
1630070110201,2085
1630070110205,2084
1630070110209,2083
1630070110213,2082
1630070110217,2081
1630070110221,2080
1630070110225,2080
1630070110229,2081
1630070110233,2082
1630070110237,2084
1630070110241,2085
1630070110245,2084
1630070110249,2082
1630070110253,2080
1630070110257,2078
1630070110261,2077
1630070110265,2076
1630070110269,2076
1630070110273,2075
1630070110277,2075
1630070110281,2074
1630070110285,2074
1630070110289,2073
1630070110293,2072
1630070110297,2071
1630070110301,2070
1630070110305,2069
1630070110309,2069
1630070110313,2069
1630070110317,2069
1630070110321,2070
1630070110325,2069
1630070110329,2067
1630070110333,2064
1630070110337,2062
1630070110341,2064
1630070110345,2074
1630070110349,2093
1630070110353,2119
1630070110357,2146
1630070110361,2167
1630070110365,2173
1630070110369,2159
1630070110373,2129
1630070110377,2091
1630070110381,2058
1630070110385,2039
1630070110389,2034
1630070110393,2040
1630070110397,2049
1630070110401,2057
1630070110405,2061
1630070110409,2062
1630070110413,2061
1630070110417,2060
1630070110421,2060
1630070110425,2059
1630070110429,2059
1630070110433,2059
1630070110437,2060
1630070110441,2060
1630070110445,2060
1630070110449,2060
1630070110453,2060
1630070110457,2060
1630070110461,2060
1630070110465,2059
1630070110469,2059
1630070110473,2060
1630070110477,2060
1630070110481,2061
1630070110485,2061
1630070110489,2061
1630070110493,2061
1630070110497,2061
1630070110501,2061
1630070110505,2061
1630070110509,2062
1630070110513,2062
1630070110517,2062
1630070110521,2062
1630070110525,2062
1630070110529,2062
1630070110533,2062
1630070110537,2061
1630070110541,2060
1630070110545,2060
1630070110549,2059
1630070110553,2058
1630070110557,2058
1630070110561,2057
1630070110565,2056
1630070110569,2055
1630070110573,2053
1630070110577,2051
1630070110581,2049
1630070110585,2048
1630070110589,2047
1630070110593,2047
1630070110597,2047
1630070110601,2046
1630070110605,2046
1630070110609,2045
1630070110613,2043
1630070110617,2042
1630070110621,2041
1630070110625,2040
1630070110629,2038
1630070110633,2037
1630070110637,2037
1630070110641,2036
1630070110645,2035
1630070110649,2034
1630070110653,2033
1630070110657,2031
1630070110661,2030
1630070110665,2029
1630070110669,2029
1630070110673,2029
1630070110677,2029
1630070110681,2029
1630070110685,2029
1630070110689,2029
1630070110693,2028
1630070110697,2028
1630070110701,2028
1630070110705,2028
1630070110709,2028
1630070110713,2028
1630070110717,2028
1630070110721,2028
1630070110725,2029
1630070110729,2028
1630070110733,2028
1630070110737,2028
1630070110741,2027
1630070110745,2027
1630070110749,2027
1630070110753,2027
1630070110757,2027
1630070110761,2027
1630070110765,2028
1630070110769,2027
1630070110773,2027
1630070110777,2027
1630070110781,2026
1630070110785,2026
1630070110789,2025
1630070110793,2025
1630070110797,2025
1630070110801,2025
1630070110805,2026
1630070110809,2026
1630070110813,2025
1630070110817,2025
1630070110821,2024
1630070110825,2024
1630070110829,2024
1630070110833,2024
1630070110837,2024
1630070110841,2024
1630070110845,2024
1630070110849,2024
1630070110853,2024
1630070110857,2024
1630070110861,2023
1630070110865,2023
1630070110869,2022
1630070110873,2022
1630070110877,2023
1630070110881,2025
1630070110885,2026
1630070110889,2027
1630070110893,2026
1630070110897,2024
1630070110901,2022
1630070110905,2021
1630070110909,2020
1630070110913,2020
1630070110917,2020
1630070110921,2020
1630070110925,2019
1630070110929,2018
1630070110933,2018
1630070110937,2017
1630070110941,2017
1630070110945,2017
1630070110949,2017
1630070110953,2017
1630070110957,2017
1630070110961,2017
1630070110965,2018
1630070110969,2019
1630070110973,2019
1630070110977,2018
1630070110981,2016
1630070110985,2013
1630070110989,2012
1630070110993,2015
1630070110997,2026
1630070111001,2046
1630070111005,2071
1630070111009,2099
1630070111013,2119
1630070111017,2124
1630070111021,2110
1630070111025,2079
1630070111029,2043
1630070111033,2012
1630070111037,1995
1630070111041,1992
1630070111045,2000
1630070111049,2009
1630070111053,2016
1630070111057,2018
1630070111061,2018
1630070111065,2018
1630070111069,2017
1630070111073,2017
1630070111077,2017
1630070111081,2018
1630070111085,2018
1630070111089,2018
1630070111093,2018
1630070111097,2018
1630070111101,2018
1630070111105,2019
1630070111109,2019
1630070111113,2020
1630070111117,2021
1630070111121,2022
1630070111125,2023
1630070111129,2023
1630070111133,2023
1630070111137,2023
1630070111141,2023
1630070111145,2023
1630070111149,2024
1630070111153,2025
1630070111157,2026
1630070111161,2026
1630070111165,2027
1630070111169,2026
1630070111173,2025
1630070111177,2024
1630070111181,2022
1630070111185,2020
1630070111189,2019
1630070111193,2017
1630070111197,2015
1630070111201,2014
1630070111205,2012
1630070111209,2009
1630070111213,2006
1630070111217,2004
1630070111221,2001
1630070111225,1999
1630070111229,1998
1630070111233,1997
1630070111237,1996
1630070111241,1995
1630070111245,1994
1630070111249,1992
1630070111253,1991
1630070111257,1990
1630070111261,1989
1630070111265,1987
1630070111269,1985
1630070111273,1984
1630070111277,1982
1630070111281,1980
1630070111285,1979
1630070111289,1977
1630070111293,1976
1630070111297,1974
1630070111301,1972
1630070111305,1971
1630070111309,1970
1630070111313,1969
1630070111317,1968
1630070111321,1968
1630070111325,1967
1630070111329,1966
1630070111333,1965
1630070111337,1964
1630070111341,1963
1630070111345,1963
1630070111349,1962
1630070111353,1962
1630070111357,1963
1630070111361,1963
1630070111365,1963
1630070111369,1963
1630070111373,1963
1630070111377,1963
1630070111381,1963
1630070111385,1964
1630070111389,1964
1630070111393,1965
1630070111397,1966
1630070111401,1966
1630070111405,1967
1630070111409,1967
1630070111413,1967
1630070111417,1967
1630070111421,1967
1630070111425,1968
1630070111429,1969
1630070111433,1970
1630070111437,1970
1630070111441,1970
1630070111445,1970
1630070111449,1969
1630070111453,1969
1630070111457,1969
1630070111461,1969
1630070111465,1971
1630070111469,1972
1630070111473,1974
1630070111477,1975
1630070111481,1977
1630070111485,1978
1630070111489,1979
1630070111493,1981
1630070111497,1983
1630070111501,1984
1630070111505,1986
1630070111509,1988
1630070111513,1991
1630070111517,1994
1630070111521,1997
1630070111525,1999
1630070111529,2001
1630070111533,2003
1630070111537,2005
1630070111541,2008
1630070111545,2012
1630070111549,2017
1630070111553,2021
1630070111557,2024
1630070111561,2026
1630070111565,2027
1630070111569,2027
1630070111573,2028
1630070111577,2029
1630070111581,2030
1630070111585,2031
1630070111589,2031
1630070111593,2031
1630070111597,2032
1630070111601,2033
1630070111605,2035
1630070111609,2036
1630070111613,2037
1630070111617,2037
1630070111621,2038
1630070111625,2038
1630070111629,2039
1630070111633,2040
1630070111637,2041
1630070111641,2041
1630070111645,2039
1630070111649,2038
1630070111653,2039
1630070111657,2044
1630070111661,2056
1630070111665,2077
1630070111669,2103
1630070111673,2126
1630070111677,2139
1630070111681,2135
1630070111685,2114
1630070111689,2081
1630070111693,2049
1630070111697,2027
1630070111701,2017
1630070111705,2019
1630070111709,2028
1630070111713,2036
1630070111717,2042
1630070111721,2044
1630070111725,2044
1630070111729,2044
1630070111733,2043
1630070111737,2043
1630070111741,2043
1630070111745,2043
1630070111749,2044
1630070111753,2044
1630070111757,2045
1630070111761,2045
1630070111765,2046
1630070111769,2046
1630070111773,2047
1630070111777,2047
1630070111781,2047
1630070111785,2048
1630070111789,2048
1630070111793,2048
1630070111797,2049
1630070111801,2050
1630070111805,2051
1630070111809,2051
1630070111813,2052
1630070111817,2052
1630070111821,2052
1630070111825,2052
1630070111829,2053
1630070111833,2054
1630070111837,2055
1630070111841,2056
1630070111845,2056
1630070111849,2056
1630070111853,2056
1630070111857,2056
1630070111861,2056
1630070111865,2056
1630070111869,2055
1630070111873,2054
1630070111877,2053
1630070111881,2053
1630070111885,2052
1630070111889,2051
1630070111893,2051
1630070111897,2049
1630070111901,2048
1630070111905,2048
1630070111909,2047
1630070111913,2047
1630070111917,2047
1630070111921,2047
1630070111925,2047
1630070111929,2047
1630070111933,2046
1630070111937,2044
1630070111941,2043
1630070111945,2041
1630070111949,2040
1630070111953,2040
1630070111957,2039
1630070111961,2039
1630070111965,2038
1630070111969,2037
1630070111973,2036
1630070111977,2035
1630070111981,2034
1630070111985,2034
1630070111989,2034
1630070111993,2034
1630070111997,2035
1630070112001,2035
1630070112005,2035
1630070112009,2036
1630070112013,2036
1630070112017,2036
1630070112021,2035
1630070112025,2035
1630070112029,2035
1630070112033,2035
1630070112037,2036
1630070112041,2037
1630070112045,2037
1630070112049,2037
1630070112053,2037
1630070112057,2037
1630070112061,2036
1630070112065,2036
1630070112069,2037
1630070112073,2037
1630070112077,2038
1630070112081,2038
1630070112085,2037
1630070112089,2037
1630070112093,2036
1630070112097,2036
1630070112101,2036
1630070112105,2036
1630070112109,2036
1630070112113,2036
1630070112117,2036
1630070112121,2035
1630070112125,2036
1630070112129,2036
1630070112133,2035
1630070112137,2035
1630070112141,2034
1630070112145,2034
1630070112149,2034
1630070112153,2034
1630070112157,2034
1630070112161,2034
1630070112165,2034
1630070112169,2034
1630070112173,2033
1630070112177,2032
1630070112181,2031
1630070112185,2032
1630070112189,2033
1630070112193,2035
1630070112197,2039
1630070112201,2041
1630070112205,2042
1630070112209,2040
1630070112213,2038
1630070112217,2036
1630070112221,2035
1630070112225,2035
1630070112229,2036
1630070112233,2037
1630070112237,2037
1630070112241,2037
1630070112245,2038
1630070112249,2038
1630070112253,2038
1630070112257,2038
1630070112261,2039
1630070112265,2039
1630070112269,2038
1630070112273,2038
1630070112277,2038
1630070112281,2039
1630070112285,2040
1630070112289,2039
1630070112293,2038
1630070112297,2036
1630070112301,2035
1630070112305,2040
1630070112309,2050
1630070112313,2070
1630070112317,2096
1630070112321,2119
1630070112325,2133
1630070112329,2130
1630070112333,2110
1630070112337,2079
1630070112341,2047
1630070112345,2024
1630070112349,2014
1630070112353,2015
1630070112357,2023
1630070112361,2031
1630070112365,2037
1630070112369,2040
1630070112373,2041
1630070112377,2041
1630070112381,2041
1630070112385,2041
1630070112389,2041
1630070112393,2042
1630070112397,2043
1630070112401,2044
1630070112405,2044
1630070112409,2045
1630070112413,2044
1630070112417,2044
1630070112421,2044
1630070112425,2044
1630070112429,2045
1630070112433,2046
1630070112437,2047
1630070112441,2048
1630070112445,2048
1630070112449,2048
1630070112453,2048
1630070112457,2048
1630070112461,2048
1630070112465,2049
1630070112469,2049
1630070112473,2050
1630070112477,2050
1630070112481,2051
1630070112485,2052
1630070112489,2052
1630070112493,2053
1630070112497,2053
1630070112501,2052
1630070112505,2052
1630070112509,2052
1630070112513,2051
1630070112517,2052
1630070112521,2052
1630070112525,2052
1630070112529,2051
1630070112533,2050
1630070112537,2048
1630070112541,2047
1630070112545,2046
1630070112549,2046
1630070112553,2045
1630070112557,2044
1630070112561,2043
1630070112565,2043
1630070112569,2042
1630070112573,2042
1630070112577,2042
1630070112581,2040
1630070112585,2039
1630070112589,2037
1630070112593,2036
1630070112597,2035
1630070112601,2034
1630070112605,2033
1630070112609,2033
1630070112613,2032
1630070112617,2031
1630070112621,2030
1630070112625,2029
1630070112629,2028
1630070112633,2027
1630070112637,2026
1630070112641,2026
1630070112645,2025
1630070112649,2025
1630070112653,2024
1630070112657,2024
1630070112661,2023
1630070112665,2023
1630070112669,2023
1630070112673,2024
1630070112677,2024
1630070112681,2024
1630070112685,2024
1630070112689,2024
1630070112693,2024
1630070112697,2023
1630070112701,2023
1630070112705,2023
1630070112709,2022
1630070112713,2022
1630070112717,2022
1630070112721,2022
1630070112725,2022
1630070112729,2022
1630070112733,2022
1630070112737,2021
1630070112741,2020
1630070112745,2020
1630070112749,2019
1630070112753,2019
1630070112757,2020
1630070112761,2020
1630070112765,2020
1630070112769,2020
1630070112773,2020
1630070112777,2019
1630070112781,2019
1630070112785,2018
1630070112789,2018
1630070112793,2018
1630070112797,2018
1630070112801,2018
1630070112805,2020
1630070112809,2021
1630070112813,2023
1630070112817,2024
1630070112821,2024
1630070112825,2023
1630070112829,2022
1630070112833,2021
1630070112837,2021
1630070112841,2021
1630070112845,2022
1630070112849,2022
1630070112853,2021
1630070112857,2020
1630070112861,2020
1630070112865,2020
1630070112869,2020
1630070112873,2021
1630070112877,2021
1630070112881,2022
1630070112885,2022
1630070112889,2022
1630070112893,2022
1630070112897,2022
1630070112901,2022
1630070112905,2022
1630070112909,2021
1630070112913,2020
1630070112917,2020
1630070112921,2024
1630070112925,2033
1630070112929,2049
1630070112933,2072
1630070112937,2096
1630070112941,2113
1630070112945,2116
1630070112949,2101
1630070112953,2073
1630070112957,2042
1630070112961,2015
1630070112965,2001
1630070112969,1998
1630070112973,2004
1630070112977,2011
1630070112981,2017
1630070112985,2020
1630070112989,2022
1630070112993,2023
1630070112997,2023
1630070113001,2024
1630070113005,2024
1630070113009,2024
1630070113013,2024
1630070113017,2024
1630070113021,2024
1630070113025,2024
1630070113029,2023
1630070113033,2023
1630070113037,2024
1630070113041,2024
1630070113045,2025
1630070113049,2025
1630070113053,2026
1630070113057,2027
1630070113061,2027
1630070113065,2027
1630070113069,2028
1630070113073,2029
1630070113077,2030
1630070113081,2030
1630070113085,2032
1630070113089,2032
1630070113093,2033
1630070113097,2033
1630070113101,2034
1630070113105,2034
1630070113109,2035
1630070113113,2035
1630070113117,2035
1630070113121,2035
1630070113125,2035
1630070113129,2034
1630070113133,2033
1630070113137,2031
1630070113141,2030
1630070113145,2028
1630070113149,2027
1630070113153,2025
1630070113157,2024
1630070113161,2022
1630070113165,2020
1630070113169,2019
1630070113173,2018
1630070113177,2016
1630070113181,2015
1630070113185,2014
1630070113189,2013
1630070113193,2012
1630070113197,2012
1630070113201,2011
1630070113205,2010
1630070113209,2008
1630070113213,2006
1630070113217,2004
1630070113221,2003
1630070113225,2002
1630070113229,2000
1630070113233,1999
1630070113237,1999
1630070113241,1998
1630070113245,1997
1630070113249,1995
1630070113253,1994
1630070113257,1993
1630070113261,1991
1630070113265,1991
1630070113269,1990
1630070113273,1991
1630070113277,1991
1630070113281,1992
1630070113285,1992
1630070113289,1992
1630070113293,1991
1630070113297,1991
1630070113301,1990
1630070113305,1989
1630070113309,1990
1630070113313,1991
1630070113317,1992
1630070113321,1992
1630070113325,1992
1630070113329,1992
1630070113333,1991
1630070113337,1991
1630070113341,1991
1630070113345,1991
1630070113349,1991
1630070113353,1991
1630070113357,1991
1630070113361,1991
1630070113365,1991
1630070113369,1991
1630070113373,1992
1630070113377,1991
1630070113381,1991
1630070113385,1990
1630070113389,1989
1630070113393,1989
1630070113397,1991
1630070113401,1992
1630070113405,1994
1630070113409,1995
1630070113413,1995
1630070113417,1995
1630070113421,1994
1630070113425,1994
1630070113429,1994
1630070113433,1994
1630070113437,1994
1630070113441,1994
1630070113445,1994
1630070113449,1993
1630070113453,1993
1630070113457,1994
1630070113461,1994
1630070113465,1995
1630070113469,1995
1630070113473,1996
1630070113477,1996
1630070113481,1997
1630070113485,1997
1630070113489,1998
1630070113493,1998
1630070113497,1998
1630070113501,1997
1630070113505,1996
1630070113509,1995
1630070113513,1996
1630070113517,2002
1630070113521,2014
1630070113525,2033
1630070113529,2055
1630070113533,2077
1630070113537,2090
1630070113541,2088
1630070113545,2071
1630070113549,2043
1630070113553,2012
1630070113557,1989
1630070113561,1977
1630070113565,1978
1630070113569,1984
1630070113573,1993
1630070113577,1998
1630070113581,2001
1630070113585,2003
1630070113589,2004
1630070113593,2005
1630070113597,2005
1630070113601,2006
1630070113605,2007
1630070113609,2007
1630070113613,2008
1630070113617,2009
1630070113621,2009
1630070113625,2009
1630070113629,2010
1630070113633,2011
1630070113637,2012
1630070113641,2013
1630070113645,2014
1630070113649,2014
1630070113653,2015
1630070113657,2016
1630070113661,2016
1630070113665,2017
1630070113669,2017
1630070113673,2018
1630070113677,2020
1630070113681,2021
1630070113685,2022
1630070113689,2023
1630070113693,2023
1630070113697,2024
1630070113701,2024
1630070113705,2025
1630070113709,2025
1630070113713,2026
1630070113717,2026
1630070113721,2027
1630070113725,2027
1630070113729,2027
1630070113733,2027
1630070113737,2026
1630070113741,2025
1630070113745,2024
1630070113749,2023
1630070113753,2022
1630070113757,2022
1630070113761,2022
1630070113765,2021
1630070113769,2020
1630070113773,2019
1630070113777,2018
1630070113781,2017
1630070113785,2017
1630070113789,2017
1630070113793,2017
1630070113797,2017
1630070113801,2016
1630070113805,2015
1630070113809,2014
1630070113813,2013
1630070113817,2012
1630070113821,2011
1630070113825,2011
1630070113829,2010
1630070113833,2009
1630070113837,2009
1630070113841,2010
1630070113845,2010
1630070113849,2010
1630070113853,2010
1630070113857,2010
1630070113861,2009
1630070113865,2009
1630070113869,2010
1630070113873,2011
1630070113877,2012
1630070113881,2013
1630070113885,2014
1630070113889,2014
1630070113893,2014
1630070113897,2014
1630070113901,2014
1630070113905,2015
1630070113909,2015
1630070113913,2016
1630070113917,2017
1630070113921,2017
1630070113925,2018
1630070113929,2018
1630070113933,2019
1630070113937,2019
1630070113941,2019
1630070113945,2019
1630070113949,2020
1630070113953,2021
1630070113957,2022
1630070113961,2023
1630070113965,2024
1630070113969,2025
1630070113973,2026
1630070113977,2028
1630070113981,2029
1630070113985,2031
1630070113989,2033
1630070113993,2035
1630070113997,2037
1630070114001,2039
1630070114005,2042
1630070114009,2045
1630070114013,2048
1630070114017,2049
1630070114021,2050
1630070114025,2051
1630070114029,2051
1630070114033,2051
1630070114037,2053
1630070114041,2054
1630070114045,2056
1630070114049,2058
1630070114053,2059
1630070114057,2060
1630070114061,2061
1630070114065,2062
1630070114069,2064
1630070114073,2067
1630070114077,2070
1630070114081,2072
1630070114085,2074
1630070114089,2075
1630070114093,2076
1630070114097,2078
1630070114101,2079
1630070114105,2081
1630070114109,2081
1630070114113,2082
1630070114117,2084
1630070114121,2091
1630070114125,2104
1630070114129,2125
1630070114133,2150
1630070114137,2175
1630070114141,2192
1630070114145,2193
1630070114149,2178
1630070114153,2150
1630070114157,2118
1630070114161,2094
1630070114165,2082
1630070114169,2082
1630070114173,2090
1630070114177,2099
1630070114181,2106
1630070114185,2109
1630070114189,2110
1630070114193,2112
1630070114197,2113
1630070114201,2113
1630070114205,2115
1630070114209,2115
1630070114213,2116
1630070114217,2117
1630070114221,2117
1630070114225,2118
1630070114229,2119
1630070114233,2120
1630070114237,2122
1630070114241,2123
1630070114245,2124
1630070114249,2125
1630070114253,2125
1630070114257,2125
1630070114261,2126
1630070114265,2126
1630070114269,2127
1630070114273,2128
1630070114277,2129
1630070114281,2130
1630070114285,2131
1630070114289,2131
1630070114293,2131
1630070114297,2131
1630070114301,2131
1630070114305,2132
1630070114309,2132
1630070114313,2133
1630070114317,2133
1630070114321,2133
1630070114325,2133
1630070114329,2133
1630070114333,2132
1630070114337,2132
1630070114341,2131
1630070114345,2130
1630070114349,2130
1630070114353,2129
1630070114357,2129
1630070114361,2128
1630070114365,2127
1630070114369,2127
1630070114373,2126
1630070114377,2125
1630070114381,2124
1630070114385,2123
1630070114389,2123
1630070114393,2123
1630070114397,2122
1630070114401,2122
1630070114405,2121
1630070114409,2120
1630070114413,2119
1630070114417,2118
1630070114421,2116
1630070114425,2116
1630070114429,2115
1630070114433,2115
1630070114437,2115
1630070114441,2115
1630070114445,2114
1630070114449,2114
1630070114453,2114
1630070114457,2114
1630070114461,2114
1630070114465,2114
1630070114469,2114
1630070114473,2114
1630070114477,2115
1630070114481,2115
1630070114485,2116
1630070114489,2116
1630070114493,2116
1630070114497,2115
1630070114501,2115
1630070114505,2116
1630070114509,2116
1630070114513,2117
1630070114517,2117
1630070114521,2118
1630070114525,2118
1630070114529,2118
1630070114533,2118
1630070114537,2118
1630070114541,2118
1630070114545,2118
1630070114549,2118
1630070114553,2118
1630070114557,2119
1630070114561,2119
1630070114565,2119
1630070114569,2120
1630070114573,2120
1630070114577,2119
1630070114581,2118
1630070114585,2118
1630070114589,2118
1630070114593,2118
1630070114597,2118
1630070114601,2119
1630070114605,2119
1630070114609,2120
1630070114613,2121
1630070114617,2122
1630070114621,2123
1630070114625,2123
1630070114629,2123
1630070114633,2122
1630070114637,2122
1630070114641,2121
1630070114645,2121
1630070114649,2120
1630070114653,2120
1630070114657,2120
1630070114661,2120
1630070114665,2120
1630070114669,2119
1630070114673,2119
1630070114677,2119
1630070114681,2120
1630070114685,2120
1630070114689,2121
1630070114693,2121
1630070114697,2121
1630070114701,2121
1630070114705,2120
1630070114709,2120
1630070114713,2120
1630070114717,2118
1630070114721,2117
1630070114725,2117
1630070114729,2122
1630070114733,2134
1630070114737,2154
1630070114741,2179
1630070114745,2204
1630070114749,2221
1630070114753,2221
1630070114757,2203
1630070114761,2172
1630070114765,2138
1630070114769,2110
1630070114773,2096
1630070114777,2093
1630070114781,2099
1630070114785,2107
1630070114789,2113
1630070114793,2117
1630070114797,2120
1630070114801,2120
1630070114805,2121
1630070114809,2120
1630070114813,2120
1630070114817,2120
1630070114821,2120
1630070114825,2121
1630070114829,2121
1630070114833,2122
1630070114837,2122
1630070114841,2122
1630070114845,2123
1630070114849,2123
1630070114853,2123
1630070114857,2124
1630070114861,2124
1630070114865,2124
1630070114869,2125
1630070114873,2125
1630070114877,2126
1630070114881,2126
1630070114885,2127
1630070114889,2127
1630070114893,2128
1630070114897,2128
1630070114901,2128
1630070114905,2128
1630070114909,2129
1630070114913,2130
1630070114917,2130
1630070114921,2131
1630070114925,2132
1630070114929,2131
1630070114933,2131
1630070114937,2131
1630070114941,2131
1630070114945,2130
1630070114949,2130
1630070114953,2130
1630070114957,2130
1630070114961,2130
1630070114965,2129
1630070114969,2129
1630070114973,2128
1630070114977,2126
1630070114981,2125
1630070114985,2124
1630070114989,2124
1630070114993,2124
1630070114997,2124
1630070115001,2124
1630070115005,2124
1630070115009,2123
1630070115013,2121
1630070115017,2119
1630070115021,2117
1630070115025,2116
1630070115029,2115
1630070115033,2114
1630070115037,2114
1630070115041,2114
1630070115045,2113
1630070115049,2112
1630070115053,2111
1630070115057,2109
1630070115061,2109
1630070115065,2109
1630070115069,2109
1630070115073,2109
1630070115077,2110
1630070115081,2110
1630070115085,2110
1630070115089,2110
1630070115093,2109
1630070115097,2109
1630070115101,2109
1630070115105,2110
1630070115109,2110
1630070115113,2110
1630070115117,2110
1630070115121,2110
1630070115125,2109
1630070115129,2109
1630070115133,2108
1630070115137,2108
1630070115141,2108
1630070115145,2107
1630070115149,2107
1630070115153,2107
1630070115157,2107
1630070115161,2107
1630070115165,2107
1630070115169,2107
1630070115173,2106
1630070115177,2106
1630070115181,2105
1630070115185,2104
1630070115189,2104
1630070115193,2104
1630070115197,2104
1630070115201,2104
1630070115205,2103
1630070115209,2103
1630070115213,2102
1630070115217,2101
1630070115221,2101
1630070115225,2102
1630070115229,2103
1630070115233,2104
1630070115237,2105
1630070115241,2104
1630070115245,2103
1630070115249,2102
1630070115253,2101
1630070115257,2100
1630070115261,2098
1630070115265,2098
1630070115269,2097
1630070115273,2096
1630070115277,2096
1630070115281,2096
1630070115285,2097
1630070115289,2096
1630070115293,2096
1630070115297,2095
1630070115301,2094
1630070115305,2094
1630070115309,2093
1630070115313,2094
1630070115317,2094
1630070115321,2095
1630070115325,2094
1630070115329,2092
1630070115333,2089
1630070115337,2090
1630070115341,2096
1630070115345,2110
1630070115349,2134
1630070115353,2163
1630070115357,2189
1630070115361,2204
1630070115365,2199
1630070115369,2176
1630070115373,2140
1630070115377,2102
1630070115381,2075
1630070115385,2062
1630070115389,2062
1630070115393,2070
1630070115397,2079
1630070115401,2085
1630070115405,2088
1630070115409,2088
1630070115413,2088
1630070115417,2088
1630070115421,2088
1630070115425,2088
1630070115429,2088
1630070115433,2088
1630070115437,2089
1630070115441,2089
1630070115445,2090
1630070115449,2090
1630070115453,2090
1630070115457,2089
1630070115461,2088
1630070115465,2088
1630070115469,2088
1630070115473,2088
1630070115477,2089
1630070115481,2090
1630070115485,2091
1630070115489,2091
1630070115493,2091
1630070115497,2091
1630070115501,2090
1630070115505,2090
1630070115509,2091
1630070115513,2091
1630070115517,2092
1630070115521,2092
1630070115525,2092
1630070115529,2092
1630070115533,2092
1630070115537,2092
1630070115541,2091
1630070115545,2091
1630070115549,2091
1630070115553,2090
1630070115557,2090
1630070115561,2090
1630070115565,2089
1630070115569,2088
1630070115573,2086
1630070115577,2085
1630070115581,2083
1630070115585,2081
1630070115589,2080
1630070115593,2080
1630070115597,2080
1630070115601,2079
1630070115605,2079
1630070115609,2078
1630070115613,2077
1630070115617,2076
1630070115621,2074
1630070115625,2072
1630070115629,2070
1630070115633,2069
1630070115637,2068
1630070115641,2067
1630070115645,2066
1630070115649,2065
1630070115653,2064
1630070115657,2062
1630070115661,2060
1630070115665,2059
1630070115669,2058
1630070115673,2057
1630070115677,2057
1630070115681,2056
1630070115685,2055
1630070115689,2055
1630070115693,2054
1630070115697,2054
1630070115701,2053
1630070115705,2052
1630070115709,2052
1630070115713,2051
1630070115717,2052
1630070115721,2052
1630070115725,2052
1630070115729,2052
1630070115733,2051
1630070115737,2050
1630070115741,2049
1630070115745,2049
1630070115749,2049
1630070115753,2049
1630070115757,2049
1630070115761,2049
1630070115765,2049
1630070115769,2048
1630070115773,2048
1630070115777,2047
1630070115781,2046
1630070115785,2045
1630070115789,2045
1630070115793,2045
1630070115797,2046
1630070115801,2046
1630070115805,2046
1630070115809,2045
1630070115813,2045
1630070115817,2044
1630070115821,2043
1630070115825,2043
1630070115829,2043
1630070115833,2043
1630070115837,2043
1630070115841,2042
1630070115845,2041
1630070115849,2040
1630070115853,2039
1630070115857,2040
1630070115861,2040
1630070115865,2042
1630070115869,2043
1630070115873,2044
1630070115877,2043
1630070115881,2042
1630070115885,2040
1630070115889,2039
1630070115893,2039
1630070115897,2038
1630070115901,2037
1630070115905,2036
1630070115909,2036
1630070115913,2036
1630070115917,2036
1630070115921,2036
1630070115925,2036
1630070115929,2036
1630070115933,2035
1630070115937,2035
1630070115941,2034
1630070115945,2034
1630070115949,2034
1630070115953,2035
1630070115957,2034
1630070115961,2032
1630070115965,2029
1630070115969,2027
1630070115973,2029
1630070115977,2038
1630070115981,2053
1630070115985,2077
1630070115989,2104
1630070115993,2127
1630070115997,2137
1630070116001,2128
1630070116005,2101
1630070116009,2063
1630070116013,2028
1630070116017,2005
1630070116021,1998
1630070116025,2004
1630070116029,2013
1630070116033,2021
1630070116037,2024
1630070116041,2025
1630070116045,2025
1630070116049,2024
1630070116053,2024
1630070116057,2023
1630070116061,2023
1630070116065,2023
1630070116069,2024
1630070116073,2025
1630070116077,2026
1630070116081,2026
1630070116085,2027
1630070116089,2027
1630070116093,2026
1630070116097,2026
1630070116101,2026
1630070116105,2026
1630070116109,2026
1630070116113,2026
1630070116117,2027
1630070116121,2027
1630070116125,2028
1630070116129,2028
1630070116133,2028
1630070116137,2027
1630070116141,2027
1630070116145,2026
1630070116149,2026
1630070116153,2027
1630070116157,2027
1630070116161,2027
1630070116165,2027
1630070116169,2027
1630070116173,2026
1630070116177,2025
1630070116181,2024
1630070116185,2023
1630070116189,2022
1630070116193,2021
1630070116197,2020
1630070116201,2019
1630070116205,2017
1630070116209,2014
1630070116213,2012
1630070116217,2009
1630070116221,2006
1630070116225,2004
1630070116229,2002
1630070116233,2000
1630070116237,1999
1630070116241,1997
1630070116245,1996
1630070116249,1993
1630070116253,1991
1630070116257,1989
1630070116261,1986
1630070116265,1984
1630070116269,1981
1630070116273,1979
1630070116277,1977
1630070116281,1976
1630070116285,1975
1630070116289,1974
1630070116293,1973
1630070116297,1972
1630070116301,1971
1630070116305,1970
1630070116309,1970
1630070116313,1970
1630070116317,1970
1630070116321,1969
1630070116325,1969
1630070116329,1969
1630070116333,1969
1630070116337,1969
1630070116341,1968
1630070116345,1968
1630070116349,1968
1630070116353,1969
1630070116357,1969
1630070116361,1970
1630070116365,1970
1630070116369,1970
1630070116373,1970
1630070116377,1969
1630070116381,1969
1630070116385,1968
1630070116389,1968
1630070116393,1969
1630070116397,1969
1630070116401,1969
1630070116405,1969
1630070116409,1968
1630070116413,1968
1630070116417,1967
1630070116421,1967
1630070116425,1968
1630070116429,1968
1630070116433,1967
1630070116437,1967
1630070116441,1966
1630070116445,1966
1630070116449,1965
1630070116453,1965
1630070116457,1964
1630070116461,1964
1630070116465,1964
1630070116469,1964
1630070116473,1965
1630070116477,1965
1630070116481,1965
1630070116485,1966
1630070116489,1966
1630070116493,1966
1630070116497,1966
1630070116501,1966
1630070116505,1966
1630070116509,1966
1630070116513,1966
1630070116517,1968
1630070116521,1970
1630070116525,1972
1630070116529,1973
1630070116533,1973
1630070116537,1972
1630070116541,1971
1630070116545,1970
1630070116549,1969
1630070116553,1969
1630070116557,1969
1630070116561,1969
1630070116565,1969
1630070116569,1969
1630070116573,1968
1630070116577,1968
1630070116581,1968
1630070116585,1969
1630070116589,1969
1630070116593,1969
1630070116597,1969
1630070116601,1969
1630070116605,1969
1630070116609,1970
1630070116613,1970
1630070116617,1970
1630070116621,1968
1630070116625,1966
1630070116629,1965
1630070116633,1967
1630070116637,1975
1630070116641,1990
1630070116645,2013
1630070116649,2039
1630070116653,2062
1630070116657,2075
1630070116661,2070
1630070116665,2048
1630070116669,2014
1630070116673,1981
1630070116677,1958
1630070116681,1950
1630070116685,1955
1630070116689,1965
1630070116693,1973
1630070116697,1978
1630070116701,1978
1630070116705,1978
1630070116709,1977
1630070116713,1978
1630070116717,1978
1630070116721,1979
1630070116725,1980
1630070116729,1981
1630070116733,1982
1630070116737,1982
1630070116741,1983
1630070116745,1984
1630070116749,1984
1630070116753,1985
1630070116757,1986
1630070116761,1987
1630070116765,1989
1630070116769,1990
1630070116773,1991
1630070116777,1991
1630070116781,1992
1630070116785,1992
1630070116789,1993
1630070116793,1994
1630070116797,1996
1630070116801,1997
1630070116805,1998
1630070116809,1999
1630070116813,1999
1630070116817,1999
1630070116821,1999
1630070116825,1999
1630070116829,2000
1630070116833,2000
1630070116837,2001
1630070116841,2001
1630070116845,2001
1630070116849,2001
1630070116853,2000
1630070116857,1999
1630070116861,1998
1630070116865,1997
1630070116869,1996
1630070116873,1995
1630070116877,1995
1630070116881,1994
1630070116885,1994
1630070116889,1993
1630070116893,1992
1630070116897,1991
1630070116901,1989
1630070116905,1988
1630070116909,1986
1630070116913,1985
1630070116917,1983
1630070116921,1981
1630070116925,1980
1630070116929,1978
1630070116933,1977
1630070116937,1976
1630070116941,1974
1630070116945,1973
1630070116949,1972
1630070116953,1971
1630070116957,1971
1630070116961,1970
1630070116965,1970
1630070116969,1969
1630070116973,1968
1630070116977,1967
1630070116981,1966
1630070116985,1965
1630070116989,1965
1630070116993,1965
1630070116997,1965
1630070117001,1965
1630070117005,1966
1630070117009,1966
1630070117013,1966
1630070117017,1967
1630070117021,1967
1630070117025,1966
1630070117029,1966
1630070117033,1966
1630070117037,1967
1630070117041,1967
1630070117045,1967
1630070117049,1967
1630070117053,1967
1630070117057,1967
1630070117061,1966
1630070117065,1966
1630070117069,1966
1630070117073,1967
1630070117077,1967
1630070117081,1967
1630070117085,1967
1630070117089,1967
1630070117093,1967
1630070117097,1966
1630070117101,1966
1630070117105,1966
1630070117109,1966
1630070117113,1966
1630070117117,1967
1630070117121,1968
1630070117125,1968
1630070117129,1969
1630070117133,1969
1630070117137,1968
1630070117141,1968
1630070117145,1968
1630070117149,1968
1630070117153,1969
1630070117157,1970
1630070117161,1970
1630070117165,1971
1630070117169,1972
1630070117173,1972
1630070117177,1972
1630070117181,1972
1630070117185,1972
1630070117189,1972
1630070117193,1973
1630070117197,1974
1630070117201,1975
1630070117205,1976
1630070117209,1977
1630070117213,1979
1630070117217,1982
1630070117221,1983
1630070117225,1985
1630070117229,1985
1630070117233,1985
1630070117237,1984
1630070117241,1984
1630070117245,1985
1630070117249,1985
1630070117253,1985
1630070117257,1985
1630070117261,1986
1630070117265,1987
1630070117269,1988
1630070117273,1990
1630070117277,1991
1630070117281,1992
1630070117285,1993
1630070117289,1994
1630070117293,1995
1630070117297,1995
1630070117301,1996
1630070117305,1998
1630070117309,1999
1630070117313,1999
1630070117317,1999
1630070117321,2000
1630070117325,2005
1630070117329,2016
1630070117333,2035
1630070117337,2058
1630070117341,2085
1630070117345,2105
1630070117349,2111
1630070117353,2100
1630070117357,2074
1630070117361,2043
1630070117365,2016
1630070117369,2001
1630070117373,2000
1630070117377,2008
1630070117381,2019
1630070117385,2028
1630070117389,2034
1630070117393,2036
1630070117397,2037
1630070117401,2039
1630070117405,2040
1630070117409,2042
1630070117413,2044
1630070117417,2046
1630070117421,2048
1630070117425,2050
1630070117429,2053
1630070117433,2055
1630070117437,2058
1630070117441,2061
1630070117445,2064
1630070117449,2067
1630070117453,2070
1630070117457,2072
1630070117461,2073
1630070117465,2075
1630070117469,2077
1630070117473,2079
1630070117477,2081
1630070117481,2083
1630070117485,2085
1630070117489,2087
1630070117493,2088
1630070117497,2090
1630070117501,2091
1630070117505,2092
1630070117509,2093
1630070117513,2094
1630070117517,2095
1630070117521,2096
1630070117525,2097
1630070117529,2098
1630070117533,2099
1630070117537,2100
1630070117541,2101
1630070117545,2102
1630070117549,2104
1630070117553,2105
1630070117557,2106
1630070117561,2107
1630070117565,2107
1630070117569,2107
1630070117573,2107
1630070117577,2107
1630070117581,2108
1630070117585,2108
1630070117589,2109
1630070117593,2110
1630070117597,2112
1630070117601,2113
1630070117605,2114
1630070117609,2114
1630070117613,2114
1630070117617,2113
1630070117621,2112
1630070117625,2112
1630070117629,2113
1630070117633,2114
1630070117637,2115
1630070117641,2116
1630070117645,2116
1630070117649,2116
1630070117653,2116
1630070117657,2116
1630070117661,2117
1630070117665,2118
1630070117669,2119
1630070117673,2120
1630070117677,2121
1630070117681,2121
1630070117685,2122
1630070117689,2123
1630070117693,2123
1630070117697,2124
1630070117701,2124
1630070117705,2125
1630070117709,2125
1630070117713,2126
1630070117717,2127
1630070117721,2128
1630070117725,2128
1630070117729,2129
1630070117733,2129
1630070117737,2128
1630070117741,2127
1630070117745,2127
1630070117749,2127
1630070117753,2127
1630070117757,2127
1630070117761,2128
1630070117765,2128
1630070117769,2128
1630070117773,2127
1630070117777,2127
1630070117781,2126
1630070117785,2125
1630070117789,2125
1630070117793,2125
1630070117797,2125
1630070117801,2125
1630070117805,2125
1630070117809,2125
1630070117813,2125
1630070117817,2124
1630070117821,2124
1630070117825,2124
1630070117829,2124
1630070117833,2124
1630070117837,2124
1630070117841,2124
1630070117845,2124
1630070117849,2124
1630070117853,2123
1630070117857,2123
1630070117861,2123
1630070117865,2123
1630070117869,2123
1630070117873,2124
1630070117877,2124
1630070117881,2124
1630070117885,2124
1630070117889,2125
1630070117893,2125
1630070117897,2126
1630070117901,2128
1630070117905,2129
1630070117909,2129
1630070117913,2129
1630070117917,2128
1630070117921,2127
1630070117925,2126
1630070117929,2125
1630070117933,2124
1630070117937,2123
1630070117941,2123
1630070117945,2123
1630070117949,2123
1630070117953,2123
1630070117957,2123
1630070117961,2123
1630070117965,2123
1630070117969,2123
1630070117973,2122
1630070117977,2122
1630070117981,2122
1630070117985,2122
1630070117989,2122
1630070117993,2122
1630070117997,2121
1630070118001,2119
1630070118005,2120
1630070118009,2127
1630070118013,2141
1630070118017,2165
1630070118021,2193
1630070118025,2217
1630070118029,2228
1630070118033,2219
1630070118037,2193
1630070118041,2157
1630070118045,2124
1630070118049,2101
1630070118053,2093
1630070118057,2095
1630070118061,2102
1630070118065,2110
1630070118069,2115
1630070118073,2119
1630070118077,2121
1630070118081,2122
1630070118085,2122
1630070118089,2121
1630070118093,2121
1630070118097,2121
1630070118101,2122
1630070118105,2123
1630070118109,2124
1630070118113,2124
1630070118117,2125
1630070118121,2125
1630070118125,2126
1630070118129,2127
1630070118133,2127
1630070118137,2127
1630070118141,2127
1630070118145,2127
1630070118149,2127
1630070118153,2128
1630070118157,2128
1630070118161,2129
1630070118165,2129
1630070118169,2130
1630070118173,2130
1630070118177,2130
1630070118181,2130
1630070118185,2130
1630070118189,2130
1630070118193,2131
1630070118197,2132
1630070118201,2132
1630070118205,2132
1630070118209,2133
1630070118213,2133
1630070118217,2132
1630070118221,2132
1630070118225,2131
1630070118229,2130
1630070118233,2129
1630070118237,2128
1630070118241,2127
1630070118245,2126
1630070118249,2124
1630070118253,2123
1630070118257,2122
1630070118261,2121
1630070118265,2120
1630070118269,2119
1630070118273,2119
1630070118277,2119
1630070118281,2119
1630070118285,2118
1630070118289,2117
1630070118293,2116
1630070118297,2115
1630070118301,2113
1630070118305,2111
1630070118309,2110
1630070118313,2109
1630070118317,2109
1630070118321,2108
1630070118325,2107
1630070118329,2105
1630070118333,2104
1630070118337,2103
1630070118341,2103
1630070118345,2103
1630070118349,2103
1630070118353,2103
1630070118357,2103
1630070118361,2103
1630070118365,2103
1630070118369,2103
1630070118373,2102
1630070118377,2101
1630070118381,2100
1630070118385,2100
1630070118389,2100
1630070118393,2101
1630070118397,2101
1630070118401,2101
1630070118405,2101
1630070118409,2101
1630070118413,2100
1630070118417,2100
1630070118421,2100
1630070118425,2099
1630070118429,2099
1630070118433,2098
1630070118437,2098
1630070118441,2098
1630070118445,2098
1630070118449,2098
1630070118453,2097
1630070118457,2097
1630070118461,2096
1630070118465,2095
1630070118469,2094
1630070118473,2094
1630070118477,2094
1630070118481,2093
1630070118485,2093
1630070118489,2092
1630070118493,2092
1630070118497,2091
1630070118501,2090
1630070118505,2090
1630070118509,2090
1630070118513,2090
1630070118517,2090
1630070118521,2090
1630070118525,2089
1630070118529,2089
1630070118533,2088
1630070118537,2088
1630070118541,2087
1630070118545,2086
1630070118549,2087
1630070118553,2088
1630070118557,2089
1630070118561,2090
1630070118565,2091
1630070118569,2089
1630070118573,2088
1630070118577,2086
1630070118581,2085
1630070118585,2084
1630070118589,2084
1630070118593,2084
1630070118597,2083
1630070118601,2083
1630070118605,2083
1630070118609,2082
1630070118613,2082
1630070118617,2081
1630070118621,2080
1630070118625,2079
1630070118629,2078
1630070118633,2078
1630070118637,2079
1630070118641,2080
1630070118645,2080
1630070118649,2079
1630070118653,2076
1630070118657,2073
1630070118661,2072
1630070118665,2078
1630070118669,2091
1630070118673,2114
1630070118677,2142
1630070118681,2169
1630070118685,2184
1630070118689,2181
1630070118693,2158
1630070118697,2123
1630070118701,2085
1630070118705,2057
1630070118709,2044
1630070118713,2044
1630070118717,2052
1630070118721,2061
1630070118725,2067
1630070118729,2069
1630070118733,2070
1630070118737,2069
1630070118741,2069
1630070118745,2068
1630070118749,2068
1630070118753,2068
1630070118757,2068
1630070118761,2069
1630070118765,2069
1630070118769,2069
1630070118773,2069
1630070118777,2069
1630070118781,2069
1630070118785,2068
1630070118789,2069
1630070118793,2069
1630070118797,2069
1630070118801,2069
1630070118805,2069
1630070118809,2069
1630070118813,2069
1630070118817,2069
1630070118821,2069
1630070118825,2069
1630070118829,2069
1630070118833,2069
1630070118837,2070
1630070118841,2071
1630070118845,2071
1630070118849,2072
1630070118853,2072
1630070118857,2071
1630070118861,2071
1630070118865,2070
1630070118869,2070
1630070118873,2070
1630070118877,2070
1630070118881,2070
1630070118885,2069
1630070118889,2068
1630070118893,2066
1630070118897,2065
1630070118901,2063
1630070118905,2061
1630070118909,2059
1630070118913,2058
1630070118917,2057
1630070118921,2057
1630070118925,2057
1630070118929,2057
1630070118933,2056
1630070118937,2055
1630070118941,2053
1630070118945,2051
1630070118949,2050
1630070118953,2049
1630070118957,2048
1630070118961,2048
1630070118965,2047
1630070118969,2045
1630070118973,2044
1630070118977,2042
1630070118981,2041
1630070118985,2040
1630070118989,2039
1630070118993,2039
1630070118997,2039
1630070119001,2038
1630070119005,2038
1630070119009,2037
1630070119013,2036
1630070119017,2035
1630070119021,2034
1630070119025,2034
1630070119029,2033
1630070119033,2033
1630070119037,2033
1630070119041,2033
1630070119045,2033
1630070119049,2033
1630070119053,2032
1630070119057,2031
1630070119061,2031
1630070119065,2030
1630070119069,2030
1630070119073,2030
1630070119077,2030
1630070119081,2030
1630070119085,2029
1630070119089,2029
1630070119093,2028
1630070119097,2027
1630070119101,2026
1630070119105,2025
1630070119109,2025
1630070119113,2025
1630070119117,2025
1630070119121,2025
1630070119125,2025
1630070119129,2024
1630070119133,2023
1630070119137,2022
1630070119141,2021
1630070119145,2020
1630070119149,2020
1630070119153,2020
1630070119157,2020
1630070119161,2019
1630070119165,2019
1630070119169,2017
1630070119173,2016
1630070119177,2014
1630070119181,2012
1630070119185,2011
1630070119189,2009
1630070119193,2008
1630070119197,2007
1630070119201,2006
1630070119205,2005
1630070119209,2002
1630070119213,2001
1630070119217,1999
1630070119221,1999
1630070119225,2000
1630070119229,2000
1630070119233,2000
1630070119237,1999
1630070119241,1998
1630070119245,1997
1630070119249,1995
1630070119253,1994
1630070119257,1992
1630070119261,1990
1630070119265,1989
1630070119269,1987
1630070119273,1987
1630070119277,1987
1630070119281,1987
1630070119285,1986
1630070119289,1986
1630070119293,1985
1630070119297,1983
1630070119301,1982
1630070119305,1980
1630070119309,1980
1630070119313,1980
1630070119317,1980
1630070119321,1979
1630070119325,1976
1630070119329,1973
1630070119333,1972
1630070119337,1977
1630070119341,1988
1630070119345,2008
1630070119349,2035
1630070119353,2060
1630070119357,2078
1630070119361,2079
1630070119365,2061
1630070119369,2028
1630070119373,1990
1630070119377,1960
1630070119381,1944
1630070119385,1943
1630070119389,1951
1630070119393,1960
1630070119397,1966
1630070119401,1967
1630070119405,1966
1630070119409,1965
1630070119413,1964
1630070119417,1964
1630070119421,1963
1630070119425,1963
1630070119429,1964
1630070119433,1964
1630070119437,1964
1630070119441,1965
1630070119445,1966
1630070119449,1966
1630070119453,1967
1630070119457,1967
1630070119461,1966
1630070119465,1967
1630070119469,1967
1630070119473,1968
1630070119477,1969
1630070119481,1971
1630070119485,1972
1630070119489,1973
1630070119493,1973
1630070119497,1974
1630070119501,1974
1630070119505,1975
1630070119509,1975
1630070119513,1976
1630070119517,1977
1630070119521,1978
1630070119525,1979
1630070119529,1979
1630070119533,1979
1630070119537,1978
1630070119541,1978
1630070119545,1977
1630070119549,1976
1630070119553,1975
1630070119557,1974
1630070119561,1973
1630070119565,1971
1630070119569,1970
1630070119573,1968
1630070119577,1967
1630070119581,1965
1630070119585,1963
1630070119589,1962
1630070119593,1961
1630070119597,1961
1630070119601,1960
1630070119605,1960
1630070119609,1959
1630070119613,1957
1630070119617,1956
1630070119621,1954
1630070119625,1952
1630070119629,1950
1630070119633,1949
1630070119637,1948
1630070119641,1947
1630070119645,1947
1630070119649,1946
1630070119653,1946
1630070119657,1945
1630070119661,1944
1630070119665,1944
1630070119669,1943
1630070119673,1943
1630070119677,1943
1630070119681,1943
1630070119685,1943
1630070119689,1943
1630070119693,1942
1630070119697,1942
1630070119701,1941
1630070119705,1941
1630070119709,1941
1630070119713,1941
1630070119717,1942
1630070119721,1942
1630070119725,1943
1630070119729,1943
1630070119733,1943
1630070119737,1943
1630070119741,1943
1630070119745,1943
1630070119749,1944
1630070119753,1945
1630070119757,1945
1630070119761,1946
1630070119765,1946
1630070119769,1946
1630070119773,1946
1630070119777,1946
1630070119781,1946
1630070119785,1946
1630070119789,1946
1630070119793,1947
1630070119797,1948
1630070119801,1948
1630070119805,1949
1630070119809,1949
1630070119813,1949
1630070119817,1949
1630070119821,1950
1630070119825,1950
1630070119829,1950
1630070119833,1951
1630070119837,1952
1630070119841,1952
1630070119845,1953
1630070119849,1954
1630070119853,1954
1630070119857,1954
1630070119861,1954
1630070119865,1954
1630070119869,1955
1630070119873,1956
1630070119877,1957
1630070119881,1957
1630070119885,1958
1630070119889,1958
1630070119893,1959
1630070119897,1960
1630070119901,1962
1630070119905,1964
1630070119909,1966
1630070119913,1967
1630070119917,1967
1630070119921,1966
1630070119925,1966
1630070119929,1965
1630070119933,1965
1630070119937,1965
1630070119941,1965
1630070119945,1965
1630070119949,1966
1630070119953,1967
1630070119957,1968
1630070119961,1969
