timestamp,green,ir,red
1630070107748,55031,57607,57615
1630070107758,54684,90390,90391
1630070107768,54688,123192,123167
1630070107778,54679,155930,155937
1630070107788,54648,188697,188717
1630070107798,54601,221304,221477
1630070107808,54584,253749,254255
1630070107818,54535,256467,286874
1630070107828,54495,256435,309086
1630070107838,54438,256335,309090
1630070107848,54390,256347,309077
1630070107858,54382,256299,309021
1630070107868,54325,256308,308988
1630070107878,54320,256307,309010
1630070107888,54272,256252,308990
1630070107898,54230,256249,309001
1630070107908,54221,256196,309000
1630070107918,54193,256193,308944
1630070107928,54165,256182,308951
1630070107938,54146,256109,308932
1630070107948,54134,256097,308935
1630070107958,54103,256129,308945
1630070107968,54088,256112,308921
1630070107978,54063,256083,308884
1630070107988,54061,256090,308939
1630070107998,54071,256100,308920
1630070108008,54074,256136,308945
1630070108018,54063,256132,308897
1630070108028,54058,256093,308940
1630070108038,54067,256054,308935
1630070108048,54055,256132,308954
1630070108058,54061,256092,308895
1630070108068,54081,256098,308896
1630070108078,54063,256080,308844
1630070108088,54066,256097,308873
1630070108098,54048,256075,308888
1630070108108,54066,256044,308888
1630070108118,54074,256094,308898
1630070108128,54081,256087,308859
1630070108138,54095,256080,308871
1630070108148,54093,256111,308894
1630070108158,54103,256114,308917
1630070108168,54121,256098,308902
1630070108178,54133,256141,308899
1630070108188,54146,256156,308894
1630070108198,54159,256128,308920
1630070108208,54181,256197,308932
1630070108218,54205,256177,308924
1630070108228,54218,256179,308943
1630070108238,54230,256207,308925
1630070108248,54267,256221,308921
1630070108258,54283,256222,308990
1630070108268,54286,256253,308955
1630070108278,54329,256220,308965
1630070108288,54341,256286,308961
1630070108298,54369,256320,308971
1630070108308,54387,256283,308948
1630070108318,54423,256339,308994
1630070108328,54446,256381,308980
1630070108338,54467,256360,309022
1630070108348,54490,256388,309024
1630070108358,54515,256398,309009
1630070108368,54541,256417,309029
1630070108378,54570,256446,309040
1630070108388,54605,256487,308995
1630070108398,54633,256489,309064
1630070108408,54652,256500,309095
1630070108418,54692,256514,309051
1630070108428,54692,256479,309012
1630070108438,54694,256462,309008
1630070108448,54695,256390,308947
1630070108458,54660,256336,308954
1630070108468,54644,256316,308952
1630070108478,54616,256251,308946
1630070108488,54585,256240,308883
1630070108498,54553,256186,308918
1630070108508,54536,256164,308879
1630070108518,54503,256158,308896
1630070108528,54487,256147,308914
1630070108538,54469,256141,308878
1630070108548,54463,256114,308886
1630070108558,54437,256077,308862
1630070108568,54411,256088,308885
1630070108578,54403,256110,308875
1630070108588,54388,256063,308860
1630070108598,54374,256043,308877
1630070108608,54366,256056,308866
1630070108618,54342,256017,308871
1630070108628,54339,256028,308900
1630070108638,54332,256094,308912
1630070108648,54329,256069,308957
1630070108658,54336,256091,308898
1630070108668,54348,256074,308919
1630070108678,54341,256092,308925
1630070108688,54352,256088,308917
1630070108698,54362,256104,308936
1630070108708,54370,256098,308946
1630070108718,54376,256121,308896
1630070108728,54389,256091,308961
1630070108738,54405,256129,308941
1630070108748,54399,256148,308952
1630070108758,54419,256126,308970
1630070108768,54421,256116,308983
1630070108778,54438,256163,308973
1630070108788,54443,256129,308994
1630070108798,54447,256192,309067
1630070108808,54462,256199,308994
1630070108818,54478,256229,309027
1630070108828,54494,256221,309048
1630070108838,54510,256233,309034
1630070108848,54528,256241,309073
1630070108858,54551,256264,309057
1630070108868,54564,256262,309061
1630070108878,54590,256260,309075
1630070108888,54613,256268,309103
1630070108898,54619,256330,309115
1630070108908,54643,256335,309117
1630070108918,54664,256344,309117
1630070108928,54673,256333,309112
1630070108938,54695,256384,309123
1630070108948,54715,256415,309123
1630070108958,54737,256385,309101
1630070108968,54754,256417,309121
1630070108978,54770,256402,309146
1630070108988,54795,256467,309106
1630070108998,54822,256454,309155
1630070109008,54838,256471,309155
1630070109018,54867,256534,309150
1630070109028,54881,256545,309151
1630070109038,54915,256521,309193
1630070109048,54935,256573,309174
1630070109058,54968,256576,309187
1630070109068,54986,256614,309194
1630070109078,55000,256635,309197
1630070109088,55036,256650,309229
1630070109098,55043,256672,309215
1630070109108,55066,256648,309216
1630070109118,55072,256654,309170
1630070109128,55066,256561,309128
1630070109138,55054,256520,309089
1630070109148,55034,256469,309042
1630070109158,55011,256436,309043
1630070109168,54979,256381,309061
1630070109178,54955,256339,308998
1630070109188,54930,256322,309016
1630070109198,54900,256297,309010
1630070109208,54879,256322,308963
1630070109218,54851,256311,308974
1630070109228,54844,256283,308996
1630070109238,54822,256273,308941
1630070109248,54808,256267,308961
1630070109258,54775,256250,308944
1630070109268,54764,256248,308968
1630070109278,54749,256218,308935
1630070109288,54731,256229,308930
1630070109298,54720,256225,308926
1630070109308,54706,256219,308925
1630070109318,54700,256254,308940
1630070109328,54702,256259,308952
1630070109338,54704,256273,308976
1630070109348,54715,256306,309018
1630070109358,54720,256270,308973
1630070109368,54709,256221,308962
1630070109378,54721,256259,308992
1630070109388,54704,256270,308984
1630070109398,54711,256256,308958
1630070109408,54714,256275,308950
1630070109418,54695,256265,308956
1630070109428,54705,256268,308914
1630070109438,54703,256238,308967
1630070109448,54712,256244,308931
1630070109458,54726,256309,308955
1630070109468,54711,256304,308981
1630070109478,54723,256277,308945
1630070109488,54736,256314,308947
1630070109498,54742,256287,308962
1630070109508,54742,256281,308978
1630070109518,54763,256316,308928
1630070109528,54767,256333,308983
1630070109538,54783,256344,308978
1630070109548,54799,256365,309002
1630070109558,54816,256424,308971
1630070109568,54831,256375,308974
1630070109578,54836,256377,309012
1630070109588,54851,256414,309026
1630070109598,54865,256416,309012
1630070109608,54876,256382,308993
1630070109618,54889,256440,309049
1630070109628,54914,256492,309047
1630070109638,54931,256488,308997
1630070109648,54953,256490,309038
1630070109658,54971,256523,308994
1630070109668,54992,256516,309052
1630070109678,55017,256555,309061
1630070109688,55041,256564,309030
1630070109698,55070,256596,309075
1630070109708,55074,256605,309091
1630070109718,55091,256647,309084
1630070109728,55123,256654,309113
1630070109738,55144,256655,309118
1630070109748,55173,256646,309116
1630070109758,55201,256696,309106
1630070109768,55212,256731,309127
1630070109778,55214,256698,309112
1630070109788,55209,256698,309087
1630070109798,55204,256590,309018
1630070109808,55186,256542,308997
1630070109818,55159,256528,308936
1630070109828,55119,256520,308941
1630070109838,55099,256453,308913
1630070109848,55064,256367,308898
1630070109858,55029,256371,308896
1630070109868,55001,256340,308905
1630070109878,54971,256372,308885
1630070109888,54943,256338,308850
1630070109898,54912,256306,308873
1630070109908,54892,256301,308838
1630070109918,54860,256307,308805
1630070109928,54834,256259,308827
1630070109938,54807,256240,308809
1630070109948,54793,256251,308794
1630070109958,54763,256235,308786
1630070109968,54744,256228,308785
1630070109978,54729,256202,308774
1630070109988,54723,256191,308751
1630070109998,54715,256228,308809
1630070110008,54715,256259,308778
1630070110018,54714,256231,308800
1630070110028,54699,256188,308776
1630070110038,54697,256197,308768
1630070110048,54687,256221,308781
1630070110058,54684,256218,308740
1630070110068,54670,256223,308764
1630070110078,54661,256236,308728
1630070110088,54652,256230,308736
1630070110098,54642,256198,308712
1630070110108,54638,256207,308744
1630070110118,54639,256211,308724
1630070110128,54625,256171,308743
1630070110138,54635,256203,308693
1630070110148,54642,256247,308744
1630070110158,54635,256221,308688
1630070110168,54627,256250,308717
1630070110178,54641,256280,308714
1630070110188,54643,256303,308738
1630070110198,54651,256265,308718
1630070110208,54670,256294,308731
1630070110218,54667,256280,308703
1630070110228,54675,256249,308724
1630070110238,54681,256302,308701
1630070110248,54696,256309,308733
1630070110258,54704,256309,308736
1630070110268,54719,256340,308757
1630070110278,54728,256351,308705
1630070110288,54740,256376,308733
1630070110298,54764,256350,308770
1630070110308,54779,256361,308756
1630070110318,54785,256393,308754
1630070110328,54813,256439,308747
1630070110338,54817,256418,308741
1630070110348,54846,256504,308754
1630070110358,54864,256471,308760
1630070110368,54881,256482,308795
1630070110378,54910,256488,308780
1630070110388,54906,256491,308819
1630070110398,54932,256571,308778
1630070110408,54958,256547,308806
1630070110418,54974,256565,308844
1630070110428,54999,256583,308819
1630070110438,55026,256587,308852
1630070110448,55050,256623,308849
1630070110458,55063,256600,308865
1630070110468,55067,256625,308836
1630070110478,55052,256525,308768
1630070110488,55022,256478,308680
1630070110498,54998,256434,308694
1630070110508,54963,256390,308623
1630070110518,54900,256324,308623
1630070110528,54877,256304,308605
1630070110538,54835,256282,308605
1630070110548,54786,256225,308588
1630070110558,54751,256153,308583
1630070110568,54704,256120,308561
1630070110578,54655,256132,308547
1630070110588,54612,256093,308545
1630070110598,54569,256084,308492
1630070110608,54522,256058,308535
1630070110618,54476,256002,308479
1630070110628,54440,255989,308482
1630070110638,54396,256002,308453
1630070110648,54367,255944,308474
1630070110658,54331,255936,308474
1630070110668,54310,255931,308447
1630070110678,54275,255887,308456
1630070110688,54248,255919,308506
1630070110698,54230,255917,308440
1630070110708,54231,255931,308422
1630070110718,54205,255939,308421
1630070110728,54186,255910,308451
1630070110738,54188,255891,308402
1630070110748,54169,255913,308404
1630070110758,54150,255886,308378
1630070110768,54117,255876,308363
1630070110778,54106,255842,308344
1630070110788,54082,255868,308314
1630070110798,54055,255841,308285
1630070110808,54047,255805,308269
1630070110818,54034,255812,308212
1630070110828,54022,255788,308198
1630070110838,54015,255817,308172
1630070110848,53993,255807,308189
1630070110858,53997,255820,308152
1630070110868,53982,255809,308127
1630070110878,53990,255788,308157
1630070110888,53993,255770,308157
1630070110898,54007,255811,308162
1630070110908,54008,255815,308128
1630070110918,54021,255814,308137
1630070110928,54032,255835,308162
1630070110938,54049,255867,308155
1630070110948,54075,255878,308180
1630070110958,54081,255909,308156
1630070110968,54096,255930,308193
1630070110978,54126,255901,308230
1630070110988,54136,255960,308242
1630070110998,54166,255981,308242
1630070111008,54172,255975,308275
1630070111018,54196,256020,308261
1630070111028,54230,256042,308297
1630070111038,54243,256024,308299
1630070111048,54257,256028,308302
1630070111058,54277,256074,308340
1630070111068,54304,256090,308330
1630070111078,54324,256124,308328
1630070111088,54349,256147,308339
1630070111098,54365,256144,308395
1630070111108,54390,256172,308427
1630070111118,54415,256177,308396
1630070111128,54432,256206,308402
1630070111138,54470,256223,308480
1630070111148,54492,256228,308441
1630070111158,54511,256254,308410
1630070111168,54498,256219,308438
1630070111178,54490,256166,308334
1630070111188,54460,256087,308282
1630070111198,54450,256045,308268
1630070111208,54390,255991,308248
1630070111218,54339,255948,308226
1630070111228,54297,255925,308205
1630070111238,54248,255854,308217
1630070111248,54202,255821,308181
1630070111258,54154,255828,308197
1630070111268,54109,255758,308184
1630070111278,54075,255710,308127
1630070111288,54038,255724,308145
1630070111298,54009,255696,308164
1630070111308,53973,255692,308122
1630070111318,53945,255672,308124
1630070111328,53896,255681,308098
1630070111338,53863,255635,308127
1630070111348,53839,255583,308089
1630070111358,53820,255601,308089
1630070111368,53790,255614,308096
1630070111378,53756,255584,308099
1630070111388,53767,255596,308108
1630070111398,53764,255559,308108
1630070111408,53755,255603,308116
1630070111418,53751,255608,308109
1630070111428,53752,255621,308101
1630070111438,53740,255621,308090
1630070111448,53740,255625,308105
1630070111458,53740,255593,308121
1630070111468,53725,255588,308108
1630070111478,53726,255598,308104
1630070111488,53723,255602,308085
1630070111498,53727,255554,308087
1630070111508,53722,255632,308067
1630070111518,53709,255597,308083
1630070111528,53724,255580,308127
1630070111538,53728,255598,308148
1630070111548,53736,255609,308134
1630070111558,53739,255675,308113
1630070111568,53756,255687,308121
1630070111578,53761,255653,308134
1630070111588,53782,255697,308130
1630070111598,53801,255718,308187
1630070111608,53810,255704,308161
1630070111618,53830,255697,308175
1630070111628,53852,255704,308182
1630070111638,53878,255722,308239
1630070111648,53889,255794,308189
1630070111658,53895,255753,308230
1630070111668,53919,255789,308188
1630070111678,53948,255828,308263
1630070111688,53968,255822,308234
1630070111698,53989,255868,308268
1630070111708,54004,255840,308245
1630070111718,54025,255871,308315
1630070111728,54053,255936,308295
1630070111738,54082,255943,308261
1630070111748,54108,255961,308297
1630070111758,54119,255986,308313
1630070111768,54151,256004,308366
1630070111778,54177,256002,308358
1630070111788,54207,256045,308375
1630070111798,54231,256036,308362
1630070111808,54262,256082,308387
1630070111818,54277,256086,308400
1630070111828,54309,256126,308438
1630070111838,54323,256136,308406
1630070111848,54346,256163,308420
1630070111858,54369,256163,308403
1630070111868,54368,256090,308371
1630070111878,54365,256046,308332
1630070111888,54339,255999,308321
1630070111898,54312,255914,308269
1630070111908,54279,255908,308221
1630070111918,54241,255821,308251
1630070111928,54213,255822,308220
1630070111938,54176,255814,308221
1630070111948,54150,255722,308170
1630070111958,54124,255747,308186
1630070111968,54098,255746,308165
1630070111978,54071,255736,308172
1630070111988,54053,255699,308186
1630070111998,54012,255691,308162
1630070112008,54006,255694,308153
1630070112018,53974,255667,308110
1630070112028,53938,255652,308142
1630070112038,53930,255662,308109
1630070112048,53905,255620,308097
1630070112058,53899,255614,308111
1630070112068,53892,255623,308134
1630070112078,53899,255626,308130
1630070112088,53901,255648,308121
1630070112098,53899,255656,308135
1630070112108,53902,255685,308156
1630070112118,53917,255652,308115
1630070112128,53925,255643,308122
1630070112138,53924,255641,308144
1630070112148,53914,255682,308154
1630070112158,53925,255659,308188
1630070112168,53926,255628,308155
1630070112178,53931,255701,308146
1630070112188,53934,255670,308147
1630070112198,53923,255662,308173
1630070112208,53934,255688,308190
1630070112218,53934,255661,308157
1630070112228,53946,255683,308197
1630070112238,53962,255699,308194
1630070112248,53978,255690,308220
1630070112258,53985,255720,308216
1630070112268,53985,255732,308214
1630070112278,54018,255758,308243
1630070112288,54044,255797,308225
1630070112298,54055,255777,308264
1630070112308,54080,255814,308276
1630070112318,54090,255786,308251
1630070112328,54107,255836,308282
1630070112338,54121,255876,308296
1630070112348,54134,255861,308312
1630070112358,54162,255905,308333
1630070112368,54181,255927,308334
1630070112378,54200,255888,308329
1630070112388,54230,255957,308358
1630070112398,54242,255964,308365
1630070112408,54274,256002,308397
1630070112418,54289,255988,308380
1630070112428,54316,256025,308423
1630070112438,54350,256005,308424
1630070112448,54378,256072,308389
1630070112458,54397,256094,308421
1630070112468,54412,256115,308424
1630070112478,54450,256131,308438
1630070112488,54474,256146,308443
1630070112498,54497,256178,308460
1630070112508,54516,256221,308461
1630070112518,54533,256208,308446
1630070112528,54540,256182,308417
1630070112538,54536,256115,308377
1630070112548,54507,256012,308380
1630070112558,54493,255985,308278
1630070112568,54459,255957,308301
1630070112578,54428,255894,308282
1630070112588,54398,255886,308272
1630070112598,54356,255856,308263
1630070112608,54324,255813,308253
1630070112618,54283,255786,308233
1630070112628,54262,255806,308220
1630070112638,54236,255796,308199
1630070112648,54222,255752,308182
1630070112658,54190,255729,308213
1630070112668,54168,255693,308198
1630070112678,54145,255750,308191
1630070112688,54125,255671,308173
1630070112698,54106,255662,308193
1630070112708,54094,255655,308172
1630070112718,54088,255668,308179
1630070112728,54067,255675,308174
1630070112738,54060,255683,308162
1630070112748,54071,255696,308213
1630070112758,54083,255679,308218
1630070112768,54082,255740,308185
1630070112778,54076,255719,308188
1630070112788,54076,255692,308189
1630070112798,54081,255726,308224
1630070112808,54085,255703,308224
1630070112818,54085,255758,308218
1630070112828,54093,255710,308215
1630070112838,54095,255719,308229
1630070112848,54094,255744,308239
1630070112858,54099,255750,308224
1630070112868,54099,255731,308245
1630070112878,54117,255778,308214
1630070112888,54119,255737,308252
1630070112898,54132,255760,308265
1630070112908,54145,255773,308237
1630070112918,54167,255772,308257
1630070112928,54177,255816,308283
1630070112938,54187,255811,308279
1630070112948,54215,255831,308257
1630070112958,54223,255830,308338
1630070112968,54247,255846,308342
1630070112978,54254,255895,308326
1630070112988,54286,255933,308333
1630070112998,54301,255913,308353
1630070113008,54321,255922,308333
1630070113018,54338,255993,308380
1630070113028,54362,255981,308391
1630070113038,54382,256032,308353
1630070113048,54413,255982,308366
1630070113058,54423,256043,308387
1630070113068,54452,256024,308422
1630070113078,54472,256044,308413
1630070113088,54491,256111,308393
1630070113098,54511,256066,308411
1630070113108,54536,256137,308420
1630070113118,54556,256155,308416
1630070113128,54593,256144,308433
1630070113138,54603,256175,308429
1630070113148,54631,256183,308447
1630070113158,54659,256192,308471
1630070113168,54686,256242,308470
1630070113178,54706,256266,308496
1630070113188,54736,256260,308513
1630070113198,54758,256278,308457
1630070113208,54754,256237,308429
1630070113218,54743,256201,308416
1630070113228,54721,256108,308388
1630070113238,54695,256041,308330
1630070113248,54660,256019,308304
1630070113258,54628,255970,308302
1630070113268,54591,255958,308263
1630070113278,54557,255933,308241
1630070113288,54522,255904,308252
1630070113298,54494,255865,308223
1630070113308,54452,255811,308212
1630070113318,54427,255826,308217
1630070113328,54404,255830,308194
1630070113338,54387,255761,308189
1630070113348,54342,255776,308176
1630070113358,54329,255778,308185
1630070113368,54301,255746,308194
1630070113378,54271,255729,308183
1630070113388,54253,255660,308153
1630070113398,54239,255713,308167
1630070113408,54224,255722,308140
1630070113418,54205,255712,308178
1630070113428,54205,255698,308153
1630070113438,54217,255730,308167
1630070113448,54213,255731,308179
1630070113458,54211,255767,308189
1630070113468,54203,255754,308196
1630070113478,54205,255727,308224
1630070113488,54207,255765,308187
1630070113498,54204,255743,308198
1630070113508,54198,255716,308196
1630070113518,54203,255762,308181
1630070113528,54200,255774,308153
1630070113538,54198,255775,308155
1630070113548,54206,255757,308220
1630070113558,54211,255736,308210
1630070113568,54207,255799,308187
1630070113578,54221,255783,308217
1630070113588,54232,255787,308257
1630070113598,54253,255832,308226
1630070113608,54254,255825,308218
1630070113618,54266,255836,308242
1630070113628,54287,255823,308253
1630070113638,54294,255893,308273
1630070113648,54314,255876,308267
1630070113658,54333,255901,308280
1630070113668,54349,255940,308294
1630070113678,54361,255923,308304
1630070113688,54376,255931,308290
1630070113698,54394,255982,308328
1630070113708,54425,255995,308334
1630070113718,54439,255988,308301
1630070113728,54460,256011,308375
1630070113738,54488,256040,308365
1630070113748,54517,256075,308396
1630070113758,54536,256080,308392
1630070113768,54555,256104,308408
1630070113778,54578,256117,308438
1630070113788,54596,256155,308430
1630070113798,54629,256169,308472
1630070113808,54656,256153,308452
1630070113818,54671,256184,308402
1630070113828,54700,256217,308457
1630070113838,54725,256217,308474
1630070113848,54750,256229,308494
1630070113858,54782,256252,308516
1630070113868,54803,256285,308471
1630070113878,54807,256259,308490
1630070113888,54779,256169,308417
1630070113898,54770,256114,308393
1630070113908,54747,256112,308327
1630070113918,54700,256074,308258
1630070113928,54677,255970,308265
1630070113938,54641,255939,308263
1630070113948,54607,255928,308217
1630070113958,54572,255864,308224
1630070113968,54527,255891,308218
1630070113978,54492,255839,308160
1630070113988,54472,255860,308198
1630070113998,54445,255814,308205
1630070114008,54412,255801,308197
1630070114018,54382,255793,308163
1630070114028,54346,255798,308207
1630070114038,54326,255783,308165
1630070114048,54305,255737,308161
1630070114058,54287,255722,308119
1630070114068,54265,255714,308127
1630070114078,54256,255731,308147
1630070114088,54242,255735,308146
1630070114098,54237,255750,308144
1630070114108,54240,255713,308145
1630070114118,54217,255752,308156
1630070114128,54221,255751,308189
1630070114138,54227,255754,308171
1630070114148,54224,255760,308101
1630070114158,54203,255747,308153
1630070114168,54201,255730,308120
1630070114178,54192,255730,308084
1630070114188,54196,255750,308088
1630070114198,54179,255769,308126
1630070114208,54183,255742,308118
1630070114218,54180,255739,308107
1630070114228,54187,255731,308106
1630070114238,54194,255743,308137
1630070114248,54197,255762,308103
1630070114258,54208,255771,308098
1630070114268,54212,255754,308099
1630070114278,54200,255782,308145
1630070114288,54218,255812,308137
1630070114298,54226,255810,308142
1630070114308,54240,255847,308096
1630070114318,54254,255843,308144
1630070114328,54268,255876,308148
1630070114338,54281,255867,308151
1630070114348,54288,255867,308145
1630070114358,54317,255885,308181
1630070114368,54326,255938,308169
1630070114378,54363,255923,308182
1630070114388,54375,255978,308192
1630070114398,54397,255975,308237
1630070114408,54420,256002,308254
1630070114418,54434,255969,308249
1630070114428,54442,256026,308234
1630070114438,54470,256071,308269
1630070114448,54495,256051,308246
1630070114458,54510,256072,308257
1630070114468,54523,256127,308237
1630070114478,54543,256102,308310
1630070114488,54584,256116,308313
1630070114498,54593,256136,308325
1630070114508,54610,256184,308299
1630070114518,54625,256161,308303
1630070114528,54614,256146,308235
1630070114538,54615,256099,308200
1630070114548,54573,256070,308189
1630070114558,54567,255976,308119
1630070114568,54523,255886,308073
1630070114578,54480,255873,308084
1630070114588,54444,255829,308060
1630070114598,54399,255830,308060
1630070114608,54351,255782,308040
1630070114618,54308,255747,308024
1630070114628,54278,255703,308002
1630070114638,54253,255704,308015
1630070114648,54221,255685,307996
1630070114658,54197,255683,308003
1630070114668,54166,255686,307959
1630070114678,54145,255682,307961
1630070114688,54122,255626,307936
1630070114698,54107,255623,307942
1630070114708,54091,255637,307919
1630070114718,54067,255640,307940
1630070114728,54066,255657,307932
1630070114738,54056,255630,307930
1630070114748,54069,255687,307987
1630070114758,54069,255685,307944
1630070114768,54069,255657,307964
1630070114778,54053,255654,307943
1630070114788,54046,255664,307935
1630070114798,54048,255679,307960
1630070114808,54039,255667,307983
1630070114818,54035,255638,307935
1630070114828,54030,255669,307959
1630070114838,54029,255629,307917
1630070114848,54012,255647,307924
1630070114858,54019,255646,307932
1630070114868,54017,255638,307923
1630070114878,54019,255663,307968
1630070114888,54033,255689,307904
1630070114898,54033,255708,307960
1630070114908,54043,255681,308005
1630070114918,54048,255712,307961
1630070114928,54058,255748,307965
1630070114938,54069,255753,307990
1630070114948,54083,255699,308000
1630070114958,54101,255727,307996
1630070114968,54099,255764,308002
1630070114978,54116,255785,308003
1630070114988,54129,255775,308011
1630070114998,54143,255829,308009
1630070115008,54159,255837,308006
1630070115018,54175,255808,308076
1630070115028,54193,255862,308057
1630070115038,54208,255866,308056
1630070115048,54233,255922,308060
1630070115058,54257,255925,308065
1630070115068,54263,255916,308064
1630070115078,54298,255933,308100
1630070115088,54309,255982,308148
1630070115098,54324,255977,308135
1630070115108,54348,256000,308173
1630070115118,54372,256050,308137
1630070115128,54387,256019,308108
1630070115138,54413,256052,308139
1630070115148,54421,256046,308144
1630070115158,54430,256015,308091
1630070115168,54406,255965,308071
1630070115178,54381,255880,307984
1630070115188,54337,255838,307949
1630070115198,54289,255749,307964
1630070115208,54245,255722,307897
1630070115218,54199,255687,307904
1630070115228,54153,255656,307872
1630070115238,54119,255639,307827
1630070115248,54070,255613,307784
1630070115258,54028,255569,307815
1630070115268,53988,255556,307857
1630070115278,53961,255562,307787
1630070115288,53921,255551,307784
1630070115298,53880,255495,307759
1630070115308,53855,255425,307753
1630070115318,53825,255458,307741
1630070115328,53796,255442,307791
1630070115338,53769,255434,307754
1630070115348,53756,255398,307745
1630070115358,53725,255411,307758
1630070115368,53729,255440,307783
1630070115378,53711,255416,307804
1630070115388,53715,255437,307792
1630070115398,53708,255443,307781
1630070115408,53718,255454,307794
1630070115418,53706,255432,307778
1630070115428,53689,255415,307791
1630070115438,53679,255423,307801
1630070115448,53694,255434,307772
1630070115458,53686,255423,307763
1630070115468,53683,255419,307782
1630070115478,53675,255417,307808
1630070115488,53687,255432,307788
1630070115498,53686,255439,307822
1630070115508,53685,255404,307840
1630070115518,53699,255455,307825
1630070115528,53706,255446,307844
1630070115538,53710,255507,307852
1630070115548,53728,255455,307857
1630070115558,53732,255528,307876
1630070115568,53731,255459,307878
1630070115578,53762,255470,307873
1630070115588,53766,255525,307880
1630070115598,53776,255503,307924
1630070115608,53791,255541,307887
1630070115618,53808,255546,307896
1630070115628,53824,255610,307918
1630070115638,53847,255579,307944
1630070115648,53857,255612,307914
1630070115658,53878,255643,307920
1630070115668,53892,255639,307960
1630070115678,53927,255643,307994
1630070115688,53945,255683,307930
1630070115698,53967,255639,308015
1630070115708,53986,255667,308009
1630070115718,53996,255719,308009
1630070115728,54043,255721,308034
1630070115738,54055,255755,308043
1630070115748,54079,255765,308085
1630070115758,54123,255819,308115
1630070115768,54146,255827,308119
1630070115778,54162,255799,308109
1630070115788,54189,255834,308127
1630070115798,54207,255859,308143
1630070115808,54207,255795,308100
1630070115818,54182,255721,308037
1630070115828,54150,255658,308012
1630070115838,54108,255624,307975
1630070115848,54065,255597,307918
1630070115858,54006,255503,307962
1630070115868,53969,255502,307932
1630070115878,53938,255491,307912
1630070115888,53891,255453,307935
1630070115898,53849,255415,307907
1630070115908,53810,255434,307915
1630070115918,53774,255420,307880
1630070115928,53742,255352,307888
1630070115938,53714,255337,307908
1630070115948,53680,255317,307899
1630070115958,53648,255297,307920
1630070115968,53622,255324,307926
1630070115978,53594,255281,307920
1630070115988,53562,255254,307912
1630070115998,53525,255249,307872
1630070116008,53513,255218,307904
1630070116018,53484,255224,307870
1630070116028,53475,255234,307860
1630070116038,53465,255220,307881
1630070116048,53469,255238,307841
1630070116058,53443,255233,307821
1630070116068,53438,255204,307834
1630070116078,53423,255217,307824
1630070116088,53424,255162,307779
1630070116098,53407,255157,307841
1630070116108,53401,255145,307763
1630070116118,53401,255181,307795
1630070116128,53395,255173,307790
1630070116138,53394,255166,307756
1630070116148,53404,255185,307764
1630070116158,53399,255170,307811
1630070116168,53397,255197,307815
1630070116178,53410,255222,307794
1630070116188,53401,255209,307770
1630070116198,53409,255204,307779
1630070116208,53425,255235,307795
1630070116218,53435,255230,307812
1630070116228,53423,255225,307793
1630070116238,53450,255237,307791
1630070116248,53464,255257,307817
1630070116258,53474,255258,307796
1630070116268,53487,255278,307811
1630070116278,53493,255310,307813
1630070116288,53514,255303,307845
1630070116298,53535,255340,307838
1630070116308,53542,255353,307847
1630070116318,53561,255341,307830
1630070116328,53579,255361,307868
1630070116338,53605,255391,307838
1630070116348,53631,255403,307863
1630070116358,53641,255440,307857
1630070116368,53662,255425,307906
1630070116378,53688,255435,307847
1630070116388,53722,255475,307892
1630070116398,53730,255474,307893
1630070116408,53746,255498,307915
1630070116418,53778,255537,307932
1630070116428,53805,255527,307920
1630070116438,53828,255593,307929
1630070116448,53867,255604,307992
1630070116458,53888,255593,307970
1630070116468,53894,255557,307962
1630070116478,53884,255548,307957
1630070116488,53878,255490,307920
1630070116498,53850,255452,307863
1630070116508,53818,255375,307853
1630070116518,53764,255312,307782
1630070116528,53736,255286,307774
1630070116538,53682,255244,307791
1630070116548,53665,255229,307770
1630070116558,53614,255193,307745
1630070116568,53557,255150,307767
1630070116578,53541,255144,307729
1630070116588,53510,255100,307712
1630070116598,53481,255085,307695
1630070116608,53452,255077,307691
1630070116618,53413,255039,307673
1630070116628,53393,255019,307638
1630070116638,53360,254986,307677
1630070116648,53344,254964,307632
1630070116658,53312,254993,307604
1630070116668,53291,254976,307595
1630070116678,53255,254969,307559
1630070116688,53251,254958,307623
1630070116698,53246,254965,307582
1630070116708,53242,254963,307576
1630070116718,53242,254961,307580
1630070116728,53241,254960,307574
1630070116738,53257,254967,307608
1630070116748,53275,254977,307606
1630070116758,53282,254986,307652
1630070116768,53284,255022,307673
1630070116778,53296,255009,307694
1630070116788,53307,254996,307742
1630070116798,53317,255013,307727
1630070116808,53330,255040,307736
1630070116818,53337,255032,307704
1630070116828,53371,255052,307747
1630070116838,53394,255054,307809
1630070116848,53427,255062,307838
1630070116858,53469,255083,307909
1630070116868,53504,255095,307943
1630070116878,53552,255126,308034
1630070116888,53575,255119,308025
1630070116898,53609,255148,308082
1630070116908,53643,255189,308106
1630070116918,53677,255207,308131
1630070116928,53718,255215,308191
1630070116938,53746,255273,308214
1630070116948,53786,255259,308264
1630070116958,53823,255283,308275
1630070116968,53845,255326,308346
1630070116978,53897,255339,308346
1630070116988,53930,255397,308384
1630070116998,53973,255393,308411
1630070117008,54015,255381,308457
1630070117018,54043,255429,308501
1630070117028,54090,255449,308555
1630070117038,54120,255451,308517
1630070117048,54151,255499,308590
1630070117058,54181,255547,308602
1630070117068,54223,255534,308674
1630070117078,54256,255575,308657
1630070117088,54283,255607,308635
1630070117098,54321,255616,308679
1630070117108,54341,255608,308730
1630070117118,54348,255631,308680
1630070117128,54351,255609,308667
1630070117138,54338,255517,308655
1630070117148,54323,255519,308613
1630070117158,54298,255432,308631
1630070117168,54271,255437,308623
1630070117178,54235,255403,308611
1630070117188,54190,255342,308601
1630070117198,54157,255368,308557
1630070117208,54137,255308,308601
1630070117218,54110,255274,308561
1630070117228,54089,255282,308602
1630070117238,54063,255285,308555
1630070117248,54043,255265,308582
1630070117258,54023,255206,308522
1630070117268,54004,255217,308535
1630070117278,53978,255215,308556
1630070117288,53969,255228,308575
1630070117298,53958,255216,308605
1630070117308,53950,255177,308579
1630070117318,53943,255190,308613
1630070117328,53947,255235,308614
1630070117338,53946,255243,308620
1630070117348,53946,255253,308652
1630070117358,53933,255259,308568
1630070117368,53942,255210,308582
1630070117378,53951,255202,308589
1630070117388,53948,255224,308581
1630070117398,53945,255205,308604
1630070117408,53939,255233,308593
1630070117418,53944,255228,308568
1630070117428,53946,255220,308586
1630070117438,53942,255241,308563
1630070117448,53945,255221,308547
1630070117458,53953,255254,308560
1630070117468,53962,255278,308593
1630070117478,53969,255272,308578
1630070117488,53982,255231,308613
1630070117498,53979,255263,308598
1630070117508,54010,255303,308617
1630070117518,54012,255285,308591
1630070117528,54031,255325,308613
1630070117538,54046,255347,308635
1630070117548,54060,255341,308638
1630070117558,54074,255338,308618
1630070117568,54093,255418,308626
1630070117578,54112,255353,308645
1630070117588,54131,255400,308641
1630070117598,54146,255439,308655
1630070117608,54165,255427,308673
1630070117618,54189,255484,308670
1630070117628,54204,255472,308711
1630070117638,54240,255484,308707
1630070117648,54265,255538,308668
1630070117658,54286,255504,308722
1630070117668,54278,255549,308685
1630070117678,54322,255548,308701
1630070117688,54340,255563,308733
1630070117698,54357,255576,308725
1630070117708,54367,255605,308752
1630070117718,54401,255592,308758
1630070117728,54413,255629,308751
1630070117738,54428,255628,308691
1630070117748,54416,255574,308716
1630070117758,54406,255536,308658
1630070117768,54384,255503,308620
1630070117778,54364,255425,308614
1630070117788,54328,255391,308598
1630070117798,54288,255327,308570
1630070117808,54265,255358,308552
1630070117818,54217,255302,308557
1630070117828,54184,255256,308524
1630070117838,54157,255226,308533
1630070117848,54122,255222,308533
1630070117858,54115,255225,308482
1630070117868,54093,255219,308490
1630070117878,54071,255221,308443
1630070117888,54045,255190,308457
1630070117898,54030,255186,308439
1630070117908,54011,255164,308461
1630070117918,54007,255153,308442
1630070117928,53986,255144,308402
1630070117938,53972,255141,308374
1630070117948,53982,255137,308376
1630070117958,53976,255179,308377
1630070117968,53991,255206,308393
1630070117978,53996,255198,308389
1630070117988,53990,255217,308400
1630070117998,54002,255201,308368
1630070118008,54009,255224,308377
1630070118018,54009,255210,308372
1630070118028,54021,255229,308380
1630070118038,54029,255207,308412
1630070118048,54035,255267,308347
1630070118058,54048,255248,308364
1630070118068,54061,255246,308404
1630070118078,54079,255256,308414
1630070118088,54094,255275,308404
1630070118098,54096,255290,308419
1630070118108,54120,255300,308437
1630070118118,54151,255334,308489
1630070118128,54165,255337,308456
1630070118138,54185,255337,308520
1630070118148,54212,255381,308475
1630070118158,54221,255388,308497
1630070118168,54247,255396,308540
1630070118178,54271,255423,308542
1630070118188,54274,255440,308526
1630070118198,54304,255448,308536
1630070118208,54323,255461,308536
1630070118218,54348,255463,308537
1630070118228,54367,255481,308543
1630070118238,54396,255540,308561
1630070118248,54427,255524,308602
1630070118258,54440,255530,308603
1630070118268,54459,255561,308588
1630070118278,54487,255557,308597
1630070118288,54511,255606,308561
1630070118298,54519,255599,308579
1630070118308,54531,255636,308601
1630070118318,54544,255663,308583
1630070118328,54543,255648,308565
1630070118338,54525,255646,308467
1630070118348,54510,255620,308436
1630070118358,54482,255526,308433
1630070118368,54445,255509,308390
1630070118378,54393,255443,308343
1630070118388,54338,255434,308312
1630070118398,54289,255398,308241
1630070118408,54238,255366,308226
1630070118418,54193,255338,308181
1630070118428,54163,255344,308150
1630070118438,54144,255355,308177
1630070118448,54114,255368,308127
1630070118458,54098,255351,308164
1630070118468,54082,255330,308125
1630070118478,54076,255346,308157
1630070118488,54061,255334,308160
1630070118498,54055,255349,308178
1630070118508,54029,255360,308145
1630070118518,54027,255342,308189
1630070118528,54022,255390,308174
1630070118538,54030,255404,308180
1630070118548,54048,255409,308253
1630070118558,54066,255413,308299
1630070118568,54074,255463,308261
1630070118578,54074,255472,308220
1630070118588,54086,255417,308297
1630070118598,54100,255483,308283
1630070118608,54099,255507,308260
1630070118618,54128,255489,308292
1630070118628,54133,255499,308331
1630070118638,54132,255558,308272
1630070118648,54152,255534,308307
1630070118658,54172,255578,308314
1630070118668,54171,255572,308285
1630070118678,54185,255552,308355
1630070118688,54200,255551,308351
1630070118698,54222,255610,308373
1630070118708,54238,255598,308389
1630070118718,54259,255636,308388
1630070118728,54275,255648,308371
1630070118738,54308,255665,308420
1630070118748,54326,255696,308455
1630070118758,54358,255702,308468
1630070118768,54370,255741,308488
1630070118778,54407,255755,308510
1630070118788,54436,255788,308508
1630070118798,54450,255789,308596
1630070118808,54499,255864,308550
1630070118818,54524,255896,308603
1630070118828,54562,255879,308602
1630070118838,54597,255924,308628
1630070118848,54626,255964,308679
1630070118858,54659,255981,308713
1630070118868,54698,256014,308782
1630070118878,54732,256045,308762
1630070118888,54778,256065,308802
1630070118898,54811,256068,308831
1630070118908,54862,256114,308847
1630070118918,54898,256079,308875
1630070118928,54928,256101,308888
1630070118938,54939,256086,308864
1630070118948,54946,255965,308836
1630070118958,54938,255920,308828
1630070118968,54921,255882,308789
1630070118978,54892,255862,308748
1630070118988,54874,255870,308841
1630070118998,54844,255812,308793
1630070119008,54801,255769,308754
1630070119018,54763,255761,308736
1630070119028,54736,255772,308725
1630070119038,54709,255748,308719
1630070119048,54668,255773,308721
1630070119058,54642,255722,308699
1630070119068,54611,255763,308716
1630070119078,54598,255722,308724
1630070119088,54572,255700,308641
1630070119098,54550,255686,308694
1630070119108,54511,255655,308683
1630070119118,54509,255701,308624
1630070119128,54476,255678,308646
1630070119138,54465,255644,308654
1630070119148,54462,255665,308664
1630070119158,54448,255702,308668
1630070119168,54451,255698,308622
1630070119178,54451,255710,308629
1630070119188,54450,255657,308626
1630070119198,54451,255689,308643
1630070119208,54435,255686,308643
1630070119218,54437,255654,308618
1630070119228,54436,255689,308598
1630070119238,54443,255694,308573
1630070119248,54441,255725,308615
1630070119258,54447,255720,308601
1630070119268,54435,255704,308557
1630070119278,54455,255682,308604
1630070119288,54440,255731,308599
1630070119298,54465,255746,308591
1630070119308,54453,255737,308569
1630070119318,54464,255757,308555
1630070119328,54466,255734,308554
1630070119338,54470,255774,308575
1630070119348,54493,255799,308606
1630070119358,54502,255833,308564
1630070119368,54516,255788,308560
1630070119378,54519,255814,308549
1630070119388,54538,255812,308577
1630070119398,54566,255838,308591
1630070119408,54575,255907,308593
1630070119418,54593,255896,308609
1630070119428,54603,255913,308590
1630070119438,54631,255935,308589
1630070119448,54652,255935,308581
1630070119458,54668,255954,308612
1630070119468,54700,256012,308606
1630070119478,54716,255991,308621
1630070119488,54732,256011,308620
1630070119498,54758,256060,308659
1630070119508,54770,256044,308638
1630070119518,54801,256084,308636
1630070119528,54818,256090,308639
1630070119538,54824,256056,308579
1630070119548,54816,256018,308587
1630070119558,54798,256018,308534
1630070119568,54774,255920,308470
1630070119578,54734,255839,308438
1630070119588,54714,255801,308402
1630070119598,54672,255767,308397
1630070119608,54619,255742,308375
1630070119618,54592,255715,308393
1630070119628,54554,255736,308344
1630070119638,54526,255703,308326
1630070119648,54497,255707,308369
1630070119658,54469,255653,308342
1630070119668,54430,255660,308342
1630070119678,54401,255589,308329
1630070119688,54381,255579,308341
1630070119698,54362,255588,308335
1630070119708,54340,255594,308335
1630070119718,54323,255579,308308
1630070119728,54300,255603,308304
1630070119738,54294,255588,308323
1630070119748,54279,255582,308306
1630070119758,54286,255615,308308
1630070119768,54270,255606,308339
1630070119778,54291,255625,308322
1630070119788,54283,255610,308368
1630070119798,54279,255591,308355
1630070119808,54284,255629,308327
1630070119818,54274,255647,308327
1630070119828,54275,255568,308316
1630070119838,54268,255626,308332
1630070119848,54270,255596,308337
1630070119858,54275,255591,308321
1630070119868,54269,255611,308340
1630070119878,54271,255619,308312
1630070119888,54277,255641,308315
1630070119898,54284,255661,308319
1630070119908,54281,255605,308341
1630070119918,54301,255643,308341
1630070119928,54315,255671,308395
1630070119938,54314,255684,308368
1630070119948,54331,255685,308374
1630070119958,54345,255696,308379
1630070119968,54355,255747,308378
1630070119978,54359,255732,308383
1630070119988,54377,255747,308385
1630070119998,54393,255753,308405
1630070120008,54404,255793,308423
1630070120018,54413,255779,308431
1630070120028,54437,255793,308410
1630070120038,54459,255805,308423
1630070120048,54487,255876,308458
1630070120058,54495,255804,308482
1630070120068,54514,255899,308457
1630070120078,54537,255890,308459
1630070120088,54557,255940,308444
1630070120098,54590,255948,308499
1630070120108,54611,255989,308488
1630070120118,54631,255985,308477
1630070120128,54656,255990,308476
1630070120138,54666,255978,308525
1630070120148,54677,255991,308503
1630070120158,54650,255916,308415
1630070120168,54634,255890,308380
1630070120178,54600,255795,308317
1630070120188,54555,255768,308281
1630070120198,54508,255684,308245
1630070120208,54462,255665,308230
1630070120218,54423,255609,308244
1630070120228,54381,255570,308219
1630070120238,54331,255554,308231
1630070120248,54294,255573,308203
1630070120258,54248,255523,308227
1630070120268,54222,255493,308201
1630070120278,54193,255455,308142
1630070120288,54141,255456,308179
1630070120298,54107,255437,308169
1630070120308,54077,255410,308150
1630070120318,54046,255440,308130
1630070120328,54024,255432,308124
1630070120338,53987,255408,308133
1630070120348,53966,255409,308120
1630070120358,53951,255402,308145
1630070120368,53942,255420,308142
1630070120378,53947,255399,308142
1630070120388,53948,255401,308174
1630070120398,53949,255421,308172
1630070120408,53941,255412,308167
1630070120418,53926,255411,308119
1630070120428,53929,255394,308155
1630070120438,53936,255418,308182
1630070120448,53938,255394,308159
1630070120458,53924,255440,308169
1630070120468,53915,255433,308186
1630070120478,53917,255418,308158
1630070120488,53917,255414,308185
1630070120498,53918,255406,308171
1630070120508,53924,255438,308191
1630070120518,53939,255455,308200
1630070120528,53939,255404,308166
1630070120538,53956,255472,308176
1630070120548,53949,255487,308203
1630070120558,53972,255467,308193
1630070120568,53974,255521,308198
1630070120578,53998,255531,308218
1630070120588,54027,255514,308238
1630070120598,54019,255604,308245
1630070120608,54049,255572,308268
1630070120618,54073,255601,308261
1630070120628,54084,255615,308304
1630070120638,54099,255631,308296
1630070120648,54123,255632,308318
1630070120658,54144,255661,308291
1630070120668,54162,255650,308312
1630070120678,54189,255707,308351
1630070120688,54204,255705,308358
1630070120698,54230,255750,308373
1630070120708,54242,255741,308354
1630070120718,54270,255804,308378
1630070120728,54291,255789,308400
1630070120738,54323,255818,308410
1630070120748,54351,255840,308395
1630070120758,54370,255861,308416
1630070120768,54376,255846,308397
1630070120778,54387,255812,308369
1630070120788,54372,255778,308351
1630070120798,54338,255700,308253
1630070120808,54306,255622,308229
1630070120818,54252,255607,308170
1630070120828,54203,255535,308155
1630070120838,54155,255482,308136
1630070120848,54099,255446,308112
1630070120858,54044,255396,308090
1630070120868,53996,255333,308053
1630070120878,53952,255325,308070
1630070120888,53910,255293,308012
1630070120898,53853,255274,307999
1630070120908,53826,255210,308007
1630070120918,53775,255219,308023
1630070120928,53720,255160,307938
1630070120938,53677,255139,307925
1630070120948,53639,255110,307959
1630070120958,53606,255104,307928
1630070120968,53568,255086,307920
1630070120978,53537,255035,307932
1630070120988,53512,255023,307912
1630070120998,53500,255061,307921
1630070121008,53473,255068,307935
1630070121018,53482,255076,307912
1630070121028,53469,255030,307918
1630070121038,53467,255122,307908
1630070121048,53479,255096,307911
1630070121058,53467,255069,307891
1630070121068,53475,255063,307947
1630070121078,53464,255102,307929
1630070121088,53452,255061,307920
1630070121098,53479,255077,307948
1630070121108,53467,255090,307935
1630070121118,53460,255052,307938
1630070121128,53465,255073,307931
1630070121138,53467,255083,307955
1630070121148,53475,255127,307928
1630070121158,53480,255096,307937
1630070121168,53488,255138,307990
1630070121178,53500,255143,307972
1630070121188,53510,255185,307975
1630070121198,53534,255199,307988
1630070121208,53545,255180,308020
1630070121218,53563,255170,308029
1630070121228,53579,255210,308000
1630070121238,53604,255235,308019
1630070121248,53625,255251,308047
1630070121258,53644,255265,308055
1630070121268,53661,255329,308062
1630070121278,53700,255296,308056
1630070121288,53713,255329,308068
1630070121298,53741,255336,308093
1630070121308,53761,255375,308113
1630070121318,53789,255383,308130
1630070121328,53825,255395,308152
1630070121338,53839,255403,308156
1630070121348,53870,255455,308187
1630070121358,53907,255453,308188
1630070121368,53929,255507,308194
1630070121378,53966,255535,308217
1630070121388,54002,255555,308235
1630070121398,54011,255584,308236
1630070121408,54056,255586,308251
1630070121418,54065,255608,308253
1630070121428,54103,255598,308242
1630070121438,54111,255609,308235
1630070121448,54106,255572,308184
1630070121458,54089,255545,308110
1630070121468,54058,255461,308106
1630070121478,54023,255370,308067
1630070121488,53986,255321,308042
1630070121498,53936,255302,308021
1630070121508,53892,255258,308007
1630070121518,53848,255182,308043
1630070121528,53805,255206,308010
1630070121538,53765,255167,307989
1630070121548,53738,255149,307919
1630070121558,53689,255094,307962
1630070121568,53680,255081,307946
1630070121578,53621,255061,307917
1630070121588,53598,255060,307915
1630070121598,53565,255036,307933
1630070121608,53543,254976,307914
1630070121618,53513,255000,307923
1630070121628,53496,254985,307888
1630070121638,53462,254964,307863
1630070121648,53448,254929,307864
1630070121658,53442,254937,307911
1630070121668,53439,254939,307931
1630070121678,53456,254980,307929
1630070121688,53457,254988,307939
1630070121698,53455,255023,307960
1630070121708,53450,254986,307920
1630070121718,53458,255017,307954
1630070121728,53480,254990,307970
1630070121738,53477,254992,307960
1630070121748,53474,255025,307960
1630070121758,53493,255015,307969
1630070121768,53490,255023,307933
1630070121778,53493,255058,307978
1630070121788,53507,255025,307966
1630070121798,53524,255046,307981
1630070121808,53533,255046,307951
1630070121818,53543,255066,308001
1630070121828,53569,255074,308014
1630070121838,53586,255106,308032
1630070121848,53605,255140,308015
1630070121858,53622,255160,308047
1630070121868,53636,255164,308070
1630070121878,53671,255154,308079
1630070121888,53663,255226,308077
1630070121898,53708,255231,308096
1630070121908,53727,255285,308084
1630070121918,53746,255242,308131
1630070121928,53780,255273,308125
1630070121938,53809,255323,308139
1630070121948,53836,255338,308176
1630070121958,53869,255370,308170
1630070121968,53894,255353,308178
1630070121978,53919,255399,308199
1630070121988,53953,255392,308194
1630070121998,53984,255453,308221
1630070122008,54015,255474,308264
1630070122018,54046,255507,308218
1630070122028,54059,255527,308309
1630070122038,54102,255542,308282
1630070122048,54124,255562,308327
1630070122058,54156,255588,308348
1630070122068,54198,255603,308320
1630070122078,54214,255598,308364
1630070122088,54249,255621,308381
1630070122098,54273,255698,308361
1630070122108,54321,255722,308382
1630070122118,54331,255690,308419
1630070122128,54366,255717,308418
1630070122138,54360,255706,308357
1630070122148,54359,255642,308283
1630070122158,54341,255574,308249
1630070122168,54320,255504,308210
1630070122178,54294,255467,308209
1630070122188,54250,255417,308215
1630070122198,54226,255388,308176
1630070122208,54192,255369,308151
1630070122218,54161,255348,308118
1630070122228,54134,255272,308107
1630070122238,54100,255293,308131
1630070122248,54082,255296,308081
1630070122258,54057,255264,308105
1630070122268,54034,255257,308127
1630070122278,54020,255284,308060
1630070122288,54006,255258,308094
1630070122298,53987,255215,308079
1630070122308,53972,255218,308061
1630070122318,53961,255253,308064
1630070122328,53944,255251,308048
1630070122338,53938,255230,308064
1630070122348,53936,255257,308064
1630070122358,53949,255251,308078
1630070122368,53954,255285,308071
1630070122378,53972,255301,308114
1630070122388,53983,255287,308101
1630070122398,53973,255263,308094
1630070122408,53978,255274,308119
1630070122418,53981,255325,308111
1630070122428,53990,255319,308117
1630070122438,53994,255290,308106
1630070122448,54003,255277,308135
1630070122458,54021,255338,308098
1630070122468,54013,255354,308148
1630070122478,54031,255319,308115
1630070122488,54040,255364,308130
1630070122498,54065,255386,308127
1630070122508,54078,255397,308159
1630070122518,54084,255426,308184
1630070122528,54126,255410,308198
1630070122538,54116,255424,308169
1630070122548,54136,255488,308192
1630070122558,54154,255459,308221
1630070122568,54179,255475,308231
1630070122578,54216,255476,308232
1630070122588,54233,255547,308230
1630070122598,54253,255522,308262
1630070122608,54276,255562,308260
1630070122618,54304,255540,308290
1630070122628,54326,255606,308299
1630070122638,54354,255622,308291
1630070122648,54391,255628,308308
1630070122658,54401,255658,308297
1630070122668,54442,255651,308342
1630070122678,54455,255697,308349
1630070122688,54468,255722,308327
1630070122698,54509,255747,308346
1630070122708,54533,255794,308383
1630070122718,54580,255816,308357
1630070122728,54595,255795,308418
1630070122738,54630,255813,308424
1630070122748,54654,255873,308402
1630070122758,54682,255894,308436
1630070122768,54707,255931,308460
1630070122778,54736,255910,308473
1630070122788,54772,255928,308447
1630070122798,54803,255974,308482
1630070122808,54830,255959,308458
1630070122818,54861,255979,308414
1630070122828,54843,255938,308421
1630070122838,54848,255881,308355
1630070122848,54830,255807,308349
1630070122858,54806,255795,308325
1630070122868,54789,255741,308289
1630070122878,54768,255742,308296
1630070122888,54742,255714,308272
1630070122898,54715,255653,308288
1630070122908,54701,255684,308245
1630070122918,54686,255676,308239
1630070122928,54671,255613,308226
1630070122938,54652,255634,308214
1630070122948,54650,255632,308258
1630070122958,54631,255638,308248
1630070122968,54616,255649,308237
1630070122978,54601,255609,308249
1630070122988,54597,255578,308232
1630070122998,54600,255600,308254
1630070123008,54587,255612,308230
1630070123018,54596,255603,308200
1630070123028,54579,255634,308256
1630070123038,54597,255638,308234
1630070123048,54593,255660,308262
1630070123058,54598,255738,308258
1630070123068,54608,255664,308245
1630070123078,54610,255675,308250
1630070123088,54617,255694,308232
1630070123098,54630,255673,308265
1630070123108,54621,255681,308272
1630070123118,54632,255693,308244
1630070123128,54636,255694,308259
1630070123138,54645,255699,308251
1630070123148,54648,255715,308257
1630070123158,54653,255705,308231
1630070123168,54677,255708,308262
1630070123178,54674,255716,308255
1630070123188,54690,255746,308259
1630070123198,54700,255751,308299
1630070123208,54718,255783,308309
1630070123218,54729,255814,308296
1630070123228,54748,255787,308304
1630070123238,54764,255831,308316
1630070123248,54784,255812,308369
1630070123258,54794,255829,308325
1630070123268,54813,255871,308345
1630070123278,54838,255851,308357
1630070123288,54860,255917,308356
1630070123298,54884,255907,308347
1630070123308,54893,255953,308376
1630070123318,54929,256002,308405
1630070123328,54947,255991,308403
1630070123338,54963,256028,308433
1630070123348,54982,256026,308432
1630070123358,54999,256018,308451
1630070123368,55046,256073,308426
1630070123378,55059,256087,308472
1630070123388,55080,256141,308483
1630070123398,55105,256116,308461
1630070123408,55122,256126,308478
1630070123418,55157,256180,308526
1630070123428,55180,256216,308511
1630070123438,55206,256191,308509
1630070123448,55227,256237,308550
1630070123458,55262,256256,308575
1630070123468,55280,256272,308547
1630070123478,55276,256235,308495
1630070123488,55273,256176,308449
1630070123498,55268,256107,308418
1630070123508,55249,256068,308386
1630070123518,55202,256030,308325
1630070123528,55183,256003,308303
1630070123538,55149,255970,308306
1630070123548,55123,255918,308272
1630070123558,55090,255903,308300
1630070123568,55057,255868,308291
1630070123578,55027,255888,308286
1630070123588,55005,255875,308240
1630070123598,54973,255842,308231
1630070123608,54952,255825,308240
1630070123618,54941,255804,308228
1630070123628,54919,255836,308232
1630070123638,54897,255820,308235
1630070123648,54866,255776,308204
1630070123658,54864,255795,308228
1630070123668,54836,255743,308200
1630070123678,54835,255798,308208
1630070123688,54824,255772,308200
1630070123698,54811,255789,308234
1630070123708,54820,255788,308233
1630070123718,54811,255806,308255
1630070123728,54810,255823,308221
1630070123738,54804,255828,308210
1630070123748,54799,255799,308197
1630070123758,54797,255773,308189
1630070123768,54790,255758,308217
1630070123778,54794,255786,308189
1630070123788,54789,255797,308169
1630070123798,54793,255823,308197
1630070123808,54788,255801,308238
1630070123818,54778,255827,308208
1630070123828,54798,255814,308213
1630070123838,54790,255857,308236
1630070123848,54780,255875,308232
1630070123858,54799,255832,308218
1630070123868,54807,255834,308260
1630070123878,54812,255864,308228
1630070123888,54823,255888,308248
1630070123898,54837,255930,308266
1630070123908,54829,255908,308248
1630070123918,54851,255958,308252
1630070123928,54869,255951,308258
1630070123938,54879,255961,308236
1630070123948,54893,255965,308264
1630070123958,54906,255991,308262
1630070123968,54912,256022,308265
1630070123978,54933,256063,308303
1630070123988,54953,256041,308319
1630070123998,54978,256066,308308
1630070124008,54986,256073,308324
1630070124018,55007,256070,308342
1630070124028,55024,256115,308376
1630070124038,55047,256137,308342
1630070124048,55064,256200,308352
1630070124058,55088,256156,308387
1630070124068,55110,256159,308402
1630070124078,55124,256211,308414
1630070124088,55147,256235,308405
1630070124098,55179,256280,308439
1630070124108,55203,256276,308417
1630070124118,55225,256272,308444
1630070124128,55238,256272,308435
1630070124138,55252,256320,308454
1630070124148,55260,256245,308367
1630070124158,55240,256249,308337
1630070124168,55197,256173,308321
1630070124178,55182,256053,308269
1630070124188,55125,256035,308266
1630070124198,55090,256022,308242
1630070124208,55035,255949,308205
1630070124218,54984,255898,308206
1630070124228,54927,255873,308211
1630070124238,54885,255874,308145
1630070124248,54844,255806,308164
1630070124258,54791,255799,308145
1630070124268,54744,255799,308117
1630070124278,54705,255709,308123
1630070124288,54660,255733,308114
1630070124298,54623,255705,308098
1630070124308,54567,255655,308104
1630070124318,54537,255648,308089
1630070124328,54487,255595,308069
1630070124338,54455,255589,308070
1630070124348,54408,255614,308064
1630070124358,54382,255544,308044
1630070124368,54357,255618,308061
1630070124378,54344,255614,308066
1630070124388,54328,255586,308074
1630070124398,54320,255590,308042
1630070124408,54298,255594,308054
1630070124418,54285,255565,308028
1630070124428,54276,255563,308038
1630070124438,54255,255568,308013
1630070124448,54251,255584,308029
1630070124458,54245,255572,308027
1630070124468,54230,255576,308008
1630070124478,54211,255571,308037
1630070124488,54207,255552,307993
1630070124498,54193,255606,307996
1630070124508,54193,255559,308008
1630070124518,54198,255585,308028
1630070124528,54192,255531,308022
1630070124538,54181,255561,308015
1630070124548,54189,255582,308018
1630070124558,54190,255606,308024
1630070124568,54205,255611,308033
1630070124578,54208,255599,308070
1630070124588,54229,255655,308056
1630070124598,54231,255666,308067
1630070124608,54248,255683,308079
1630070124618,54264,255686,308109
1630070124628,54278,255715,308095
1630070124638,54287,255713,308088
1630070124648,54312,255694,308096
1630070124658,54317,255729,308119
1630070124668,54332,255755,308107
1630070124678,54358,255765,308139
1630070124688,54373,255795,308183
1630070124698,54388,255817,308145
1630070124708,54401,255825,308175
1630070124718,54428,255803,308159
1630070124728,54448,255894,308193
1630070124738,54470,255865,308199
1630070124748,54495,255914,308211
1630070124758,54514,255911,308212
1630070124768,54548,255919,308251
1630070124778,54572,255953,308228
1630070124788,54583,255983,308260
1630070124798,54619,256012,308263
1630070124808,54650,256000,308272
1630070124818,54652,256006,308243
1630070124828,54642,255964,308222
1630070124838,54618,255911,308157
1630070124848,54588,255842,308130
1630070124858,54539,255803,308083
1630070124868,54483,255704,308095
1630070124878,54459,255680,308088
1630070124888,54422,255642,308132
1630070124898,54399,255655,308181
1630070124908,54392,255637,308207
1630070124918,54379,255648,308292
1630070124928,54371,255681,308375
1630070124938,54369,255633,308426
1630070124948,54365,255658,308484
1630070124958,54344,255652,308496
1630070124968,54328,255699,308560
1630070124978,54315,255632,308625
1630070124988,54297,255648,308636
1630070124998,54272,255637,308665
1630070125008,54257,255664,308715
1630070125018,54240,255601,308689
1630070125028,54228,255603,308708
1630070125038,54221,255634,308777
1630070125048,54227,255667,308817
1630070125058,54229,255617,308791
1630070125068,54229,255586,308798
1630070125078,54225,255614,308825
1630070125088,54215,255597,308802
1630070125098,54225,255619,308823
1630070125108,54208,255610,308808
1630070125118,54201,255607,308824
1630070125128,54196,255565,308814
1630070125138,54181,255596,308804
1630070125148,54166,255563,308774
1630070125158,54158,255536,308795
1630070125168,54153,255541,308790
1630070125178,54144,255563,308787
1630070125188,54129,255554,308756
1630070125198,54123,255550,308721
1630070125208,54120,255547,308722
1630070125218,54121,255530,308725
1630070125228,54116,255479,308709
1630070125238,54123,255532,308737
1630070125248,54124,255534,308704
1630070125258,54111,255543,308685
1630070125268,54129,255545,308688
1630070125278,54143,255561,308693
1630070125288,54153,255604,308712
1630070125298,54162,255556,308681
1630070125308,54185,255629,308690
1630070125318,54189,255572,308695
1630070125328,54193,255564,308654
1630070125338,54213,255593,308648
1630070125348,54222,255618,308694
1630070125358,54241,255635,308651
1630070125368,54259,255654,308695
1630070125378,54274,255671,308679
1630070125388,54296,255674,308693
1630070125398,54318,255683,308703
1630070125408,54342,255726,308690
1630070125418,54374,255734,308707
1630070125428,54388,255765,308748
1630070125438,54428,255750,308726
1630070125448,54462,255782,308758
1630070125458,54485,255829,308804
1630070125468,54526,255835,308766
1630070125478,54546,255851,308787
1630070125488,54579,255841,308771
1630070125498,54593,255829,308751
1630070125508,54588,255761,308741
1630070125518,54580,255709,308679
1630070125528,54542,255602,308669
1630070125538,54512,255604,308624
1630070125548,54463,255521,308637
1630070125558,54414,255472,308566
1630070125568,54376,255423,308573
1630070125578,54323,255397,308539
1630070125588,54290,255374,308573
1630070125598,54238,255346,308535
1630070125608,54201,255356,308523
1630070125618,54169,255327,308500
1630070125628,54130,255293,308502
1630070125638,54110,255298,308502
1630070125648,54087,255279,308475
1630070125658,54056,255229,308514
1630070125668,54031,255219,308446
1630070125678,54003,255187,308412
1630070125688,53992,255182,308423
1630070125698,53973,255175,308422
1630070125708,53973,255193,308444
1630070125718,53980,255242,308420
1630070125728,53983,255195,308449
1630070125738,53973,255231,308404
1630070125748,53970,255204,308376
1630070125758,53964,255209,308361
1630070125768,53969,255217,308341
1630070125778,53957,255195,308342
1630070125788,53966,255171,308344
1630070125798,53941,255215,308315
1630070125808,53943,255172,308311
1630070125818,53942,255175,308285
1630070125828,53940,255198,308307
1630070125838,53937,255165,308283
1630070125848,53939,255179,308282
1630070125858,53943,255190,308264
1630070125868,53947,255165,308242
1630070125878,53961,255223,308303
1630070125888,53975,255222,308285
1630070125898,53992,255210,308272
1630070125908,54000,255179,308269
1630070125918,54011,255237,308267
1630070125928,54022,255258,308305
1630070125938,54044,255314,308295
1630070125948,54061,255282,308314
1630070125958,54090,255319,308313
1630070125968,54104,255336,308286
1630070125978,54119,255354,308298
1630070125988,54140,255356,308313
1630070125998,54162,255377,308319
1630070126008,54176,255410,308357
1630070126018,54196,255455,308328
1630070126028,54220,255470,308335
1630070126038,54249,255462,308365
1630070126048,54282,255493,308385
1630070126058,54308,255491,308405
1630070126068,54331,255523,308378
1630070126078,54350,255504,308422
1630070126088,54382,255552,308438
1630070126098,54401,255544,308435
1630070126108,54438,255606,308449
1630070126118,54453,255603,308429
1630070126128,54480,255628,308470
1630070126138,54499,255629,308468
1630070126148,54501,255615,308432
1630070126158,54483,255538,308385
1630070126168,54471,255488,308370
1630070126178,54444,255459,308340
1630070126188,54403,255409,308292
1630070126198,54363,255378,308251
1630070126208,54324,255350,308295
1630070126218,54287,255306,308267
1630070126228,54250,255283,308247
1630070126238,54209,255263,308278
1630070126248,54194,255292,308254
1630070126258,54160,255228,308231
1630070126268,54137,255252,308309
1630070126278,54124,255159,308267
1630070126288,54094,255181,308287
1630070126298,54080,255186,308253
1630070126308,54050,255174,308257
1630070126318,54042,255150,308256
1630070126328,54020,255135,308225
1630070126338,54014,255139,308222
1630070126348,54011,255157,308269
1630070126358,54017,255197,308286
1630070126368,54019,255197,308328
1630070126378,54023,255221,308250
1630070126388,54021,255190,308297
1630070126398,54030,255250,308274
1630070126408,54034,255211,308299
1630070126418,54031,255224,308279
1630070126428,54034,255223,308300
1630070126438,54031,255228,308272
1630070126448,54052,255218,308329
1630070126458,54058,255209,308343
1630070126468,54044,255238,308313
1630070126478,54052,255238,308280
1630070126488,54070,255269,308349
1630070126498,54074,255218,308346
1630070126508,54088,255260,308359
1630070126518,54095,255313,308362
1630070126528,54103,255271,308360
1630070126538,54115,255328,308349
1630070126548,54144,255277,308347
1630070126558,54154,255329,308362
1630070126568,54167,255327,308391
1630070126578,54184,255404,308378
1630070126588,54192,255356,308409
1630070126598,54213,255425,308371
1630070126608,54219,255412,308399
1630070126618,54252,255447,308420
1630070126628,54267,255439,308415
1630070126638,54287,255455,308414
1630070126648,54309,255454,308430
1630070126658,54325,255527,308461
1630070126668,54359,255506,308434
1630070126678,54381,255546,308433
1630070126688,54396,255546,308472
1630070126698,54432,255585,308450
1630070126708,54448,255603,308498
1630070126718,54475,255620,308457
1630070126728,54520,255679,308505
1630070126738,54520,255658,308526
1630070126748,54561,255689,308516
1630070126758,54594,255677,308508
1630070126768,54615,255735,308533
1630070126778,54640,255737,308540
1630070126788,54643,255730,308532
1630070126798,54646,255699,308503
1630070126808,54633,255624,308434
1630070126818,54613,255614,308437
1630070126828,54586,255571,308413
1630070126838,54559,255516,308372
1630070126848,54522,255455,308358
1630070126858,54475,255405,308361
1630070126868,54438,255390,308340
1630070126878,54408,255378,308347
1630070126888,54371,255362,308335
1630070126898,54345,255341,308328
1630070126908,54315,255316,308294
1630070126918,54275,255264,308277
1630070126928,54256,255271,308299
1630070126938,54228,255220,308274
1630070126948,54203,255259,308278
1630070126958,54180,255217,308267
1630070126968,54156,255199,308236
1630070126978,54139,255189,308240
1630070126988,54125,255208,308222
1630070126998,54119,255192,308254
1630070127008,54103,255149,308261
1630070127018,54105,255209,308223
1630070127028,54108,255198,308237
1630070127038,54105,255169,308260
1630070127048,54095,255193,308259
1630070127058,54098,255206,308228
1630070127068,54099,255206,308244
1630070127078,54105,255193,308250
1630070127088,54117,255191,308243
1630070127098,54123,255216,308249
1630070127108,54110,255255,308239
1630070127118,54116,255212,308243
1630070127128,54109,255204,308258
1630070127138,54118,255253,308229
1630070127148,54117,255206,308227
1630070127158,54124,255218,308233
1630070127168,54124,255252,308228
1630070127178,54144,255238,308234
1630070127188,54143,255278,308245
1630070127198,54159,255246,308211
1630070127208,54179,255306,308185
1630070127218,54193,255290,308220
1630070127228,54200,255339,308253
1630070127238,54214,255331,308215
1630070127248,54225,255346,308272
1630070127258,54244,255355,308223
1630070127268,54258,255383,308192
1630070127278,54272,255382,308246
1630070127288,54298,255382,308247
1630070127298,54309,255408,308236
1630070127308,54329,255406,308229
1630070127318,54357,255435,308267
1630070127328,54376,255470,308279
1630070127338,54401,255456,308216
1630070127348,54431,255446,308222
1630070127358,54437,255513,308250
1630070127368,54463,255533,308285
1630070127378,54486,255529,308271
1630070127388,54525,255582,308336
1630070127398,54546,255549,308332
1630070127408,54567,255601,308271
1630070127418,54606,255626,308302
1630070127428,54605,255608,308295
1630070127438,54621,255608,308299
1630070127448,54622,255559,308245
1630070127458,54611,255555,308238
1630070127468,54589,255442,308184
1630070127478,54562,255427,308182
1630070127488,54537,255406,308171
1630070127498,54498,255362,308151
1630070127508,54468,255332,308133
1630070127518,54431,255306,308132
1630070127528,54392,255267,308142
1630070127538,54375,255267,308106
1630070127548,54347,255253,308142
1630070127558,54313,255202,308100
1630070127568,54291,255219,308111
1630070127578,54279,255188,308093
1630070127588,54246,255201,308137
1630070127598,54220,255180,308097
1630070127608,54198,255144,308112
1630070127618,54174,255129,308087
1630070127628,54152,255178,308064
1630070127638,54143,255122,308086
1630070127648,54132,255196,308072
1630070127658,54124,255137,308082
1630070127668,54127,255109,308050
1630070127678,54121,255174,308072
1630070127688,54120,255188,308102
1630070127698,54120,255150,308082
1630070127708,54127,255193,308078
1630070127718,54133,255149,308027
1630070127728,54121,255130,308072
1630070127738,54129,255153,308052
1630070127748,54129,255198,308079
1630070127758,54114,255187,308043
1630070127768,54123,255153,308052
1630070127778,54117,255140,308078
1630070127788,54132,255145,308076
1630070127798,54130,255180,308086
1630070127808,54137,255172,308062
1630070127818,54139,255224,308087
1630070127828,54173,255224,308073
1630070127838,54172,255206,308080
1630070127848,54185,255247,308056
1630070127858,54200,255206,308122
1630070127868,54208,255242,308113
1630070127878,54238,255244,308097
1630070127888,54249,255250,308119
1630070127898,54254,255309,308091
1630070127908,54268,255316,308176
1630070127918,54292,255312,308122
1630070127928,54304,255334,308140
1630070127938,54326,255334,308079
1630070127948,54343,255393,308105
1630070127958,54364,255415,308121
1630070127968,54379,255381,308144
1630070127978,54396,255419,308142
1630070127988,54427,255410,308147
1630070127998,54444,255446,308107
1630070128008,54469,255434,308166
1630070128018,54478,255473,308198
1630070128028,54512,255513,308192
1630070128038,54538,255536,308173
1630070128048,54544,255537,308206
1630070128058,54574,255561,308192
1630070128068,54602,255541,308213
1630070128078,54613,255578,308196
1630070128088,54618,255539,308228
1630070128098,54624,255542,308159
1630070128108,54606,255503,308111
1630070128118,54586,255442,308113
1630070128128,54552,255395,308104
1630070128138,54518,255357,308060
1630070128148,54473,255302,308022
1630070128158,54451,255275,308063
1630070128168,54413,255280,308002
1630070128178,54383,255213,308000
1630070128188,54361,255180,307988
1630070128198,54329,255220,307995
1630070128208,54303,255224,307988
1630070128218,54276,255177,308008
1630070128228,54255,255199,307969
1630070128238,54226,255180,307979
1630070128248,54211,255140,307945
1630070128258,54179,255152,307978
1630070128268,54164,255139,307947
1630070128278,54150,255156,307931
1630070128288,54138,255117,307972
1630070128298,54129,255164,307978
1630070128308,54130,255147,308009
1630070128318,54138,255155,307965
1630070128328,54129,255169,307992
1630070128338,54124,255144,307945
1630070128348,54125,255145,307944
1630070128358,54133,255193,307973
1630070128368,54112,255206,307952
1630070128378,54123,255140,307982
1630070128388,54117,255144,307992
1630070128398,54107,255139,307991
1630070128408,54098,255134,307957
1630070128418,54090,255147,307954
1630070128428,54096,255152,307945
1630070128438,54097,255143,307952
1630070128448,54108,255154,307963
1630070128458,54111,255158,307973
1630070128468,54114,255150,307938
1630070128478,54125,255211,307942
1630070128488,54133,255173,307948
1630070128498,54147,255257,307974
1630070128508,54152,255195,307988
1630070128518,54169,255219,307964
1630070128528,54166,255236,307982
1630070128538,54188,255248,308011
1630070128548,54201,255262,307988
1630070128558,54208,255269,308002
1630070128568,54232,255271,308026
1630070128578,54243,255304,307980
1630070128588,54262,255307,307993
1630070128598,54266,255342,308031
1630070128608,54290,255354,308003
1630070128618,54310,255351,308026
1630070128628,54327,255371,308042
1630070128638,54345,255367,308059
1630070128648,54375,255430,308086
1630070128658,54389,255427,308097
1630070128668,54403,255479,308087
1630070128678,54424,255460,308132
1630070128688,54465,255485,308119
1630070128698,54462,255511,308107
1630070128708,54489,255494,308118
1630070128718,54477,255507,308099
1630070128728,54470,255452,308039
1630070128738,54456,255399,308000
1630070128748,54434,255367,307943
1630070128758,54394,255365,307984
1630070128768,54346,255294,307959
1630070128778,54317,255230,307969
1630070128788,54278,255253,307881
1630070128798,54248,255166,307908
1630070128808,54210,255156,307876
1630070128818,54184,255185,307923
1630070128828,54141,255109,307855
1630070128838,54122,255117,307879
1630070128848,54086,255100,307902
1630070128858,54084,255068,307828
1630070128868,54035,255098,307868
1630070128878,54013,255060,307882
1630070128888,53982,255008,307858
1630070128898,53967,255054,307878
1630070128908,53944,255033,307827
1630070128918,53939,255035,307881
1630070128928,53932,255068,307868
1630070128938,53929,255049,307892
1630070128948,53929,255109,307883
1630070128958,53934,255072,307889
1630070128968,53926,255087,307887
1630070128978,53922,255078,307895
1630070128988,53930,255063,307893
1630070128998,53926,255065,307909
1630070129008,53925,255049,307894
1630070129018,53915,255057,307889
1630070129028,53902,255045,307862
1630070129038,53900,255061,307850
1630070129048,53912,255061,307915
1630070129058,53912,255088,307889
1630070129068,53917,255067,307948
1630070129078,53915,255074,307898
1630070129088,53915,255060,307961
1630070129098,53926,255093,307897
1630070129108,53936,255089,307965
1630070129118,53956,255168,307958
1630070129128,53952,255133,307945
1630070129138,53969,255189,307945
1630070129148,53991,255134,307954
1630070129158,54009,255147,307945
1630070129168,54013,255214,307997
1630070129178,54016,255214,307977
1630070129188,54052,255198,307953
1630070129198,54053,255205,307979
1630070129208,54072,255262,308007
1630070129218,54083,255281,307996
1630070129228,54108,255272,307986
1630070129238,54125,255291,308032
1630070129248,54151,255280,308059
1630070129258,54162,255313,308040
1630070129268,54182,255314,308044
1630070129278,54207,255348,308088
1630070129288,54227,255364,308105
1630070129298,54249,255402,308105
1630070129308,54271,255410,308107
1630070129318,54280,255412,308055
1630070129328,54322,255432,308065
1630070129338,54342,255460,308094
1630070129348,54357,255451,308100
1630070129358,54368,255491,308100
1630070129368,54357,255394,308008
1630070129378,54354,255389,308035
1630070129388,54317,255342,307965
1630070129398,54279,255283,307948
1630070129408,54242,255213,307924
1630070129418,54190,255195,307894
1630070129428,54152,255163,307887
1630070129438,54101,255110,307875
1630070129448,54061,255140,307870
1630070129458,54028,255060,307872
1630070129468,53984,255033,307849
1630070129478,53947,255017,307808
1630070129488,53915,254975,307809
1630070129498,53887,254980,307799
1630070129508,53855,254999,307786
1630070129518,53829,254978,307848
1630070129528,53783,254877,307803
1630070129538,53748,254892,307787
1630070129548,53713,254861,307790
1630070129558,53688,254859,307779
1630070129568,53674,254882,307741
1630070129578,53651,254832,307794
1630070129588,53642,254850,307783
1630070129598,53644,254847,307776
1630070129608,53648,254890,307789
1630070129618,53640,254872,307821
1630070129628,53639,254820,307805
1630070129638,53631,254866,307766
1630070129648,53633,254873,307789
1630070129658,53618,254856,307785
1630070129668,53631,254878,307797
1630070129678,53613,254879,307810
1630070129688,53608,254850,307839
1630070129698,53626,254843,307816
1630070129708,53623,254854,307822
1630070129718,53626,254882,307816
1630070129728,53636,254890,307803
1630070129738,53645,254892,307812
1630070129748,53652,254937,307857
1630070129758,53664,254910,307819
1630070129768,53679,254926,307869
1630070129778,53689,254944,307866
1630070129788,53707,254977,307881
1630070129798,53718,254978,307891
1630070129808,53731,254998,307885
1630070129818,53740,254996,307926
1630070129828,53763,255019,307880
1630070129838,53782,255062,307892
1630070129848,53801,255031,307937
1630070129858,53815,255012,307891
1630070129868,53840,255089,307900
1630070129878,53856,255112,307950
1630070129888,53869,255104,307965
1630070129898,53900,255106,307950
1630070129908,53916,255146,307974
1630070129918,53932,255148,307987
1630070129928,53959,255171,308015
1630070129938,53988,255165,308026
1630070129948,54010,255217,308037
1630070129958,54031,255230,308035
1630070129968,54057,255197,308030
1630070129978,54066,255273,308052
1630070129988,54110,255267,308031
1630070129998,54115,255282,308054
1630070130008,54136,255308,308067
1630070130018,54156,255330,308076
1630070130028,54156,255277,308020
1630070130038,54145,255272,307970
1630070130048,54115,255180,307979
1630070130058,54103,255157,307931
1630070130068,54061,255138,307892
1630070130078,54026,255085,307894
1630070130088,53988,255037,307868
1630070130098,53967,254990,307881
1630070130108,53914,254955,307873
1630070130118,53877,254986,307836
1630070130128,53840,254945,307803
1630070130138,53796,254917,307870
1630070130148,53781,254912,307812
1630070130158,53747,254867,307814
1630070130168,53736,254871,307814
1630070130178,53698,254824,307792
1630070130188,53672,254889,307798
1630070130198,53644,254819,307798
1630070130208,53619,254836,307767
1630070130218,53603,254816,307794
1630070130228,53586,254781,307771
1630070130238,53579,254807,307769
1630070130248,53571,254822,307811
1630070130258,53579,254830,307791
1630070130268,53574,254849,307813
1630070130278,53573,254865,307817
1630070130288,53570,254845,307754
1630070130298,53550,254842,307806
1630070130308,53558,254859,307807
1630070130318,53565,254860,307750
1630070130328,53557,254881,307752
1630070130338,53551,254825,307741
1630070130348,53556,254880,307750
1630070130358,53555,254860,307779
1630070130368,53564,254874,307772
1630070130378,53570,254875,307823
1630070130388,53582,254903,307825
1630070130398,53593,254908,307817
1630070130408,53598,254948,307809
1630070130418,53618,254912,307854
1630070130428,53639,254975,307805
1630070130438,53656,254964,307842
1630070130448,53674,255008,307843
1630070130458,53680,254982,307873
1630070130468,53717,255026,307855
1630070130478,53725,255027,307872
1630070130488,53747,255050,307870
1630070130498,53765,255061,307847
1630070130508,53778,255078,307883
1630070130518,53796,255074,307852
1630070130528,53818,255101,307879
1630070130538,53843,255127,307859
1630070130548,53868,255118,307867
1630070130558,53880,255111,307842
1630070130568,53909,255175,307934
1630070130578,53917,255182,307886
1630070130588,53954,255178,307885
1630070130598,53977,255246,307861
1630070130608,53997,255234,307896
1630070130618,54037,255245,307893
1630070130628,54064,255264,307928
1630070130638,54094,255265,307948
1630070130648,54117,255293,307963
1630070130658,54142,255365,307930
1630070130668,54178,255360,307997
1630070130678,54208,255364,307986
1630070130688,54235,255425,308037
1630070130698,54272,255409,308039
1630070130708,54293,255456,308054
1630070130718,54304,255480,308030
1630070130728,54301,255372,307984
1630070130738,54294,255337,307981
1630070130748,54285,255299,307927
1630070130758,54264,255247,307929
1630070130768,54223,255199,307959
1630070130778,54193,255172,307900
1630070130788,54169,255182,307907
1630070130798,54139,255148,307883
1630070130808,54114,255130,307898
1630070130818,54094,255142,307889
1630070130828,54068,255118,307885
1630070130838,54055,255095,307898
1630070130848,54037,255103,307876
1630070130858,54017,255075,307881
1630070130868,53996,255038,307869
1630070130878,53988,255051,307882
1630070130888,53977,255067,307818
1630070130898,53955,255044,307848
1630070130908,53946,254997,307837
1630070130918,53948,255013,307852
1630070130928,53940,255084,307863
1630070130938,53946,255061,307895
1630070130948,53948,255054,307903
1630070130958,53951,255087,307898
1630070130968,53943,255079,307889
1630070130978,53966,255074,307917
1630070130988,53956,255085,307866
1630070130998,53963,255108,307856
1630070131008,53973,255076,307898
1630070131018,53973,255074,307846
1630070131028,53977,255090,307869
1630070131038,53977,255122,307862
1630070131048,53981,255118,307910
1630070131058,53994,255100,307899
1630070131068,54001,255111,307884
1630070131078,54013,255114,307903
1630070131088,54030,255144,307881
1630070131098,54041,255199,307913
1630070131108,54047,255180,307926
1630070131118,54068,255159,307943
1630070131128,54091,255166,307959
1630070131138,54084,255193,307923
1630070131148,54119,255249,307956
1630070131158,54124,255224,307960
1630070131168,54144,255265,307944
1630070131178,54162,255266,307982
1630070131188,54186,255305,307919
1630070131198,54196,255290,307994
1630070131208,54217,255346,307988
1630070131218,54240,255345,308016
1630070131228,54261,255311,307952
1630070131238,54285,255375,307978
1630070131248,54305,255376,308001
1630070131258,54328,255412,308016
1630070131268,54358,255440,307999
1630070131278,54369,255440,308028
1630070131288,54394,255492,308053
1630070131298,54419,255465,308022
1630070131308,54447,255451,308011
1630070131318,54465,255527,308041
1630070131328,54494,255528,308054
1630070131338,54514,255562,308044
1630070131348,54550,255567,308098
1630070131358,54574,255630,308102
1630070131368,54596,255607,308106
1630070131378,54608,255604,308061
1630070131388,54616,255615,308062
1630070131398,54614,255576,308016
1630070131408,54605,255544,308004
1630070131418,54595,255468,307990
1630070131428,54586,255442,307952
1630070131438,54541,255400,307952
1630070131448,54525,255397,307884
1630070131458,54490,255372,307944
1630070131468,54475,255394,307891
1630070131478,54453,255339,307967
1630070131488,54437,255339,307923
1630070131498,54428,255359,307941
1630070131508,54403,255344,307959
1630070131518,54384,255308,307929
1630070131528,54368,255314,307935
1630070131538,54354,255261,307937
1630070131548,54329,255293,307921
1630070131558,54328,255302,307929
1630070131568,54321,255305,307956
1630070131578,54311,255290,307924
1630070131588,54293,255279,307923
1630070131598,54294,255276,307959
1630070131608,54314,255328,307931
1630070131618,54310,255293,307975
1630070131628,54315,255335,307951
1630070131638,54313,255339,307929
1630070131648,54309,255312,307956
1630070131658,54308,255321,307937
1630070131668,54311,255299,307957
1630070131678,54322,255346,307928
1630070131688,54322,255315,307950
1630070131698,54317,255372,307940
1630070131708,54317,255331,307949
1630070131718,54314,255364,307952
1630070131728,54344,255349,307972
1630070131738,54344,255372,307915
1630070131748,54348,255347,307955
1630070131758,54356,255366,307986
1630070131768,54367,255386,307962
1630070131778,54393,255400,307988
1630070131788,54398,255461,307983
1630070131798,54400,255437,307992
1630070131808,54433,255429,307960
1630070131818,54433,255464,308007
1630070131828,54454,255499,308003
1630070131838,54472,255519,308021
1630070131848,54483,255511,307993
1630070131858,54511,255551,308029
1630070131868,54526,255568,308028
1630070131878,54544,255579,308023
1630070131888,54566,255560,308094
1630070131898,54574,255626,308072
1630070131908,54603,255633,308059
1630070131918,54627,255618,308064
1630070131928,54654,255643,308063
1630070131938,54658,255664,308102
1630070131948,54697,255677,308089
1630070131958,54707,255709,308064
1630070131968,54730,255717,308093
1630070131978,54752,255754,308092
1630070131988,54776,255730,308073
1630070131998,54807,255747,308159
1630070132008,54812,255810,308145
1630070132018,54849,255822,308152
1630070132028,54867,255834,308159
1630070132038,54897,255858,308165
1630070132048,54923,255874,308147
1630070132058,54924,255905,308133
1630070132068,54934,255831,308111
1630070132078,54915,255835,308083
1630070132088,54910,255763,308054
1630070132098,54879,255678,308051
1630070132108,54848,255616,308025
1630070132118,54795,255633,307990
1630070132128,54790,255589,307980
1630070132138,54746,255529,307974
1630070132148,54720,255529,307997
1630070132158,54672,255545,307944
1630070132168,54638,255478,307947
1630070132178,54602,255431,307921
1630070132188,54568,255442,307912
1630070132198,54540,255450,307898
1630070132208,54508,255380,307922
1630070132218,54474,255388,307911
1630070132228,54442,255397,307849
1630070132238,54413,255311,307844
1630070132248,54390,255342,307930
1630070132258,54359,255343,307859
1630070132268,54341,255331,307897
1630070132278,54306,255333,307851
1630070132288,54292,255308,307888
1630070132298,54281,255347,307876
1630070132308,54278,255369,307860
1630070132318,54272,255344,307832
1630070132328,54266,255308,307873
1630070132338,54264,255322,307847
1630070132348,54255,255337,307871
1630070132358,54246,255315,307831
1630070132368,54239,255329,307855
1630070132378,54242,255325,307829
1630070132388,54238,255339,307902
1630070132398,54225,255308,307829
1630070132408,54241,255334,307861
1630070132418,54222,255325,307847
1630070132428,54218,255297,307827
1630070132438,54231,255340,307854
1630070132448,54254,255316,307857
1630070132458,54242,255370,307840
1630070132468,54254,255344,307844
1630070132478,54265,255394,307895
1630070132488,54271,255400,307875
1630070132498,54283,255393,307915
1630070132508,54284,255420,307868
1630070132518,54301,255406,307894
1630070132528,54319,255412,307901
1630070132538,54332,255419,307893
1630070132548,54359,255466,307920
1630070132558,54369,255496,307905
1630070132568,54390,255500,307941
1630070132578,54414,255533,307965
1630070132588,54423,255551,307952
1630070132598,54435,255542,307962
1630070132608,54458,255551,307956
1630070132618,54465,255576,307939
1630070132628,54488,255633,307946
1630070132638,54509,255608,308012
1630070132648,54525,255605,307968
1630070132658,54548,255648,308015
1630070132668,54567,255621,307993
1630070132678,54596,255660,308025
1630070132688,54615,255686,308057
1630070132698,54633,255693,308013
1630070132708,54669,255693,308035
1630070132718,54678,255747,308026
1630070132728,54706,255773,308090
1630070132738,54728,255796,308089
1630070132748,54753,255766,308058
1630070132758,54757,255782,308083
1630070132768,54760,255725,308000
1630070132778,54751,255692,308007
1630070132788,54713,255642,307972
1630070132798,54684,255617,307918
1630070132808,54645,255570,307901
1630070132818,54599,255477,307898
1630070132828,54556,255494,307898
1630070132838,54512,255452,307873
1630070132848,54472,255452,307843
1630070132858,54424,255422,307829
1630070132868,54401,255407,307839
1630070132878,54359,255316,307818
1630070132888,54323,255349,307804
1630070132898,54278,255322,307799
1630070132908,54248,255302,307787
1630070132918,54214,255281,307770
1630070132928,54160,255223,307781
1630070132938,54134,255227,307808
1630070132948,54109,255247,307718
1630070132958,54083,255187,307752
1630070132968,54053,255202,307764
1630070132978,54034,255216,307744
1630070132988,54024,255230,307739
1630070132998,54011,255213,307737
1630070133008,53990,255208,307752
1630070133018,54001,255198,307724
1630070133028,53990,255196,307730
1630070133038,53972,255190,307726
1630070133048,53974,255187,307733
1630070133058,53968,255208,307687
1630070133068,53959,255205,307741
1630070133078,53952,255195,307725
1630070133088,53935,255190,307730
1630070133098,53952,255218,307721
1630070133108,53945,255196,307726
1630070133118,53938,255175,307733
1630070133128,53943,255179,307721
1630070133138,53942,255169,307748
1630070133148,53953,255231,307758
1630070133158,53963,255239,307723
1630070133168,53963,255224,307751
1630070133178,53977,255282,307743
1630070133188,53985,255254,307768
1630070133198,53997,255294,307748
1630070133208,54000,255303,307756
1630070133218,54022,255304,307767
1630070133228,54033,255304,307761
1630070133238,54041,255305,307777
1630070133248,54069,255358,307794
1630070133258,54087,255361,307773
1630070133268,54101,255367,307782
1630070133278,54127,255364,307787
1630070133288,54148,255438,307799
1630070133298,54164,255458,307835
1630070133308,54188,255426,307825
1630070133318,54201,255450,307801
1630070133328,54225,255455,307821
1630070133338,54246,255496,307839
1630070133348,54266,255514,307861
1630070133358,54295,255549,307895
1630070133368,54317,255538,307896
1630070133378,54343,255564,307908
1630070133388,54360,255601,307920
1630070133398,54402,255615,307904
1630070133408,54411,255617,307911
1630070133418,54422,255647,307930
1630070133428,54454,255648,307983
1630070133438,54485,255676,307973
1630070133448,54517,255704,307940
1630070133458,54537,255752,307981
1630070133468,54550,255735,307979
1630070133478,54579,255754,307992
1630070133488,54589,255770,307951
1630070133498,54570,255678,307902
1630070133508,54558,255633,307879
1630070133518,54535,255575,307823
1630070133528,54502,255525,307784
1630070133538,54461,255480,307838
1630070133548,54421,255439,307793
1630070133558,54375,255440,307735
1630070133568,54337,255379,307731
1630070133578,54287,255348,307726
1630070133588,54271,255343,307704
1630070133598,54234,255285,307709
1630070133608,54202,255319,307718
1630070133618,54173,255283,307686
1630070133628,54143,255297,307700
1630070133638,54116,255273,307675
1630070133648,54087,255262,307654
1630070133658,54068,255261,307718
1630070133668,54046,255232,307641
1630070133678,54032,255226,307636
1630070133688,54015,255191,307690
1630070133698,53997,255230,307651
1630070133708,54004,255204,307668
1630070133718,53993,255242,307715
1630070133728,54002,255240,307718
1630070133738,53999,255212,307690
1630070133748,54009,255259,307662
1630070133758,54010,255269,307646
1630070133768,53986,255247,307672
1630070133778,54007,255229,307629
1630070133788,53994,255257,307641
1630070133798,53994,255250,307669
1630070133808,53991,255206,307675
1630070133818,53995,255268,307673
1630070133828,53988,255231,307658
1630070133838,53995,255244,307667
1630070133848,54000,255273,307681
1630070133858,53997,255281,307695
1630070133868,53998,255275,307669
1630070133878,54015,255290,307659
1630070133888,54028,255276,307710
1630070133898,54020,255304,307672
1630070133908,54031,255326,307640
1630070133918,54045,255289,307663
1630070133928,54054,255342,307655
1630070133938,54070,255370,307713
1630070133948,54094,255383,307735
1630070133958,54104,255387,307706
1630070133968,54120,255383,307671
1630070133978,54132,255409,307707
1630070133988,54160,255418,307711
1630070133998,54182,255444,307725
1630070134008,54202,255418,307725
1630070134018,54234,255488,307769
1630070134028,54242,255505,307741
1630070134038,54272,255505,307770
1630070134048,54300,255551,307776
1630070134058,54334,255522,307759
1630070134068,54347,255580,307797
1630070134078,54365,255602,307810
1630070134088,54399,255604,307781
1630070134098,54420,255633,307860
1630070134108,54444,255632,307821
1630070134118,54477,255668,307849
1630070134128,54495,255684,307834
1630070134138,54528,255718,307849
1630070134148,54562,255782,307863
1630070134158,54588,255735,307869
1630070134168,54597,255758,307881
1630070134178,54622,255746,307853
1630070134188,54621,255757,307848
1630070134198,54619,255712,307825
1630070134208,54601,255654,307770
1630070134218,54574,255557,307723
1630070134228,54547,255546,307714
1630070134238,54509,255492,307685
1630070134248,54464,255499,307731
1630070134258,54421,255400,307646
1630070134268,54389,255377,307638
1630070134278,54358,255413,307678
1630070134288,54325,255367,307598
1630070134298,54285,255346,307605
1630070134308,54261,255346,307587
1630070134318,54239,255337,307614
1630070134328,54221,255366,307605
1630070134338,54212,255341,307545
1630070134348,54188,255309,307574
1630070134358,54175,255321,307571
1630070134368,54152,255293,307552
1630070134378,54138,255299,307592
1630070134388,54130,255298,307577
1630070134398,54144,255289,307545
1630070134408,54134,255305,307603
1630070134418,54146,255333,307609
1630070134428,54137,255349,307599
1630070134438,54151,255347,307600
1630070134448,54159,255362,307607
1630070134458,54159,255352,307606
1630070134468,54161,255385,307626
1630070134478,54160,255376,307578
1630070134488,54170,255345,307606
1630070134498,54173,255361,307610
1630070134508,54165,255377,307617
1630070134518,54176,255380,307620
1630070134528,54167,255437,307620
1630070134538,54200,255414,307618
1630070134548,54200,255370,307649
1630070134558,54207,255409,307681
1630070134568,54225,255428,307686
1630070134578,54264,255474,307698
1630070134588,54264,255466,307711
1630070134598,54288,255485,307731
1630070134608,54294,255506,307720
1630070134618,54310,255508,307741
1630070134628,54330,255531,307753
1630070134638,54346,255561,307751
1630070134648,54374,255545,307792
1630070134658,54404,255616,307796
1630070134668,54427,255670,307825
1630070134678,54449,255627,307821
1630070134688,54468,255697,307829
1630070134698,54490,255680,307834
1630070134708,54525,255711,307814
1630070134718,54553,255685,307863
1630070134728,54559,255759,307853
1630070134738,54596,255760,307836
1630070134748,54613,255753,307873
1630070134758,54622,255777,307864
1630070134768,54638,255790,307867
1630070134778,54664,255826,307835
1630070134788,54683,255839,307844
1630070134798,54708,255824,307860
1630070134808,54737,255859,307807
1630070134818,54751,255868,307815
1630070134828,54778,255904,307835
1630070134838,54797,255919,307846
1630070134848,54835,255924,307812
1630070134858,54847,255902,307855
1630070134868,54846,255925,307813
1630070134878,54849,255874,307785
1630070134888,54837,255865,307695
1630070134898,54824,255765,307732
1630070134908,54797,255731,307680
1630070134918,54775,255685,307715
1630070134928,54744,255642,307663
1630070134938,54702,255620,307643
1630070134948,54690,255578,307672
1630070134958,54653,255562,307666
1630070134968,54633,255564,307658
1630070134978,54596,255512,307687
1630070134988,54588,255524,307670
1630070134998,54581,255527,307697
1630070135008,54561,255506,307735
1630070135018,54551,255512,307761
1630070135028,54558,255545,307821
1630070135038,54550,255495,307838
1630070135048,54539,255534,307922
1630070135058,54539,255498,307915
1630070135068,54538,255516,307941
1630070135078,54527,255527,307967
1630070135088,54529,255521,308025
1630070135098,54529,255537,308054
1630070135108,54537,255569,308067
1630070135118,54547,255586,308089
1630070135128,54545,255555,308058
1630070135138,54546,255585,308068
1630070135148,54550,255576,308062
1630070135158,54556,255580,308057
1630070135168,54549,255602,308098
1630070135178,54549,255586,308082
1630070135188,54530,255556,308077
1630070135198,54540,255565,308087
1630070135208,54507,255566,308093
1630070135218,54515,255568,308080
1630070135228,54509,255604,308102
1630070135238,54526,255608,308082
1630070135248,54523,255586,308091
1630070135258,54533,255598,308045
1630070135268,54534,255580,308094
1630070135278,54535,255629,308096
1630070135288,54558,255632,308131
1630070135298,54571,255659,308111
1630070135308,54576,255670,308114
1630070135318,54593,255664,308131
1630070135328,54593,255690,308152
1630070135338,54621,255713,308165
1630070135348,54649,255712,308157
1630070135358,54663,255730,308186
1630070135368,54674,255766,308171
1630070135378,54700,255774,308211
1630070135388,54727,255797,308221
1630070135398,54756,255811,308238
1630070135408,54785,255858,308277
1630070135418,54826,255868,308310
1630070135428,54845,255908,308362
1630070135438,54887,255973,308414
1630070135448,54923,256020,308414
1630070135458,54952,256015,308466
1630070135468,54977,256041,308487
1630070135478,55005,256068,308496
1630070135488,55027,256082,308505
1630070135498,55070,256116,308551
1630070135508,55092,256078,308543
1630070135518,55119,256144,308603
1630070135528,55146,256166,308578
1630070135538,55146,256122,308572
1630070135548,55153,256122,308564
1630070135558,55152,256085,308549
1630070135568,55150,256041,308528
1630070135578,55127,256033,308519
1630070135588,55109,255983,308594
1630070135598,55095,255948,308579
1630070135608,55085,255955,308635
1630070135618,55071,255926,308684
1630070135628,55050,255918,308690
1630070135638,55045,255923,308763
1630070135648,55049,255934,308820
1630070135658,55046,255973,308886
1630070135668,55041,255969,308926
1630070135678,55058,255989,309000
1630070135688,55053,255973,309075
1630070135698,55044,256000,309098
1630070135708,55012,255986,309119
1630070135718,55024,255982,309165
1630070135728,55040,255998,309262
1630070135738,55051,256004,309342
1630070135748,55074,256041,309388
1630070135758,55101,256078,309459
1630070135768,55123,256140,309543
1630070135778,55140,256168,309576
1630070135788,55149,256142,309610
1630070135798,55155,256180,309642
1630070135808,55168,256184,309651
1630070135818,55161,256188,309673
1630070135828,55153,256197,309658
1630070135838,55157,256156,309656
1630070135848,55141,256190,309674
1630070135858,55115,256144,309691
1630070135868,55115,256187,309637
1630070135878,55100,256159,309682
1630070135888,55099,256153,309682
1630070135898,55096,256148,309699
1630070135908,55088,256148,309693
1630070135918,55092,256165,309716
1630070135928,55092,256175,309681
1630070135938,55102,256159,309714
1630070135948,55106,256205,309694
1630070135958,55122,256162,309741
1630070135968,55139,256198,309700
1630070135978,55135,256141,309742
1630070135988,55147,256162,309720
1630070135998,55162,256197,309700
1630070136008,55162,256169,309744
1630070136018,55167,256188,309703
1630070136028,55174,256216,309691
1630070136038,55184,256216,309720
1630070136048,55210,256241,309732
1630070136058,55225,256239,309743
1630070136068,55248,256243,309750
1630070136078,55272,256264,309741
1630070136088,55294,256285,309733
1630070136098,55312,256312,309796
1630070136108,55336,256299,309830
1630070136118,55360,256338,309809
1630070136128,55381,256345,309832
1630070136138,55393,256348,309851
1630070136148,55410,256387,309841
1630070136158,55436,256375,309853
1630070136168,55460,256385,309890
1630070136178,55475,256421,309922
1630070136188,55506,256455,309903
1630070136198,55502,256470,309874
1630070136208,55499,256387,309877
1630070136218,55485,256320,309806
1630070136228,55475,256299,309775
1630070136238,55441,256244,309762
1630070136248,55394,256189,309710
1630070136258,55340,256164,309720
1630070136268,55294,256086,309669
1630070136278,55254,256063,309672
1630070136288,55220,256059,309672
1630070136298,55179,256016,309671
1630070136308,55151,256031,309678
1630070136318,55105,256002,309671
1630070136328,55080,255998,309618
1630070136338,55042,255974,309645
1630070136348,55001,255970,309619
1630070136358,54969,255902,309613
1630070136368,54941,255909,309572
1630070136378,54898,255878,309582
1630070136388,54874,255869,309573
1630070136398,54850,255843,309558
1630070136408,54819,255841,309504
1630070136418,54801,255869,309519
1630070136428,54786,255837,309522
1630070136438,54780,255826,309437
1630070136448,54760,255850,309447
1630070136458,54735,255764,309444
1630070136468,54735,255798,309400
1630070136478,54732,255808,309415
1630070136488,54696,255783,309400
1630070136498,54683,255770,309360
1630070136508,54672,255787,309342
1630070136518,54662,255736,309339
1630070136528,54648,255733,309319
1630070136538,54634,255747,309315
1630070136548,54620,255701,309352
1630070136558,54620,255720,309324
1630070136568,54614,255751,309308
1630070136578,54608,255706,309299
1630070136588,54605,255724,309300
1630070136598,54598,255688,309244
1630070136608,54591,255732,309276
1630070136618,54590,255753,309200
1630070136628,54595,255721,309212
1630070136638,54605,255742,309231
1630070136648,54601,255743,309198
1630070136658,54600,255754,309167
1630070136668,54607,255773,309188
1630070136678,54616,255740,309206
1630070136688,54622,255782,309149
1630070136698,54632,255752,309155
1630070136708,54646,255782,309183
1630070136718,54660,255761,309144
1630070136728,54680,255801,309142
1630070136738,54690,255821,309159
1630070136748,54709,255802,309163
1630070136758,54723,255872,309195
1630070136768,54744,255873,309179
1630070136778,54754,255848,309195
1630070136788,54781,255894,309178
1630070136798,54799,255922,309176
1630070136808,54820,255899,309183
1630070136818,54851,255938,309231
1630070136828,54847,255917,309185
1630070136838,54840,255895,309170
1630070136848,54837,255865,309140
1630070136858,54815,255831,309113
1630070136868,54785,255784,309065
1630070136878,54750,255745,309041
1630070136888,54703,255678,308999
1630070136898,54654,255660,309013
1630070136908,54606,255607,308965
1630070136918,54566,255575,308973
1630070136928,54519,255563,308930
1630070136938,54466,255501,308945
1630070136948,54444,255520,308919
1630070136958,54401,255462,308898
1630070136968,54368,255470,308868
1630070136978,54331,255414,308838
1630070136988,54305,255397,308797
1630070136998,54272,255361,308801
1630070137008,54243,255374,308756
1630070137018,54197,255332,308792
1630070137028,54174,255334,308771
1630070137038,54157,255362,308735
1630070137048,54136,255341,308742
1630070137058,54122,255323,308745
1630070137068,54125,255332,308735
1630070137078,54118,255339,308705
1630070137088,54098,255324,308678
1630070137098,54076,255349,308657
1630070137108,54083,255291,308643
1630070137118,54076,255304,308667
1630070137128,54057,255288,308593
1630070137138,54055,255295,308625
1630070137148,54063,255301,308614
1630070137158,54041,255237,308612
1630070137168,54041,255272,308643
1630070137178,54033,255258,308595
1630070137188,54038,255247,308596
1630070137198,54045,255295,308589
1630070137208,54047,255290,308604
1630070137218,54058,255263,308640
1630070137228,54083,255282,308641
1630070137238,54097,255314,308630
1630070137248,54112,255335,308654
1630070137258,54121,255360,308680
1630070137268,54153,255362,308699
1630070137278,54185,255377,308700
1630070137288,54216,255404,308783
1630070137298,54238,255418,308814
1630070137308,54288,255446,308842
1630070137318,54328,255482,308891
1630070137328,54346,255528,308898
1630070137338,54382,255520,308994
1630070137348,54428,255544,309001
1630070137358,54475,255613,309040
1630070137368,54519,255618,309100
1630070137378,54551,255678,309146
1630070137388,54575,255676,309181
1630070137398,54629,255702,309171
1630070137408,54657,255737,309236
1630070137418,54685,255805,309233
1630070137428,54711,255791,309264
1630070137438,54755,255807,309330
1630070137448,54767,255828,309326
1630070137458,54808,255865,309359
1630070137468,54826,255858,309377
1630070137478,54854,255873,309378
1630070137488,54846,255848,309314
1630070137498,54825,255753,309300
1630070137508,54796,255738,309292
1630070137518,54762,255705,309235
1630070137528,54720,255662,309191
1630070137538,54671,255582,309192
1630070137548,54628,255522,309158
1630070137558,54580,255541,309143
1630070137568,54532,255492,309122
1630070137578,54489,255447,309078
1630070137588,54459,255429,309079
1630070137598,54408,255433,309094
1630070137608,54373,255421,309080
1630070137618,54334,255352,309050
1630070137628,54293,255353,309016
1630070137638,54266,255320,309018
1630070137648,54236,255281,308989
1630070137658,54199,255311,309001
1630070137668,54167,255266,309003
1630070137678,54142,255262,308948
1630070137688,54116,255237,308990
1630070137698,54100,255239,308997
1630070137708,54093,255236,309003
1630070137718,54098,255255,309040
1630070137728,54107,255221,309011
1630070137738,54110,255282,309004
1630070137748,54107,255246,309029
1630070137758,54104,255264,309027
1630070137768,54105,255220,309018
1630070137778,54102,255282,308984
1630070137788,54100,255228,309016
1630070137798,54098,255269,309020
1630070137808,54111,255247,309058
1630070137818,54101,255259,309050
1630070137828,54101,255266,308992
1630070137838,54112,255266,309001
1630070137848,54115,255278,309052
1630070137858,54121,255227,309018
1630070137868,54128,255297,309060
1630070137878,54139,255274,309029
1630070137888,54145,255320,309066
1630070137898,54170,255320,309032
1630070137908,54188,255321,309074
1630070137918,54205,255340,309067
1630070137928,54217,255316,309064
1630070137938,54234,255344,309032
1630070137948,54270,255382,309098
1630070137958,54285,255383,309139
1630070137968,54295,255403,309092
1630070137978,54319,255411,309103
1630070137988,54347,255438,309121
1630070137998,54377,255414,309098
1630070138008,54393,255455,309124
1630070138018,54415,255459,309135
1630070138028,54443,255494,309145
1630070138038,54467,255533,309167
1630070138048,54498,255529,309168
1630070138058,54517,255558,309217
1630070138068,54546,255580,309189
1630070138078,54576,255557,309207
1630070138088,54591,255631,309213
1630070138098,54610,255643,309263
1630070138108,54644,255675,309267
1630070138118,54666,255671,309280
1630070138128,54702,255691,309295
1630070138138,54717,255690,309265
1630070138148,54732,255692,309230
1630070138158,54747,255677,309230
1630070138168,54734,255592,309194
1630070138178,54719,255581,309199
1630070138188,54697,255564,309190
1630070138198,54670,255510,309134
1630070138208,54635,255490,309154
1630070138218,54612,255489,309139
1630070138228,54580,255426,309099
1630070138238,54549,255436,309098
1630070138248,54511,255430,309108
1630070138258,54500,255348,309084
1630070138268,54458,255332,309075
1630070138278,54446,255339,309051
1630070138288,54414,255316,309029
1630070138298,54381,255257,309060
1630070138308,54353,255226,308995
1630070138318,54330,255252,309008
1630070138328,54296,255245,308971
1630070138338,54280,255214,308992
1630070138348,54255,255236,308999
1630070138358,54238,255209,308958
1630070138368,54241,255189,308969
1630070138378,54227,255199,309002
1630070138388,54235,255204,308959
1630070138398,54240,255251,308982
1630070138408,54251,255241,308967
1630070138418,54244,255199,308989
1630070138428,54265,255255,308936
1630070138438,54266,255242,308920
1630070138448,54271,255255,308996
1630070138458,54270,255237,308979
1630070138468,54275,255246,309004
1630070138478,54276,255253,309016
1630070138488,54290,255235,308972
1630070138498,54296,255253,308975
1630070138508,54302,255262,309002
1630070138518,54317,255304,309004
1630070138528,54321,255275,309007
1630070138538,54345,255286,308984
1630070138548,54356,255325,308985
1630070138558,54376,255325,309013
1630070138568,54388,255340,309024
1630070138578,54390,255361,308997
1630070138588,54417,255358,309030
1630070138598,54441,255373,309032
1630070138608,54449,255405,309022
1630070138618,54474,255428,309002
1630070138628,54485,255428,309015
1630070138638,54512,255431,309039
1630070138648,54530,255469,309056
1630070138658,54551,255500,309099
1630070138668,54579,255490,309074
1630070138678,54587,255533,309079
1630070138688,54625,255517,309084
1630070138698,54648,255577,309092
1630070138708,54675,255565,309078
1630070138718,54693,255548,309094
1630070138728,54716,255561,309082
1630070138738,54739,255597,309103
1630070138748,54751,255605,309139
1630070138758,54790,255644,309095
1630070138768,54822,255706,309123
1630070138778,54842,255636,309155
1630070138788,54858,255704,309149
1630070138798,54890,255710,309163
1630070138808,54916,255732,309190
1630070138818,54945,255755,309191
1630070138828,54974,255754,309212
1630070138838,55004,255781,309221
1630070138848,55028,255842,309212
1630070138858,55057,255880,309253
1630070138868,55098,255854,309259
1630070138878,55120,255885,309278
1630070138888,55133,255852,309190
1630070138898,55142,255822,309199
1630070138908,55141,255761,309159
1630070138918,55136,255750,309161
1630070138928,55105,255725,309135
1630070138938,55094,255710,309129
1630070138948,55069,255671,309147
1630070138958,55058,255634,309120
1630070138968,55034,255661,309111
1630070138978,55018,255633,309094
1630070138988,54993,255661,309106
1630070138998,54984,255589,309080
1630070139008,54967,255620,309087
1630070139018,54957,255614,309070
1630070139028,54939,255579,309079
1630070139038,54919,255574,309129
1630070139048,54894,255534,309088
1630070139058,54887,255535,309085
1630070139068,54876,255566,309078
1630070139078,54861,255553,309087
1630070139088,54842,255525,309085
1630070139098,54840,255560,309123
1630070139108,54844,255550,309118
1630070139118,54844,255565,309107
1630070139128,54849,255572,309110
1630070139138,54852,255561,309067
1630070139148,54854,255580,309112
1630070139158,54861,255522,309082
1630070139168,54853,255567,309101
1630070139178,54872,255599,309095
1630070139188,54874,255584,309104
1630070139198,54862,255565,309090
1630070139208,54874,255593,309108
1630070139218,54882,255554,309131
1630070139228,54896,255606,309133
1630070139238,54907,255604,309139
1630070139248,54901,255577,309125
1630070139258,54903,255626,309138
1630070139268,54916,255634,309136
1630070139278,54934,255639,309167
1630070139288,54939,255620,309107
1630070139298,54946,255643,309156
1630070139308,54961,255661,309159
1630070139318,54981,255733,309176
1630070139328,54994,255688,309169
1630070139338,55012,255668,309208
1630070139348,55035,255698,309200
1630070139358,55049,255747,309221
1630070139368,55068,255733,309193
1630070139378,55088,255790,309218
1630070139388,55090,255771,309216
1630070139398,55113,255846,309201
1630070139408,55135,255811,309233
1630070139418,55160,255775,309249
1630070139428,55187,255829,309237
1630070139438,55177,255844,309269
1630070139448,55210,255859,309231
1630070139458,55232,255906,309298
1630070139468,55242,255896,309288
1630070139478,55259,255903,309297
1630070139488,55293,255927,309282
1630070139498,55310,255894,309284
1630070139508,55324,255976,309340
1630070139518,55350,255954,309295
1630070139528,55362,256006,309288
1630070139538,55400,256036,309299
1630070139548,55417,256007,309318
1630070139558,55422,256024,309358
1630070139568,55460,256073,309349
1630070139578,55485,256055,309373
1630070139588,55513,256078,309345
1630070139598,55528,256111,309363
1630070139608,55545,256144,309372
1630070139618,55561,256123,309367
1630070139628,55558,256070,309319
1630070139638,55552,256048,309276
1630070139648,55540,256015,309253
1630070139658,55520,255979,309298
1630070139668,55504,255920,309264
1630070139678,55478,255947,309209
1630070139688,55461,255875,309232
1630070139698,55433,255873,309249
1630070139708,55414,255838,309253
1630070139718,55378,255849,309195
1630070139728,55349,255831,309191
1630070139738,55341,255824,309189
1630070139748,55303,255757,309190
1630070139758,55281,255761,309171
1630070139768,55263,255769,309174
1630070139778,55224,255752,309162
1630070139788,55200,255710,309111
1630070139798,55168,255743,309137
1630070139808,55152,255719,309154
1630070139818,55122,255705,309150
1630070139828,55104,255716,309086
1630070139838,55103,255702,309132
1630070139848,55090,255729,309141
1630070139858,55089,255750,309139
1630070139868,55081,255702,309137
1630070139878,55044,255710,309120
1630070139888,55064,255676,309105
1630070139898,55052,255676,309108
1630070139908,55034,255730,309106
1630070139918,55036,255665,309136
1630070139928,55011,255691,309113
1630070139938,55008,255692,309130
1630070139948,55002,255675,309127
1630070139958,54998,255707,309124
1630070139968,54994,255699,309103
1630070139978,54991,255688,309056
1630070139988,54991,255678,309096
1630070139998,54999,255703,309135
1630070140008,54993,255730,309121
1630070140018,54996,255718,309121
1630070140028,55007,255711,309136
1630070140038,54997,255735,309111
1630070140048,55011,255770,309124
1630070140058,55015,255734,309124
1630070140068,55031,255767,309156
1630070140078,55038,255760,309155
1630070140088,55047,255776,309125
1630070140098,55045,255768,309126
1630070140108,55063,255851,309128
1630070140118,55068,255825,309120
1630070140128,55082,255860,309177
1630070140138,55095,255873,309172
1630070140148,55108,255872,309174
1630070140158,55128,255883,309205
1630070140168,55148,255895,309186
1630070140178,55160,255912,309190
1630070140188,55170,255909,309203
1630070140198,55183,255922,309181
1630070140208,55212,255941,309217
1630070140218,55222,255966,309218
1630070140228,55223,255977,309181
1630070140238,55259,255971,309196
1630070140248,55267,255989,309217
1630070140258,55281,256001,309233
1630070140268,55296,256032,309248
1630070140278,55310,256033,309236
1630070140288,55338,256046,309267
1630070140298,55350,256082,309229
1630070140308,55358,256075,309257
1630070140318,55386,256102,309293
1630070140328,55406,256096,309272
1630070140338,55419,256103,309300
1630070140348,55449,256106,309300
1630070140358,55463,256125,309296
1630070140368,55482,256123,309274
1630070140378,55464,256134,309257
1630070140388,55447,256042,309145
1630070140398,55419,255994,309146
1630070140408,55392,255954,309144
1630070140418,55347,255889,309155
1630070140428,55300,255889,309092
1630070140438,55239,255858,309089
1630070140448,55203,255798,309048
1630070140458,55148,255773,309020
1630070140468,55102,255793,309027
1630070140478,55042,255691,309019
1630070140488,54997,255674,308986
1630070140498,54946,255628,308971
1630070140508,54894,255561,308922
1630070140518,54832,255619,308885
1630070140528,54791,255560,308886
1630070140538,54742,255524,308864
1630070140548,54685,255481,308841
1630070140558,54627,255465,308825
1630070140568,54576,255437,308827
1630070140578,54542,255404,308791
1630070140588,54489,255382,308791
1630070140598,54457,255384,308796
1630070140608,54436,255395,308759
1630070140618,54396,255376,308773
1630070140628,54392,255398,308780
1630070140638,54361,255349,308740
1630070140648,54342,255322,308747
1630070140658,54326,255315,308751
1630070140668,54309,255303,308746
1630070140678,54294,255322,308707
1630070140688,54270,255314,308719
1630070140698,54268,255323,308703
1630070140708,54240,255273,308698
1630070140718,54224,255284,308729
1630070140728,54221,255287,308674
1630070140738,54205,255282,308698
1630070140748,54209,255265,308667
1630070140758,54201,255269,308699
1630070140768,54196,255289,308706
1630070140778,54187,255294,308714
1630070140788,54193,255307,308704
1630070140798,54192,255273,308708
1630070140808,54213,255316,308674
1630070140818,54209,255310,308691
1630070140828,54211,255286,308738
1630070140838,54219,255341,308709
1630070140848,54232,255344,308748
1630070140858,54245,255336,308756
1630070140868,54263,255340,308705
1630070140878,54262,255371,308754
1630070140888,54282,255357,308741
1630070140898,54291,255378,308763
1630070140908,54301,255415,308746
1630070140918,54314,255435,308783
1630070140928,54343,255408,308754
1630070140938,54360,255458,308770
1630070140948,54378,255419,308795
1630070140958,54393,255477,308798
1630070140968,54415,255493,308785
1630070140978,54436,255484,308822
1630070140988,54443,255524,308834
1630070140998,54465,255525,308823
1630070141008,54480,255567,308856
1630070141018,54508,255540,308848
1630070141028,54521,255588,308840
1630070141038,54536,255563,308869
1630070141048,54573,255597,308874
1630070141058,54566,255645,308855
1630070141068,54589,255650,308854
1630070141078,54624,255680,308859
1630070141088,54644,255668,308891
1630070141098,54659,255660,308915
1630070141108,54681,255727,308932
1630070141118,54711,255724,308926
1630070141128,54724,255738,308893
1630070141138,54722,255680,308875
1630070141148,54708,255662,308827
1630070141158,54694,255581,308783
1630070141168,54658,255541,308782
1630070141178,54614,255500,308743
1630070141188,54566,255446,308724
1630070141198,54527,255412,308729
1630070141208,54472,255395,308692
1630070141218,54420,255307,308648
1630070141228,54385,255309,308656
1630070141238,54336,255263,308631
1630070141248,54303,255266,308671
1630070141258,54261,255252,308617
1630070141268,54218,255208,308617
1630070141278,54187,255189,308577
1630070141288,54149,255164,308597
1630070141298,54107,255134,308602
1630070141308,54071,255119,308593
1630070141318,54035,255105,308545
1630070141328,54000,255048,308572
1630070141338,53972,255059,308563
1630070141348,53944,255030,308544
1630070141358,53914,255041,308529
1630070141368,53907,255056,308567
1630070141378,53914,255021,308562
1630070141388,53917,255032,308560
1630070141398,53891,255019,308544
1630070141408,53884,255028,308549
1630070141418,53888,255048,308579
1630070141428,53874,255035,308600
1630070141438,53869,255025,308602
1630070141448,53875,255051,308560
1630070141458,53869,255032,308577
1630070141468,53867,255038,308541
1630070141478,53862,255070,308590
1630070141488,53870,255033,308613
1630070141498,53865,255112,308584
1630070141508,53867,255061,308569
1630070141518,53890,255078,308606
1630070141528,53896,255114,308620
1630070141538,53900,255095,308644
1630070141548,53909,255103,308627
1630070141558,53915,255091,308615
1630070141568,53937,255107,308589
1630070141578,53933,255114,308637
1630070141588,53947,255140,308616
1630070141598,53960,255135,308607
1630070141608,53982,255158,308609
1630070141618,53999,255186,308613
1630070141628,53998,255172,308632
1630070141638,54024,255215,308636
1630070141648,54033,255177,308616
1630070141658,54068,255236,308620
1630070141668,54073,255237,308643
1630070141678,54102,255275,308614
1630070141688,54118,255266,308649
1630070141698,54138,255289,308662
1630070141708,54162,255310,308641
1630070141718,54188,255345,308657
1630070141728,54215,255353,308663
1630070141738,54240,255379,308711
1630070141748,54274,255370,308718
1630070141758,54291,255375,308728
1630070141768,54309,255412,308723
1630070141778,54341,255434,308717
1630070141788,54367,255438,308774
1630070141798,54398,255446,308769
1630070141808,54426,255459,308788
1630070141818,54460,255495,308763
1630070141828,54481,255547,308803
1630070141838,54510,255528,308792
1630070141848,54539,255548,308816
1630070141858,54570,255597,308840
1630070141868,54594,255640,308856
1630070141878,54622,255641,308860
1630070141888,54642,255683,308894
1630070141898,54661,255649,308844
1630070141908,54672,255609,308822
1630070141918,54667,255604,308824
1630070141928,54659,255554,308742
1630070141938,54636,255481,308716
1630070141948,54614,255491,308725
1630070141958,54582,255398,308693
1630070141968,54551,255375,308687
1630070141978,54527,255370,308677
1630070141988,54504,255335,308630
1630070141998,54487,255278,308628
1630070142008,54452,255329,308658
1630070142018,54434,255294,308639
1630070142028,54413,255318,308640
1630070142038,54395,255269,308624
1630070142048,54376,255226,308617
1630070142058,54360,255270,308628
1630070142068,54345,255224,308597
1630070142078,54332,255240,308583
1630070142088,54304,255231,308595
1630070142098,54298,255206,308595
1630070142108,54295,255222,308575
1630070142118,54292,255225,308617
1630070142128,54300,255239,308628
1630070142138,54295,255256,308625
1630070142148,54309,255217,308654
1630070142158,54313,255247,308626
1630070142168,54334,255237,308626
1630070142178,54335,255234,308649
1630070142188,54346,255204,308616
1630070142198,54348,255270,308647
1630070142208,54340,255223,308604
1630070142218,54363,255249,308656
1630070142228,54367,255263,308656
1630070142238,54386,255238,308606
1630070142248,54386,255212,308675
1630070142258,54399,255256,308655
1630070142268,54420,255280,308695
1630070142278,54424,255303,308709
1630070142288,54438,255290,308697
1630070142298,54463,255364,308738
1630070142308,54474,255362,308733
1630070142318,54490,255370,308668
1630070142328,54499,255369,308744
1630070142338,54539,255370,308730
1630070142348,54543,255414,308758
1630070142358,54570,255415,308744
1630070142368,54607,255440,308755
1630070142378,54624,255458,308750
1630070142388,54645,255464,308774
1630070142398,54666,255500,308824
1630070142408,54685,255515,308825
1630070142418,54718,255522,308825
1630070142428,54735,255545,308840
1630070142438,54755,255577,308852
1630070142448,54790,255595,308832
1630070142458,54824,255606,308891
1630070142468,54839,255592,308828
1630070142478,54872,255669,308879
1630070142488,54896,255599,308873
1630070142498,54912,255682,308878
1630070142508,54937,255685,308895
1630070142518,54964,255722,308912
1630070142528,54994,255751,308902
1630070142538,55017,255757,308893
1630070142548,55051,255793,308976
1630070142558,55079,255774,308993
1630070142568,55106,255828,308981
1630070142578,55136,255840,308970
1630070142588,55162,255886,308985
1630070142598,55193,255869,309006
1630070142608,55216,255910,309017
1630070142618,55244,255927,309000
1630070142628,55247,255862,308973
1630070142638,55241,255832,308947
1630070142648,55232,255798,308903
1630070142658,55223,255747,308884
1630070142668,55220,255731,308896
1630070142678,55195,255691,308924
1630070142688,55174,255681,308868
1630070142698,55148,255688,308859
1630070142708,55129,255645,308852
1630070142718,55118,255629,308854
1630070142728,55103,255605,308863
1630070142738,55092,255599,308876
1630070142748,55069,255601,308887
1630070142758,55063,255578,308851
1630070142768,55043,255595,308854
1630070142778,55027,255593,308876
1630070142788,55016,255587,308862
1630070142798,55008,255586,308852
1630070142808,54986,255532,308860
1630070142818,54975,255551,308821
1630070142828,54971,255546,308847
1630070142838,54953,255547,308846
1630070142848,54954,255561,308867
1630070142858,54959,255569,308850
1630070142868,54961,255583,308894
1630070142878,54970,255583,308897
1630070142888,54971,255623,308890
1630070142898,54977,255590,308882
1630070142908,54990,255584,308880
1630070142918,54996,255605,308877
1630070142928,54997,255583,308863
1630070142938,55002,255629,308921
1630070142948,55007,255642,308899
1630070142958,55021,255648,308939
1630070142968,55032,255607,308949
1630070142978,55037,255604,308928
1630070142988,55050,255624,308925
1630070142998,55055,255665,308950
1630070143008,55073,255686,308954
1630070143018,55081,255683,308963
