timestamp,green,ir,red
1630070107735,57393,57805,57798
1630070107745,58353,90583,90578
1630070107755,58372,123375,123370
1630070107765,58388,156124,156137
1630070107775,58392,188908,188938
1630070107785,58378,221703,221705
1630070107795,58358,254303,254484
1630070107805,58304,287062,287228
1630070107815,58247,319651,319854
1630070107825,58176,331964,352652
1630070107835,58105,331876,385234
1630070107845,58040,331868,401605
1630070107855,57974,331878,401484
1630070107865,57920,331798,401452
1630070107875,57849,331734,401408
1630070107885,57805,331693,401423
1630070107895,57740,331658,401377
1630070107905,57685,331620,401338
1630070107915,57625,331555,401330
1630070107925,57574,331545,401322
1630070107935,57512,331508,401299
1630070107945,57480,331496,401257
1630070107955,57418,331445,401221
1630070107965,57366,331403,401218
1630070107975,57330,331392,401163
1630070107985,57297,331372,401177
1630070107995,57248,331360,401136
1630070108005,57229,331385,401178
1630070108015,57217,331332,401148
1630070108025,57194,331300,401171
1630070108035,57196,331323,401108
1630070108045,57168,331322,401080
1630070108055,57159,331331,401087
1630070108065,57133,331262,401054
1630070108075,57120,331261,401067
1630070108085,57112,331258,401094
1630070108095,57095,331305,401060
1630070108105,57092,331258,401011
1630070108115,57077,331253,401001
1630070108125,57067,331245,400986
1630070108135,57070,331288,401002
1630070108145,57074,331242,401036
1630070108155,57067,331275,400980
1630070108165,57063,331224,400988
1630070108175,57075,331250,401013
1630070108185,57072,331266,401031
1630070108195,57082,331221,400997
1630070108205,57100,331217,401029
1630070108215,57100,331243,401034
1630070108225,57131,331244,401008
1630070108235,57144,331310,401024
1630070108245,57170,331287,401018
1630070108255,57181,331298,401013
1630070108265,57192,331313,401029
1630070108275,57227,331320,401029
1630070108285,57227,331332,401001
1630070108295,57254,331275,401003
1630070108305,57271,331338,401057
1630070108315,57308,331367,401015
1630070108325,57334,331358,401091
1630070108335,57352,331351,401108
1630070108345,57382,331364,401058
1630070108355,57408,331422,401092
1630070108365,57432,331399,401114
1630070108375,57452,331389,401139
1630070108385,57490,331422,401049
1630070108395,57506,331451,401109
1630070108405,57538,331456,401131
1630070108415,57581,331522,401126
1630070108425,57594,331460,401158
1630070108435,57611,331455,401112
1630070108445,57598,331412,401131
1630070108455,57565,331424,401066
1630070108465,57519,331354,401079
1630070108475,57469,331274,401018
1630070108485,57406,331234,400958
1630070108495,57338,331175,400979
1630070108505,57289,331097,400940
1630070108515,57234,331129,400972
1630070108525,57176,331055,400930
1630070108535,57134,331064,400922
1630070108545,57073,331024,400906
1630070108555,57049,331003,400883
1630070108565,56998,330979,400840
1630070108575,56949,330947,400809
1630070108585,56893,330931,400767
1630070108595,56859,330914,400813
1630070108605,56810,330885,400728
1630070108615,56769,330881,400775
1630070108625,56734,330798,400761
1630070108635,56693,330806,400750
1630070108645,56668,330823,400746
1630070108655,56659,330828,400698
1630070108665,56650,330825,400732
1630070108675,56651,330819,400700
1630070108685,56640,330839,400696
1630070108695,56635,330843,400729
1630070108705,56623,330776,400715
1630070108715,56625,330774,400695
1630070108725,56617,330796,400731
1630070108735,56612,330807,400638
1630070108745,56607,330790,400699
1630070108755,56599,330776,400727
1630070108765,56590,330829,400658
1630070108775,56589,330760,400685
1630070108785,56587,330810,400663
1630070108795,56586,330782,400702
1630070108805,56600,330841,400663
1630070108815,56608,330817,400696
1630070108825,56618,330799,400723
1630070108835,56622,330787,400719
1630070108845,56634,330820,400691
1630070108855,56648,330841,400745
1630070108865,56667,330884,400702
1630070108875,56688,330874,400722
1630070108885,56701,330879,400743
1630070108895,56717,330888,400747
1630070108905,56741,330907,400764
1630070108915,56767,330943,400746
1630070108925,56798,330859,400791
1630070108935,56818,330951,400755
1630070108945,56836,330957,400774
1630070108955,56864,330974,400773
1630070108965,56883,331030,400792
1630070108975,56909,331011,400823
1630070108985,56942,330975,400830
1630070108995,56974,331046,400839
1630070109005,56991,331008,400790
1630070109015,57019,331053,400802
1630070109025,57066,331088,400858
1630070109035,57084,331138,400860
1630070109045,57110,331135,400865
1630070109055,57137,331138,400878
1630070109065,57180,331177,400917
1630070109075,57212,331123,400883
1630070109085,57250,331187,400918
1630070109095,57292,331206,400952
1630070109105,57319,331196,400961
1630070109115,57338,331181,400960
1630070109125,57337,331148,400978
1630070109135,57324,331141,400941
1630070109145,57290,331070,400920
1630070109155,57242,331024,400895
1630070109165,57183,330994,400878
1630070109175,57139,330961,400889
1630070109185,57084,330944,400831
1630070109195,57053,330873,400834
1630070109205,57004,330872,400843
1630070109215,56957,330881,400773
1630070109225,56911,330809,400813
1630070109235,56885,330802,400770
1630070109245,56843,330761,400764
1630070109255,56807,330776,400763
1630070109265,56774,330747,400748
1630070109275,56744,330728,400694
1630070109285,56710,330693,400684
1630070109295,56681,330724,400691
1630070109305,56660,330674,400718
1630070109315,56621,330648,400676
1630070109325,56620,330689,400684
1630070109335,56605,330685,400690
1630070109345,56611,330707,400702
1630070109355,56599,330690,400671
1630070109365,56610,330714,400675
1630070109375,56611,330714,400714
1630070109385,56620,330669,400691
1630070109395,56604,330613,400701
1630070109405,56603,330672,400683
1630070109415,56599,330675,400681
1630070109425,56589,330696,400694
1630070109435,56585,330677,400688
1630070109445,56592,330684,400721
1630070109455,56607,330713,400730
1630070109465,56593,330687,400738
1630070109475,56596,330702,400718
1630070109485,56617,330721,400696
1630070109495,56626,330736,400723
1630070109505,56631,330694,400668
1630070109515,56661,330722,400726
1630070109525,56678,330750,400723
1630070109535,56686,330759,400753
1630070109545,56713,330758,400739
1630070109555,56732,330764,400715
1630070109565,56747,330762,400730
1630070109575,56771,330816,400720
1630070109585,56778,330823,400740
1630070109595,56807,330766,400806
1630070109605,56824,330846,400840
1630070109615,56851,330857,400799
1630070109625,56874,330829,400790
1630070109635,56901,330878,400842
1630070109645,56937,330839,400803
1630070109655,56959,330912,400820
1630070109665,57001,330915,400812
1630070109675,57026,330964,400852
1630070109685,57070,330976,400790
1630070109695,57084,330979,400883
1630070109705,57115,330973,400889
1630070109715,57147,330996,400905
1630070109725,57174,330992,400863
1630070109735,57207,331059,400915
1630070109745,57241,331035,400921
1630070109755,57275,331057,400900
1630070109765,57305,331053,400921
1630070109775,57326,331066,400918
1630070109785,57346,331084,400922
1630070109795,57357,331032,400882
1630070109805,57349,330995,400878
1630070109815,57309,330942,400848
1630070109825,57269,330956,400864
1630070109835,57232,330866,400831
1630070109845,57191,330821,400823
1630070109855,57140,330834,400826
1630070109865,57090,330835,400766
1630070109875,57064,330813,400735
1630070109885,57009,330794,400771
1630070109895,56992,330718,400740
1630070109905,56948,330733,400737
1630070109915,56925,330711,400774
1630070109925,56883,330671,400734
1630070109935,56855,330670,400685
1630070109945,56831,330640,400656
1630070109955,56806,330635,400674
1630070109965,56777,330599,400681
1630070109975,56749,330576,400638
1630070109985,56740,330605,400668
1630070109995,56728,330606,400684
1630070110005,56726,330658,400670
1630070110015,56732,330629,400628
1630070110025,56740,330597,400663
1630070110035,56730,330632,400673
1630070110045,56731,330604,400640
1630070110055,56739,330649,400702
1630070110065,56731,330602,400642
1630070110075,56731,330670,400627
1630070110085,56734,330635,400698
1630070110095,56740,330620,400636
1630070110105,56743,330651,400669
1630070110115,56740,330643,400650
1630070110125,56748,330658,400633
1630070110135,56770,330682,400599
1630070110145,56786,330664,400668
1630070110155,56800,330689,400666
1630070110165,56803,330686,400668
1630070110175,56822,330690,400638
1630070110185,56845,330744,400651
1630070110195,56875,330748,400709
1630070110205,56901,330733,400662
1630070110215,56917,330738,400730
1630070110225,56924,330800,400708
1630070110235,56957,330794,400733
1630070110245,56989,330779,400743
1630070110255,57011,330828,400713
1630070110265,57034,330837,400740
1630070110275,57073,330869,400779
1630070110285,57098,330846,400764
1630070110295,57132,330909,400800
1630070110305,57160,330930,400778
1630070110315,57190,330909,400846
1630070110325,57230,330933,400823
1630070110335,57269,330951,400849
1630070110345,57285,330967,400822
1630070110355,57336,330955,400871
1630070110365,57367,331038,400825
1630070110375,57405,331079,400859
1630070110385,57431,331061,400908
1630070110395,57470,331064,400905
1630070110405,57506,331136,400902
1630070110415,57538,331159,400944
1630070110425,57577,331174,400923
1630070110435,57616,331169,400942
1630070110445,57658,331201,400939
1630070110455,57698,331238,400976
1630070110465,57717,331232,400982
1630070110475,57731,331240,400953
1630070110485,57731,331144,400939
1630070110495,57714,331144,400930
1630070110505,57676,331089,400923
1630070110515,57632,331040,400902
1630070110525,57594,331035,400904
1630070110535,57541,330988,400871
1630070110545,57487,330943,400872
1630070110555,57461,330943,400876
1630070110565,57420,330927,400848
1630070110575,57368,330893,400808
1630070110585,57335,330856,400840
1630070110595,57296,330874,400790
1630070110605,57259,330858,400768
1630070110615,57225,330813,400738
1630070110625,57191,330819,400760
1630070110635,57155,330828,400723
1630070110645,57139,330789,400758
1630070110655,57112,330783,400713
1630070110665,57078,330756,400721
1630070110675,57058,330752,400707
1630070110685,57043,330764,400706
1630070110695,57029,330771,400710
1630070110705,57014,330802,400737
1630070110715,57022,330783,400748
1630070110725,57011,330768,400735
1630070110735,57022,330762,400734
1630070110745,57021,330799,400750
1630070110755,57015,330776,400733
1630070110765,57015,330747,400699
1630070110775,57004,330779,400754
1630070110785,57020,330764,400736
1630070110795,57011,330806,400714
1630070110805,57028,330785,400661
1630070110815,57036,330764,400694
1630070110825,57041,330804,400720
1630070110835,57049,330843,400737
1630070110845,57077,330873,400733
1630070110855,57083,330840,400732
1630070110865,57085,330857,400794
1630070110875,57098,330881,400738
1630070110885,57125,330876,400749
1630070110895,57150,330925,400736
1630070110905,57173,330932,400810
1630070110915,57204,330950,400770
1630070110925,57220,330952,400816
1630070110935,57267,330942,400847
1630070110945,57283,330943,400818
1630070110955,57316,331022,400858
1630070110965,57357,330984,400861
1630070110975,57367,331038,400857
1630070110985,57417,331051,400864
1630070110995,57454,331054,400885
1630070111005,57479,331115,400917
1630070111015,57516,331118,400924
1630070111025,57539,331148,400918
1630070111035,57577,331149,400953
1630070111045,57614,331179,400963
1630070111055,57649,331156,400986
1630070111065,57694,331221,400974
1630070111075,57716,331204,400997
1630070111085,57756,331274,401025
1630070111095,57787,331284,401051
1630070111105,57832,331341,401014
1630070111115,57869,331345,401045
1630070111125,57906,331378,401086
1630070111135,57959,331378,401074
1630070111145,57987,331356,401085
1630070111155,58027,331384,401073
1630070111165,58055,331425,401104
1630070111175,58066,331405,401098
1630070111185,58072,331360,401137
1630070111195,58050,331371,401097
1630070111205,58014,331265,401041
1630070111215,57964,331234,401038
1630070111225,57925,331186,401023
1630070111235,57895,331188,401054
1630070111245,57861,331196,400989
1630070111255,57821,331122,400981
1630070111265,57788,331148,401005
1630070111275,57757,331083,400981
1630070111285,57717,331068,401006
1630070111295,57710,331072,400978
1630070111305,57678,331075,400944
1630070111315,57651,331094,400932
1630070111325,57630,331013,400950
1630070111335,57595,330994,400954
1630070111345,57576,331021,400976
1630070111355,57553,330985,400905
1630070111365,57547,330983,400920
1630070111375,57523,331011,400935
1630070111385,57519,331027,400922
1630070111395,57517,330985,400915
1630070111405,57525,331074,400886
1630070111415,57529,331034,400911
1630070111425,57532,331077,400914
1630070111435,57549,331048,400960
1630070111445,57554,331058,400920
1630070111455,57544,331069,400956
1630070111465,57559,331093,400951
1630070111475,57553,331087,400946
1630070111485,57571,331023,401033
1630070111495,57579,331053,400955
1630070111505,57594,331122,400954
1630070111515,57595,331062,400956
1630070111525,57587,331101,400989
1630070111535,57617,331124,400988
1630070111545,57628,331102,400953
1630070111555,57639,331096,400998
1630070111565,57663,331153,400962
1630070111575,57682,331125,400996
1630070111585,57700,331188,401027
1630070111595,57726,331193,401013
1630070111605,57753,331226,401001
1630070111615,57775,331211,401058
1630070111625,57815,331256,401053
1630070111635,57827,331290,401047
1630070111645,57864,331244,401060
1630070111655,57884,331296,401042
1630070111665,57916,331284,401100
1630070111675,57946,331325,401062
1630070111685,57986,331336,401112
1630070111695,58010,331377,401062
1630070111705,58047,331365,401131
1630070111715,58076,331393,401180
1630070111725,58116,331401,401153
1630070111735,58150,331437,401147
1630070111745,58188,331452,401193
1630070111755,58224,331473,401220
1630070111765,58250,331523,401236
1630070111775,58280,331495,401231
1630070111785,58327,331534,401248
1630070111795,58356,331562,401275
1630070111805,58395,331568,401241
1630070111815,58439,331552,401302
1630070111825,58464,331620,401279
1630070111835,58510,331666,401312
1630070111845,58535,331649,401361
1630070111855,58575,331664,401324
1630070111865,58594,331650,401327
1630070111875,58608,331606,401358
1630070111885,58597,331575,401310
1630070111895,58565,331562,401304
1630070111905,58539,331567,401286
1630070111915,58494,331489,401247
1630070111925,58451,331440,401246
1630070111935,58432,331412,401278
1630070111945,58402,331408,401222
1630070111955,58359,331364,401222
1630070111965,58331,331400,401205
1630070111975,58307,331385,401233
1630070111985,58289,331366,401190
1630070111995,58253,331293,401196
1630070112005,58230,331361,401152
1630070112015,58211,331343,401170
1630070112025,58189,331328,401180
1630070112035,58165,331282,401187
1630070112045,58147,331327,401154
1630070112055,58134,331312,401118
1630070112065,58121,331318,401148
1630070112075,58129,331299,401129
1630070112085,58125,331350,401165
1630070112095,58139,331369,401182
1630070112105,58138,331320,401155
1630070112115,58136,331339,401134
1630070112125,58138,331355,401151
1630070112135,58136,331353,401152
1630070112145,58139,331358,401176
1630070112155,58140,331341,401155
1630070112165,58141,331339,401179
1630070112175,58138,331318,401119
1630070112185,58140,331321,401194
1630070112195,58155,331336,401160
1630070112205,58148,331387,401150
1630070112215,58157,331394,401154
1630070112225,58178,331398,401139
1630070112235,58181,331395,401163
1630070112245,58197,331439,401194
1630070112255,58208,331431,401223
1630070112265,58236,331447,401212
1630070112275,58251,331444,401210
1630070112285,58278,331515,401217
1630070112295,58290,331471,401209
1630070112305,58316,331498,401223
1630070112315,58330,331528,401226
1630070112325,58360,331538,401228
1630070112335,58387,331545,401238
1630070112345,58403,331572,401243
1630070112355,58432,331571,401290
1630070112365,58459,331656,401301
1630070112375,58493,331603,401330
1630070112385,58520,331596,401317
1630070112395,58545,331665,401302
1630070112405,58590,331670,401316
1630070112415,58614,331672,401397
1630070112425,58659,331702,401372
1630070112435,58684,331697,401407
1630070112445,58716,331737,401382
1630070112455,58742,331755,401442
1630070112465,58780,331799,401402
1630070112475,58824,331819,401410
1630070112485,58849,331808,401408
1630070112495,58880,331833,401447
1630070112505,58919,331893,401444
1630070112515,58958,331874,401451
1630070112525,58974,331863,401478
1630070112535,58978,331827,401467
1630070112545,58974,331825,401466
1630070112555,58947,331735,401401
1630070112565,58902,331736,401384
1630070112575,58861,331647,401356
1630070112585,58814,331674,401358
1630070112595,58776,331596,401332
1630070112605,58740,331612,401378
1630070112615,58706,331577,401352
1630070112625,58663,331550,401326
1630070112635,58632,331553,401298
1630070112645,58588,331527,401289
1630070112655,58565,331559,401271
1630070112665,58528,331550,401291
1630070112675,58500,331473,401250
1630070112685,58469,331488,401268
1630070112695,58438,331481,401227
1630070112705,58422,331425,401246
1630070112715,58395,331475,401223
1630070112725,58385,331480,401185
1630070112735,58376,331457,401200
1630070112745,58356,331473,401191
1630070112755,58361,331489,401198
1630070112765,58362,331504,401222
1630070112775,58362,331488,401202
1630070112785,58353,331439,401214
1630070112795,58357,331501,401217
1630070112805,58360,331498,401229
1630070112815,58350,331508,401255
1630070112825,58357,331502,401223
1630070112835,58355,331473,401202
1630070112845,58352,331496,401191
1630070112855,58356,331524,401240
1630070112865,58367,331500,401206
1630070112875,58372,331537,401211
1630070112885,58385,331502,401187
1630070112895,58391,331546,401182
1630070112905,58409,331547,401188
1630070112915,58430,331561,401230
1630070112925,58432,331558,401213
1630070112935,58456,331544,401235
1630070112945,58484,331620,401231
1630070112955,58503,331581,401232
1630070112965,58524,331596,401286
1630070112975,58545,331629,401252
1630070112985,58567,331667,401267
1630070112995,58594,331657,401282
1630070113005,58617,331688,401273
1630070113015,58646,331713,401249
1630070113025,58677,331734,401316
1630070113035,58699,331698,401336
1630070113045,58733,331736,401311
1630070113055,58768,331753,401320
1630070113065,58794,331812,401302
1630070113075,58844,331809,401335
1630070113085,58865,331826,401411
1630070113095,58900,331889,401349
1630070113105,58932,331888,401385
1630070113115,58963,331875,401373
1630070113125,58996,331872,401428
1630070113135,59038,331954,401425
1630070113145,59065,331923,401439
1630070113155,59102,331959,401445
1630070113165,59133,331992,401492
1630070113175,59178,332007,401441
1630070113185,59204,332005,401455
1630070113195,59238,332014,401487
1630070113205,59247,331999,401436
1630070113215,59257,331950,401466
1630070113225,59233,331918,401460
1630070113235,59194,331874,401443
1630070113245,59149,331832,401438
1630070113255,59118,331787,401381
1630070113265,59064,331822,401413
1630070113275,59017,331753,401362
1630070113285,58956,331733,401345
1630070113295,58916,331713,401367
1630070113305,58879,331724,401320
1630070113315,58840,331657,401285
1630070113325,58802,331651,401308
1630070113335,58759,331639,401277
1630070113345,58731,331601,401243
1630070113355,58682,331576,401240
1630070113365,58660,331550,401207
1630070113375,58618,331551,401237
1630070113385,58591,331563,401241
1630070113395,58571,331551,401246
1630070113405,58560,331513,401222
1630070113415,58537,331560,401193
1630070113425,58527,331538,401199
1630070113435,58519,331595,401184
1630070113445,58520,331580,401186
1630070113455,58505,331560,401169
1630070113465,58505,331559,401213
1630070113475,58510,331559,401221
1630070113485,58502,331559,401168
1630070113495,58493,331570,401175
1630070113505,58485,331542,401177
1630070113515,58488,331558,401172
1630070113525,58484,331561,401193
1630070113535,58480,331546,401215
1630070113545,58484,331543,401207
1630070113555,58507,331582,401170
1630070113565,58509,331539,401173
1630070113575,58510,331548,401193
1630070113585,58532,331570,401199
1630070113595,58549,331603,401206
1630070113605,58549,331590,401178
1630070113615,58564,331610,401229
1630070113625,58578,331618,401154
1630070113635,58584,331646,401208
1630070113645,58618,331612,401193
1630070113655,58637,331697,401216
1630070113665,58660,331654,401226
1630070113675,58686,331738,401254
1630070113685,58711,331722,401247
1630070113695,58738,331737,401325
1630070113705,58758,331708,401299
1630070113715,58807,331759,401308
1630070113725,58829,331806,401287
1630070113735,58868,331777,401318
1630070113745,58882,331767,401316
1630070113755,58932,331846,401279
1630070113765,58954,331866,401344
1630070113775,58982,331850,401352
1630070113785,59012,331870,401384
1630070113795,59043,331859,401400
1630070113805,59079,331908,401407
1630070113815,59104,331941,401378
1630070113825,59140,331967,401436
1630070113835,59173,331974,401443
1630070113845,59212,332024,401416
1630070113855,59237,332027,401456
1630070113865,59276,332023,401448
1630070113875,59301,331993,401453
1630070113885,59301,331992,401452
1630070113895,59293,331976,401455
1630070113905,59262,331919,401403
1630070113915,59213,331860,401367
1630070113925,59156,331852,401400
1630070113935,59103,331830,401331
1630070113945,59058,331784,401359
1630070113955,59001,331711,401336
1630070113965,58954,331711,401306
1630070113975,58916,331703,401325
1630070113985,58873,331669,401257
1630070113995,58833,331664,401256
1630070114005,58792,331693,401258
1630070114015,58762,331637,401210
1630070114025,58732,331639,401205
1630070114035,58700,331649,401238
1630070114045,58661,331575,401197
1630070114055,58622,331571,401238
1630070114065,58610,331564,401202
1630070114075,58593,331564,401219
1630070114085,58589,331558,401189
1630070114095,58573,331610,401168
1630070114105,58561,331596,401222
1630070114115,58554,331540,401173
1630070114125,58565,331544,401154
1630070114135,58560,331576,401155
1630070114145,58554,331523,401161
1630070114155,58549,331564,401192
1630070114165,58550,331588,401205
1630070114175,58549,331563,401166
1630070114185,58537,331557,401143
1630070114195,58540,331584,401170
1630070114205,58541,331537,401177
1630070114215,58538,331564,401176
1630070114225,58536,331568,401183
1630070114235,58550,331628,401228
1630070114245,58546,331541,401194
1630070114255,58556,331593,401184
1630070114265,58569,331625,401227
1630070114275,58570,331573,401155
1630070114285,58582,331585,401135
1630070114295,58598,331619,401247
1630070114305,58606,331637,401219
1630070114315,58627,331651,401242
1630070114325,58650,331686,401212
1630070114335,58672,331692,401241
1630070114345,58691,331690,401248
1630070114355,58713,331661,401217
1630070114365,58735,331736,401250
1630070114375,58770,331720,401276
1630070114385,58799,331749,401253
1630070114395,58819,331765,401267
1630070114405,58848,331761,401303
1630070114415,58882,331772,401301
1630070114425,58901,331790,401307
1630070114435,58929,331803,401292
1630070114445,58969,331858,401300
1630070114455,58997,331851,401353
1630070114465,59040,331871,401346
1630070114475,59059,331897,401362
1630070114485,59093,331897,401346
1630070114495,59125,331889,401372
1630070114505,59145,331931,401375
1630070114515,59162,331919,401383
1630070114525,59169,331882,401360
1630070114535,59180,331869,401379
1630070114545,59162,331838,401331
1630070114555,59124,331814,401344
1630070114565,59071,331733,401354
1630070114575,59007,331662,401308
1630070114585,58953,331655,401295
1630070114595,58902,331623,401252
1630070114605,58852,331621,401222
1630070114615,58809,331567,401204
1630070114625,58763,331566,401159
1630070114635,58730,331544,401185
1630070114645,58702,331522,401183
1630070114655,58664,331505,401148
1630070114665,58626,331489,401137
1630070114675,58599,331500,401188
1630070114685,58555,331458,401152
1630070114695,58540,331444,401140
1630070114705,58521,331460,401137
1630070114715,58508,331441,401097
1630070114725,58481,331414,401143
1630070114735,58477,331470,401075
1630070114745,58471,331441,401083
1630070114755,58467,331399,401067
1630070114765,58466,331393,401102
1630070114775,58460,331389,401069
1630070114785,58449,331404,401083
1630070114795,58450,331420,401063
1630070114805,58426,331365,401072
1630070114815,58427,331362,401096
1630070114825,58422,331407,401071
1630070114835,58412,331410,401071
1630070114845,58429,331424,401060
1630070114855,58427,331397,401013
1630070114865,58442,331369,401052
1630070114875,58431,331397,401068
1630070114885,58433,331430,401092
1630070114895,58452,331418,401084
1630070114905,58455,331436,401098
1630070114915,58468,331432,401101
1630070114925,58474,331411,401096
1630070114935,58500,331472,401140
1630070114945,58527,331461,401124
1630070114955,58528,331466,401135
1630070114965,58541,331489,401171
1630070114975,58572,331504,401151
1630070114985,58599,331505,401153
1630070114995,58615,331476,401165
1630070115005,58653,331585,401147
1630070115015,58660,331561,401177
1630070115025,58716,331564,401178
1630070115035,58732,331617,401181
1630070115045,58757,331615,401248
1630070115055,58787,331636,401229
1630070115065,58811,331642,401215
1630070115075,58847,331639,401227
1630070115085,58868,331670,401231
1630070115095,58895,331717,401248
1630070115105,58930,331709,401278
1630070115115,58955,331743,401267
1630070115125,58986,331762,401307
1630070115135,59011,331729,401319
1630070115145,59036,331722,401338
1630070115155,59044,331746,401282
1630070115165,59037,331670,401294
1630070115175,59008,331667,401274
1630070115185,58967,331587,401261
1630070115195,58925,331557,401202
1630070115205,58866,331491,401183
1630070115215,58819,331456,401197
1630070115225,58757,331467,401160
1630070115235,58705,331410,401162
1630070115245,58667,331388,401137
1630070115255,58610,331372,401113
1630070115265,58567,331357,401136
1630070115275,58518,331321,401093
1630070115285,58478,331322,401097
1630070115295,58426,331285,401059
1630070115305,58382,331317,401069
1630070115315,58343,331251,401054
1630070115325,58320,331205,401054
1630070115335,58281,331229,401013
1630070115345,58253,331176,401001
1630070115355,58223,331204,400985
1630070115365,58209,331195,401017
1630070115375,58193,331221,401001
1630070115385,58193,331221,401030
1630070115395,58180,331204,401022
1630070115405,58178,331202,401009
1630070115415,58158,331133,400996
1630070115425,58143,331188,400996
1630070115435,58148,331190,401000
1630070115445,58135,331173,401022
1630070115455,58125,331169,400979
1630070115465,58114,331177,401005
1630070115475,58123,331172,400972
1630070115485,58109,331159,400973
1630070115495,58098,331219,400985
1630070115505,58110,331153,401018
1630070115515,58118,331195,400970
1630070115525,58115,331198,400976
1630070115535,58114,331207,400990
1630070115545,58129,331195,400995
1630070115555,58146,331268,401026
1630070115565,58149,331258,401030
1630070115575,58160,331189,401013
1630070115585,58182,331278,401017
1630070115595,58195,331271,401013
1630070115605,58221,331280,400959
1630070115615,58241,331297,400990
1630070115625,58259,331372,400991
1630070115635,58270,331314,400997
1630070115645,58302,331333,400975
1630070115655,58320,331339,401036
1630070115665,58351,331331,401040
1630070115675,58356,331316,400990
1630070115685,58383,331384,401005
1630070115695,58402,331398,400961
1630070115705,58429,331346,401010
1630070115715,58447,331385,400998
1630070115725,58462,331401,401046
1630070115735,58485,331439,401035
1630070115745,58511,331397,401032
1630070115755,58538,331442,401023
1630070115765,58554,331386,401035
1630070115775,58595,331422,401069
1630070115785,58612,331417,401028
1630070115795,58623,331426,401025
1630070115805,58617,331404,401025
1630070115815,58589,331387,400981
1630070115825,58553,331361,400994
1630070115835,58508,331254,400925
1630070115845,58422,331199,400916
1630070115855,58368,331163,400903
1630070115865,58306,331113,400862
1630070115875,58243,331070,400891
1630070115885,58189,331080,400830
1630070115895,58123,331099,400829
1630070115905,58085,330948,400823
1630070115915,58032,330928,400787
1630070115925,57974,330935,400786
1630070115935,57930,330895,400754
1630070115945,57886,330864,400764
1630070115955,57830,330882,400737
1630070115965,57791,330794,400721
1630070115975,57739,330807,400708
1630070115985,57690,330736,400731
1630070115995,57659,330717,400702
1630070116005,57617,330763,400708
1630070116015,57593,330755,400672
1630070116025,57580,330729,400663
1630070116035,57570,330692,400696
1630070116045,57556,330686,400670
1630070116055,57539,330683,400681
1630070116065,57522,330707,400645
1630070116075,57515,330704,400669
1630070116085,57503,330681,400599
1630070116095,57489,330658,400651
1630070116105,57485,330654,400641
1630070116115,57466,330670,400598
1630070116125,57464,330694,400682
1630070116135,57448,330677,400631
1630070116145,57457,330682,400609
1630070116155,57440,330666,400652
1630070116165,57430,330658,400598
1630070116175,57438,330673,400640
1630070116185,57438,330614,400648
1630070116195,57447,330711,400678
1630070116205,57438,330713,400682
1630070116215,57440,330664,400664
1630070116225,57464,330686,400669
1630070116235,57468,330674,400645
1630070116245,57477,330687,400650
1630070116255,57486,330686,400664
1630070116265,57501,330705,400654
1630070116275,57515,330730,400671
1630070116285,57549,330717,400655
1630070116295,57553,330760,400652
1630070116305,57580,330753,400646
1630070116315,57607,330732,400697
1630070116325,57626,330758,400707
1630070116335,57642,330739,400715
1630070116345,57667,330779,400684
1630070116355,57695,330793,400747
1630070116365,57705,330812,400719
1630070116375,57737,330814,400768
1630070116385,57755,330840,400714
1630070116395,57794,330827,400745
1630070116405,57808,330853,400811
1630070116415,57844,330886,400744
1630070116425,57886,330885,400778
1630070116435,57913,330885,400802
1630070116445,57929,330959,400814
1630070116455,57950,330918,400796
1630070116465,57968,330917,400816
1630070116475,57962,330846,400800
1630070116485,57915,330857,400776
1630070116495,57885,330750,400801
1630070116505,57835,330749,400759
1630070116515,57783,330673,400760
1630070116525,57720,330658,400732
1630070116535,57668,330679,400687
1630070116545,57648,330655,400706
1630070116555,57603,330570,400708
1630070116565,57555,330589,400679
1630070116575,57511,330547,400668
1630070116585,57482,330561,400699
1630070116595,57445,330543,400621
1630070116605,57402,330548,400605
1630070116615,57365,330511,400612
1630070116625,57334,330477,400642
1630070116635,57303,330503,400599
1630070116645,57280,330431,400612
1630070116655,57246,330452,400616
1630070116665,57229,330448,400609
1630070116675,57204,330437,400632
1630070116685,57198,330468,400634
1630070116695,57196,330453,400621
1630070116705,57194,330441,400624
1630070116715,57198,330503,400600
1630070116725,57197,330447,400621
1630070116735,57185,330485,400653
1630070116745,57190,330503,400608
1630070116755,57191,330434,400603
1630070116765,57190,330507,400623
1630070116775,57190,330494,400624
1630070116785,57190,330475,400592
1630070116795,57201,330479,400594
1630070116805,57200,330512,400607
1630070116815,57213,330515,400589
1630070116825,57225,330477,400599
1630070116835,57239,330516,400602
1630070116845,57238,330501,400599
1630070116855,57262,330524,400597
1630070116865,57261,330562,400641
1630070116875,57281,330612,400646
1630070116885,57296,330592,400639
1630070116895,57309,330629,400678
1630070116905,57335,330592,400653
1630070116915,57355,330603,400649
1630070116925,57369,330621,400646
1630070116935,57389,330661,400671
1630070116945,57417,330668,400684
1630070116955,57438,330690,400678
1630070116965,57461,330781,400719
1630070116975,57489,330744,400723
1630070116985,57529,330809,400811
1630070116995,57564,330818,400842
1630070117005,57585,330779,400803
1630070117015,57620,330859,400804
1630070117025,57652,330863,400879
1630070117035,57669,330892,400868
1630070117045,57710,330871,400890
1630070117055,57718,330868,400897
1630070117065,57764,330922,400928
1630070117075,57784,330940,400893
1630070117085,57817,330949,400908
1630070117095,57858,330955,400982
1630070117105,57865,330976,400980
1630070117115,57877,330936,400956
1630070117125,57877,330913,400966
1630070117135,57842,330855,400981
1630070117145,57822,330831,400957
1630070117155,57776,330840,400979
1630070117165,57729,330750,400898
1630070117175,57672,330734,400921
1630070117185,57640,330649,400888
1630070117195,57589,330643,400901
1630070117205,57562,330654,400881
1630070117215,57522,330646,400848
1630070117225,57494,330607,400827
1630070117235,57452,330627,400832
1630070117245,57422,330600,400810
1630070117255,57385,330597,400876
1630070117265,57353,330578,400835
1630070117275,57335,330601,400824
1630070117285,57305,330508,400814
1630070117295,57289,330517,400827
1630070117305,57276,330537,400826
1630070117315,57275,330565,400814
1630070117325,57252,330527,400807
1630070117335,57241,330577,400828
1630070117345,57258,330528,400840
1630070117355,57257,330551,400798
1630070117365,57257,330532,400811
1630070117375,57257,330562,400885
1630070117385,57250,330513,400830
1630070117395,57257,330580,400803
1630070117405,57252,330558,400800
1630070117415,57245,330525,400882
1630070117425,57254,330535,400862
1630070117435,57251,330532,400811
1630070117445,57261,330519,400868
1630070117455,57255,330545,400839
1630070117465,57266,330569,400881
1630070117475,57278,330554,400898
1630070117485,57280,330556,400829
1630070117495,57292,330576,400863
1630070117505,57292,330587,400864
1630070117515,57314,330589,400864
1630070117525,57327,330603,400880
1630070117535,57347,330595,400870
1630070117545,57359,330607,400874
1630070117555,57377,330617,400918
1630070117565,57395,330641,400931
1630070117575,57415,330674,400924
1630070117585,57440,330676,400932
1630070117595,57461,330718,400941
1630070117605,57507,330618,400935
1630070117615,57508,330683,400970
1630070117625,57549,330713,400987
1630070117635,57579,330725,400970
1630070117645,57613,330789,400987
1630070117655,57652,330729,401045
1630070117665,57655,330811,401006
1630070117675,57675,330771,400976
1630070117685,57716,330825,401089
1630070117695,57739,330828,401011
1630070117705,57769,330824,401070
1630070117715,57802,330846,401069
1630070117725,57823,330862,401092
1630070117735,57815,330797,401043
1630070117745,57806,330747,401047
1630070117755,57773,330739,401031
1630070117765,57729,330685,401009
1630070117775,57692,330634,400971
1630070117785,57648,330639,400984
1630070117795,57590,330610,400977
1630070117805,57559,330609,400968
1630070117815,57524,330562,400968
1630070117825,57481,330528,400966
1630070117835,57448,330498,400910
1630070117845,57410,330530,400906
1630070117855,57385,330478,400903
1630070117865,57356,330488,400882
1630070117875,57325,330457,400893
1630070117885,57300,330401,400918
1630070117895,57277,330425,400853
1630070117905,57257,330420,400880
1630070117915,57228,330421,400881
1630070117925,57230,330449,400857
1630070117935,57229,330442,400915
1630070117945,57238,330473,400884
1630070117955,57235,330426,400877
1630070117965,57241,330464,400908
1630070117975,57240,330484,400881
1630070117985,57249,330487,400886
1630070117995,57250,330518,400922
1630070118005,57249,330523,400919
1630070118015,57258,330488,400894
1630070118025,57258,330469,400895
1630070118035,57264,330474,400900
1630070118045,57266,330468,400921
1630070118055,57275,330500,400936
1630070118065,57286,330473,400910
1630070118075,57302,330496,400891
1630070118085,57312,330524,400902
1630070118095,57320,330541,400944
1630070118105,57355,330508,400933
1630070118115,57358,330511,400971
1630070118125,57393,330546,400937
1630070118135,57405,330545,400938
1630070118145,57431,330585,400997
1630070118155,57452,330624,401022
1630070118165,57468,330619,401012
1630070118175,57502,330693,401018
1630070118185,57535,330692,401061
1630070118195,57563,330688,401093
1630070118205,57591,330718,401038
1630070118215,57636,330751,401091
1630070118225,57669,330771,401148
1630070118235,57695,330834,401106
1630070118245,57735,330835,401101
1630070118255,57778,330861,401141
1630070118265,57822,330864,401187
1630070118275,57876,330910,401189
1630070118285,57899,330952,401233
1630070118295,57931,330973,401182
1630070118305,57988,330965,401227
1630070118315,58018,331000,401227
1630070118325,58033,330971,401287
1630070118335,58022,330951,401301
1630070118345,57998,330887,401219
1630070118355,57981,330885,401239
1630070118365,57929,330840,401197
1630070118375,57893,330813,401222
1630070118385,57853,330747,401252
1630070118395,57817,330842,401195
1630070118405,57799,330743,401188
1630070118415,57749,330762,401214
1630070118425,57726,330742,401186
1630070118435,57702,330677,401184
1630070118445,57665,330740,401154
1630070118455,57633,330724,401158
1630070118465,57618,330678,401191
1630070118475,57592,330678,401158
1630070118485,57562,330650,401201
1630070118495,57544,330663,401171
1630070118505,57522,330613,401176
1630070118515,57518,330650,401179
1630070118525,57517,330667,401155
1630070118535,57507,330639,401165
1630070118545,57540,330699,401201
1630070118555,57530,330683,401189
1630070118565,57535,330669,401189
1630070118575,57555,330702,401201
1630070118585,57568,330727,401191
1630070118595,57577,330744,401228
1630070118605,57577,330710,401266
1630070118615,57581,330772,401215
1630070118625,57594,330687,401223
1630070118635,57608,330735,401208
1630070118645,57605,330799,401213
1630070118655,57624,330776,401253
1630070118665,57639,330751,401223
1630070118675,57652,330790,401275
1630070118685,57669,330801,401291
1630070118695,57684,330790,401316
1630070118705,57713,330830,401319
1630070118715,57738,330869,401346
1630070118725,57763,330886,401313
1630070118735,57789,330890,401365
1630070118745,57812,330895,401370
1630070118755,57849,330929,401373
1630070118765,57880,330968,401402
1630070118775,57910,330983,401441
1630070118785,57941,330950,401435
1630070118795,57970,330983,401429
1630070118805,57995,330990,401466
1630070118815,58029,331050,401459
1630070118825,58071,331094,401468
1630070118835,58108,331060,401460
1630070118845,58148,331133,401514
1630070118855,58187,331232,401548
1630070118865,58231,331159,401556
1630070118875,58272,331262,401571
1630070118885,58316,331255,401593
1630070118895,58351,331257,401663
1630070118905,58392,331306,401607
1630070118915,58432,331259,401649
1630070118925,58439,331244,401620
1630070118935,58444,331244,401644
1630070118945,58431,331178,401624
1630070118955,58379,331158,401599
1630070118965,58338,331130,401577
1630070118975,58289,331124,401598
1630070118985,58236,331027,401526
1630070118995,58200,331049,401579
1630070119005,58160,331019,401521
1630070119015,58117,331007,401555
1630070119025,58077,330991,401564
1630070119035,58043,330945,401510
1630070119045,58018,330939,401517
1630070119055,57987,330961,401496
1630070119065,57950,330874,401511
1630070119075,57920,330853,401517
1630070119085,57886,330817,401466
1630070119095,57869,330860,401472
1630070119105,57848,330905,401440
1630070119115,57816,330912,401463
1630070119125,57804,330880,401450
1630070119135,57804,330869,401448
1630070119145,57800,330893,401452
1630070119155,57795,330893,401464
1630070119165,57815,330899,401475
1630070119175,57815,330925,401504
1630070119185,57825,330928,401527
1630070119195,57831,330908,401504
1630070119205,57840,330895,401529
1630070119215,57843,330885,401465
1630070119225,57851,330911,401513
1630070119235,57864,330965,401516
1630070119245,57866,330905,401501
1630070119255,57872,330951,401484
1630070119265,57878,330997,401527
1630070119275,57905,330981,401544
1630070119285,57923,330986,401556
1630070119295,57928,331002,401572
1630070119305,57942,330961,401544
1630070119315,57973,330960,401526
1630070119325,57991,331017,401524
1630070119335,58013,331125,401545
1630070119345,58041,331072,401595
1630070119355,58052,331070,401607
1630070119365,58084,331088,401633
1630070119375,58114,331126,401593
1630070119385,58141,331095,401652
1630070119395,58160,331144,401653
1630070119405,58207,331212,401662
1630070119415,58229,331138,401640
1630070119425,58272,331241,401673
1630070119435,58307,331216,401718
1630070119445,58323,331228,401653
1630070119455,58368,331259,401714
1630070119465,58398,331267,401725
1630070119475,58443,331313,401727
1630070119485,58473,331298,401761
1630070119495,58499,331391,401809
1630070119505,58549,331377,401777
1630070119515,58573,331431,401777
1630070119525,58593,331350,401804
1630070119535,58603,331362,401781
1630070119545,58591,331286,401768
1630070119555,58558,331249,401772
1630070119565,58498,331171,401721
1630070119575,58458,331146,401726
1630070119585,58421,331162,401678
1630070119595,58349,331137,401712
1630070119605,58318,331140,401631
1630070119615,58282,331093,401656
1630070119625,58247,331079,401663
1630070119635,58204,331061,401622
1630070119645,58165,331071,401607
1630070119655,58130,331009,401626
1630070119665,58092,330968,401610
1630070119675,58062,330973,401606
1630070119685,58035,330965,401597
1630070119695,58014,330934,401568
1630070119705,57982,330957,401584
1630070119715,57973,330963,401531
1630070119725,57940,330922,401542
1630070119735,57939,330953,401538
1630070119745,57936,330942,401532
1630070119755,57940,330985,401547
1630070119765,57942,331004,401605
1630070119775,57954,330996,401563
1630070119785,57955,330981,401585
1630070119795,57964,331019,401570
1630070119805,57959,331012,401584
1630070119815,57959,330999,401566
1630070119825,57961,330995,401602
1630070119835,57954,331018,401540
1630070119845,57960,330985,401560
1630070119855,57958,330971,401578
1630070119865,57967,330967,401592
1630070119875,57991,331055,401591
1630070119885,57995,331066,401604
1630070119895,58011,331051,401599
1630070119905,58030,331057,401645
1630070119915,58039,331059,401631
1630070119925,58059,331123,401653
1630070119935,58082,331116,401649
1630070119945,58099,331137,401627
1630070119955,58129,331172,401643
1630070119965,58151,331184,401690
1630070119975,58175,331144,401705
1630070119985,58195,331217,401733
1630070119995,58224,331226,401718
1630070120005,58254,331205,401722
1630070120015,58281,331283,401768
1630070120025,58316,331299,401768
1630070120035,58354,331334,401753
1630070120045,58392,331315,401827
1630070120055,58420,331350,401773
1630070120065,58446,331379,401803
1630070120075,58474,331399,401848
1630070120085,58514,331413,401811
1630070120095,58545,331486,401859
1630070120105,58588,331459,401866
1630070120115,58611,331462,401866
1630070120125,58634,331548,401901
1630070120135,58648,331514,401884
1630070120145,58655,331469,401929
1630070120155,58619,331432,401889
1630070120165,58570,331388,401920
1630070120175,58512,331352,401878
1630070120185,58452,331337,401852
1630070120195,58416,331277,401836
1630070120205,58353,331264,401852
1630070120215,58302,331232,401825
1630070120225,58268,331237,401815
1630070120235,58224,331182,401798
1630070120245,58178,331217,401788
1630070120255,58138,331133,401770
1630070120265,58108,331142,401781
1630070120275,58052,331134,401743
1630070120285,58013,331092,401703
1630070120295,57978,331134,401755
1630070120305,57948,331065,401738
1630070120315,57917,331064,401758
1630070120325,57883,331062,401719
1630070120335,57860,331025,401703
1630070120345,57857,331072,401700
1630070120355,57854,331084,401718
1630070120365,57841,331054,401719
1630070120375,57854,331117,401759
1630070120385,57852,331089,401762
1630070120395,57861,331108,401726
1630070120405,57853,331120,401742
1630070120415,57858,331136,401708
1630070120425,57865,331112,401735
1630070120435,57870,331058,401718
1630070120445,57858,331156,401721
1630070120455,57856,331141,401721
1630070120465,57878,331143,401815
1630070120475,57885,331148,401769
1630070120485,57895,331162,401796
1630070120495,57909,331127,401803
1630070120505,57924,331160,401786
1630070120515,57937,331163,401759
1630070120525,57958,331235,401765
1630070120535,57991,331163,401795
1630070120545,58002,331192,401809
1630070120555,58022,331245,401798
1630070120565,58047,331302,401846
1630070120575,58062,331274,401886
1630070120585,58093,331282,401824
1630070120595,58123,331320,401885
1630070120605,58146,331365,401881
1630070120615,58179,331393,401929
1630070120625,58211,331372,401921
1630070120635,58249,331383,401910
1630070120645,58280,331407,401937
1630070120655,58310,331430,401927
1630070120665,58345,331450,401926
1630070120675,58381,331512,401974
1630070120685,58416,331477,401997
1630070120695,58456,331506,402004
1630070120705,58492,331563,402027
1630070120715,58527,331538,402020
1630070120725,58570,331586,402010
1630070120735,58611,331628,402087
1630070120745,58635,331590,402060
1630070120755,58670,331648,402057
1630070120765,58679,331599,402031
1630070120775,58669,331579,402071
1630070120785,58648,331495,402033
1630070120795,58593,331510,402055
1630070120805,58534,331403,401972
1630070120815,58475,331323,401942
1630070120825,58415,331333,401952
1630070120835,58362,331358,401912
1630070120845,58306,331289,401897
1630070120855,58248,331253,401862
1630070120865,58197,331229,401861
1630070120875,58142,331166,401799
1630070120885,58090,331158,401779
1630070120895,58030,331173,401783
1630070120905,57985,331145,401785
1630070120915,57936,331070,401766
1630070120925,57893,331056,401754
1630070120935,57847,331036,401753
1630070120945,57804,331040,401765
1630070120955,57768,331006,401748
1630070120965,57734,331008,401734
1630070120975,57707,330997,401635
1630070120985,57678,330986,401695
1630070120995,57674,330988,401678
1630070121005,57676,331014,401718
1630070121015,57671,331057,401727
1630070121025,57663,331025,401682
1630070121035,57658,331026,401704
1630070121045,57653,331013,401733
1630070121055,57657,331050,401679
1630070121065,57645,331037,401758
1630070121075,57642,331042,401759
1630070121085,57649,331026,401677
1630070121095,57643,331052,401698
1630070121105,57647,331040,401706
1630070121115,57661,331045,401703
1630070121125,57666,331068,401724
1630070121135,57670,331083,401749
1630070121145,57679,331113,401753
1630070121155,57696,331148,401736
1630070121165,57701,331155,401747
1630070121175,57717,331177,401776
1630070121185,57746,331152,401775
1630070121195,57775,331125,401788
1630070121205,57779,331168,401787
1630070121215,57812,331243,401781
1630070121225,57832,331265,401811
1630070121235,57864,331237,401821
1630070121245,57888,331238,401861
1630070121255,57918,331262,401851
1630070121265,57946,331300,401898
1630070121275,57976,331296,401934
1630070121285,58004,331326,401882
1630070121295,58044,331369,401898
1630070121305,58072,331376,401938
1630070121315,58112,331397,401922
1630070121325,58145,331446,401956
1630070121335,58194,331423,401949
1630070121345,58224,331496,401980
1630070121355,58264,331475,401969
1630070121365,58290,331504,402000
1630070121375,58336,331530,401997
1630070121385,58374,331529,402016
1630070121395,58427,331585,402039
1630070121405,58456,331633,402019
1630070121415,58494,331594,402054
1630070121425,58505,331646,402051
1630070121435,58513,331527,402042
1630070121445,58473,331507,402008
1630070121455,58445,331459,402036
1630070121465,58384,331432,401967
1630070121475,58321,331381,401977
1630070121485,58266,331302,401956
1630070121495,58205,331290,401964
1630070121505,58148,331304,401924
1630070121515,58104,331220,401906
1630070121525,58064,331212,401918
1630070121535,58014,331230,401875
1630070121545,57970,331106,401848
1630070121555,57920,331109,401825
1630070121565,57866,331134,401843
1630070121575,57819,331091,401806
1630070121585,57773,331098,401829
1630070121595,57744,331048,401778
1630070121605,57711,331015,401828
1630070121615,57665,330995,401786
1630070121625,57631,331037,401773
1630070121635,57608,330979,401812
1630070121645,57584,330996,401795
1630070121655,57587,331064,401747
1630070121665,57596,331030,401792
1630070121675,57601,331065,401743
1630070121685,57586,331045,401767
1630070121695,57580,331028,401765
1630070121705,57588,331090,401748
1630070121715,57583,331065,401812
1630070121725,57573,331043,401781
1630070121735,57588,331064,401734
1630070121745,57588,331061,401760
1630070121755,57586,331048,401757
1630070121765,57588,331098,401779
1630070121775,57591,331044,401756
1630070121785,57608,331091,401768
1630070121795,57623,331121,401799
1630070121805,57636,331150,401809
1630070121815,57662,331090,401799
1630070121825,57669,331164,401819
1630070121835,57705,331169,401784
1630070121845,57718,331172,401802
1630070121855,57732,331191,401846
1630070121865,57760,331209,401850
1630070121875,57790,331217,401863
1630070121885,57812,331258,401874
1630070121895,57843,331206,401896
1630070121905,57868,331247,401877
1630070121915,57910,331297,401920
1630070121925,57938,331315,401905
1630070121935,57968,331349,401940
1630070121945,58009,331386,401927
1630070121955,58051,331352,401914
1630070121965,58087,331373,401995
1630070121975,58126,331442,402021
1630070121985,58163,331445,402003
1630070121995,58197,331467,402048
1630070122005,58248,331513,402036
1630070122015,58277,331484,402102
1630070122025,58324,331528,402114
1630070122035,58368,331560,402117
1630070122045,58404,331571,402092
1630070122055,58429,331614,402127
1630070122065,58470,331656,402132
1630070122075,58508,331656,402142
1630070122085,58552,331655,402189
1630070122095,58608,331673,402194
1630070122105,58641,331706,402211
1630070122115,58664,331707,402194
1630070122125,58673,331696,402250
1630070122135,58652,331642,402168
1630070122145,58606,331564,402145
1630070122155,58575,331524,402110
1630070122165,58516,331488,402121
1630070122175,58474,331450,402084
1630070122185,58420,331424,402086
1630070122195,58353,331379,402098
1630070122205,58323,331351,402052
1630070122215,58285,331376,402047
1630070122225,58230,331302,402033
1630070122235,58196,331319,402034
1630070122245,58164,331302,401992
1630070122255,58124,331263,401942
1630070122265,58089,331223,402004
1630070122275,58051,331290,401952
1630070122285,58032,331236,401954
1630070122295,58011,331268,402016
1630070122305,57986,331218,401934
1630070122315,57964,331179,401947
1630070122325,57960,331204,401959
1630070122335,57948,331257,401975
1630070122345,57939,331245,402003
1630070122355,57957,331232,401968
1630070122365,57965,331297,402011
1630070122375,57959,331252,401973
1630070122385,57959,331275,401979
1630070122395,57967,331308,402001
1630070122405,57967,331304,401988
1630070122415,57978,331277,401954
1630070122425,57980,331296,401975
1630070122435,57978,331288,401973
1630070122445,57997,331321,401978
1630070122455,58003,331327,401986
1630070122465,58016,331314,402040
1630070122475,58022,331342,402026
1630070122485,58027,331319,402010
1630070122495,58053,331339,402047
1630070122505,58059,331348,402034
1630070122515,58083,331349,402056
1630070122525,58107,331406,402073
1630070122535,58134,331415,402095
1630070122545,58158,331441,402084
1630070122555,58180,331454,402072
1630070122565,58205,331461,402124
1630070122575,58242,331500,402058
1630070122585,58264,331483,402102
1630070122595,58292,331523,402141
1630070122605,58328,331567,402172
1630070122615,58353,331585,402165
1630070122625,58397,331562,402176
1630070122635,58408,331634,402185
1630070122645,58468,331589,402170
1630070122655,58503,331656,402179
1630070122665,58540,331681,402251
1630070122675,58577,331690,402228
1630070122685,58598,331699,402257
1630070122695,58636,331771,402291
1630070122705,58671,331754,402281
1630070122715,58717,331770,402330
1630070122725,58745,331794,402301
1630070122735,58794,331813,402324
1630070122745,58833,331830,402362
1630070122755,58871,331824,402367
1630070122765,58906,331854,402347
1630070122775,58950,331855,402370
1630070122785,58978,331929,402379
1630070122795,59028,331892,402417
1630070122805,59057,331904,402391
1630070122815,59048,331848,402386
1630070122825,59038,331814,402368
1630070122835,59002,331810,402370
1630070122845,58940,331703,402293
1630070122855,58899,331725,402345
1630070122865,58853,331711,402275
1630070122875,58808,331650,402259
1630070122885,58772,331591,402272
1630070122895,58742,331615,402252
1630070122905,58707,331583,402238
1630070122915,58694,331583,402236
1630070122925,58664,331600,402272
1630070122935,58627,331571,402225
1630070122945,58615,331543,402247
1630070122955,58585,331540,402154
1630070122965,58569,331501,402232
1630070122975,58542,331523,402170
1630070122985,58518,331526,402221
1630070122995,58531,331482,402201
1630070123005,58519,331502,402225
1630070123015,58515,331573,402205
1630070123025,58522,331522,402236
1630070123035,58528,331555,402194
1630070123045,58536,331572,402197
1630070123055,58541,331588,402229
1630070123065,58552,331565,402235
1630070123075,58553,331570,402225
1630070123085,58564,331539,402261
1630070123095,58560,331602,402235
1630070123105,58575,331583,402226
1630070123115,58571,331611,402172
1630070123125,58584,331578,402235
1630070123135,58596,331598,402190
1630070123145,58592,331609,402202
1630070123155,58608,331595,402257
1630070123165,58611,331603,402193
1630070123175,58642,331635,402243
1630070123185,58654,331647,402240
1630070123195,58670,331696,402266
1630070123205,58693,331716,402258
1630070123215,58716,331699,402302
1630070123225,58737,331738,402267
1630070123235,58765,331713,402301
1630070123245,58788,331756,402305
1630070123255,58812,331774,402349
1630070123265,58847,331750,402356
1630070123275,58886,331810,402365
1630070123285,58917,331807,402376
1630070123295,58937,331815,402350
1630070123305,58977,331808,402378
1630070123315,58992,331858,402371
1630070123325,59042,331899,402433
1630070123335,59073,331918,402413
1630070123345,59110,331905,402424
1630070123355,59131,331950,402443
1630070123365,59171,331955,402491
1630070123375,59208,332014,402464
1630070123385,59234,331964,402469
1630070123395,59282,331999,402488
1630070123405,59312,332020,402514
1630070123415,59365,332040,402532
1630070123425,59398,332074,402505
1630070123435,59428,332121,402553
1630070123445,59461,332114,402558
1630070123455,59497,332098,402537
1630070123465,59517,332086,402561
1630070123475,59492,332073,402545
1630070123485,59461,332031,402455
1630070123495,59410,331923,402463
1630070123505,59355,331894,402446
1630070123515,59300,331875,402406
1630070123525,59255,331808,402413
1630070123535,59202,331807,402401
1630070123545,59167,331807,402398
1630070123555,59133,331754,402396
1630070123565,59088,331760,402374
1630070123575,59062,331767,402357
1630070123585,59020,331721,402364
1630070123595,59008,331673,402326
1630070123605,58980,331661,402338
1630070123615,58940,331681,402300
1630070123625,58924,331685,402324
1630070123635,58892,331630,402297
1630070123645,58869,331649,402331
1630070123655,58851,331669,402274
1630070123665,58853,331648,402289
1630070123675,58847,331653,402326
1630070123685,58847,331734,402286
1630070123695,58854,331710,402314
1630070123705,58867,331720,402275
1630070123715,58860,331734,402305
1630070123725,58862,331690,402288
1630070123735,58877,331728,402297
1630070123745,58869,331757,402292
1630070123755,58875,331725,402283
1630070123765,58876,331713,402280
1630070123775,58889,331745,402274
1630070123785,58874,331724,402322
1630070123795,58892,331751,402277
1630070123805,58893,331749,402276
1630070123815,58905,331751,402330
1630070123825,58909,331762,402328
1630070123835,58932,331757,402322
1630070123845,58948,331781,402316
1630070123855,58951,331795,402290
1630070123865,58981,331802,402378
1630070123875,59001,331849,402373
1630070123885,59011,331815,402336
1630070123895,59039,331863,402389
1630070123905,59069,331915,402389
1630070123915,59105,331903,402364
1630070123925,59131,331907,402385
1630070123935,59155,331936,402396
1630070123945,59175,331971,402437
1630070123955,59214,331985,402396
1630070123965,59245,331951,402390
1630070123975,59273,331953,402424
1630070123985,59300,332030,402449
1630070123995,59323,332068,402475
1630070124005,59361,332054,402456
1630070124015,59399,332084,402463
1630070124025,59422,332076,402520
1630070124035,59464,332072,402475
1630070124045,59494,332120,402492
1630070124055,59535,332148,402528
1630070124065,59568,332151,402536
1630070124075,59623,332181,402565
1630070124085,59656,332170,402612
1630070124095,59686,332224,402601
1630070124105,59730,332254,402615
1630070124115,59768,332275,402577
1630070124125,59772,332286,402575
1630070124135,59767,332166,402587
1630070124145,59755,332185,402559
1630070124155,59704,332069,402526
1630070124165,59645,332057,402482
1630070124175,59576,332006,402502
1630070124185,59527,332021,402465
1630070124195,59468,331935,402472
1630070124205,59426,331966,402438
1630070124215,59382,331912,402390
1630070124225,59322,331876,402409
1630070124235,59291,331802,402370
1630070124245,59230,331797,402389
1630070124255,59195,331820,402391
1630070124265,59148,331784,402316
1630070124275,59102,331756,402291
1630070124285,59057,331698,402333
1630070124295,59027,331701,402273
1630070124305,58993,331667,402321
1630070124315,58947,331709,402236
1630070124325,58921,331662,402240
1630070124335,58898,331708,402232
1630070124345,58888,331659,402240
1630070124355,58881,331726,402211
1630070124365,58876,331752,402218
1630070124375,58876,331723,402271
1630070124385,58868,331688,402285
1630070124395,58873,331699,402257
1630070124405,58872,331692,402292
1630070124415,58871,331687,402270
1630070124425,58865,331726,402245
1630070124435,58875,331716,402237
1630070124445,58863,331737,402257
1630070124455,58859,331725,402269
1630070124465,58866,331673,402244
1630070124475,58852,331699,402243
1630070124485,58862,331762,402220
1630070124495,58863,331741,402223
1630070124505,58872,331741,402231
1630070124515,58886,331742,402231
1630070124525,58899,331735,402257
1630070124535,58925,331782,402257
1630070124545,58940,331808,402276
1630070124555,58972,331799,402254
1630070124565,58991,331788,402279
1630070124575,59009,331868,402262
1630070124585,59027,331850,402325
1630070124595,59064,331830,402308
1630070124605,59083,331912,402319
1630070124615,59116,331950,402322
1630070124625,59131,331938,402363
1630070124635,59167,331900,402363
1630070124645,59205,331939,402391
1630070124655,59233,331981,402377
1630070124665,59256,331995,402411
1630070124675,59288,332027,402389
1630070124685,59330,332010,402386
1630070124695,59350,332033,402444
1630070124705,59402,332079,402424
1630070124715,59438,332113,402457
1630070124725,59468,332130,402481
1630070124735,59500,332116,402451
1630070124745,59548,332148,402489
1630070124755,59595,332153,402522
1630070124765,59635,332213,402522
1630070124775,59675,332199,402545
1630070124785,59705,332251,402512
1630070124795,59721,332215,402536
1630070124805,59737,332227,402529
1630070124815,59723,332107,402560
1630070124825,59701,332129,402460
1630070124835,59651,332076,402418
1630070124845,59589,332005,402424
1630070124855,59529,331976,402402
1630070124865,59480,331893,402383
1630070124875,59416,331926,402379
1630070124885,59370,331928,402373
1630070124895,59317,331891,402334
1630070124905,59281,331835,402346
1630070124915,59221,331853,402259
1630070124925,59190,331832,402305
1630070124935,59142,331788,402241
1630070124945,59107,331765,402290
1630070124955,59074,331757,402255
1630070124965,59038,331737,402272
1630070124975,59008,331757,402212
1630070124985,58974,331679,402227
1630070124995,58952,331740,402203
1630070125005,58927,331693,402203
1630070125015,58913,331712,402220
1630070125025,58915,331749,402201
1630070125035,58921,331751,402224
1630070125045,58948,331730,402249
1630070125055,58941,331747,402241
1630070125065,58927,331814,402258
1630070125075,58939,331770,402233
1630070125085,58931,331741,402247
1630070125095,58943,331795,402261
1630070125105,58947,331795,402232
1630070125115,58953,331801,402250
1630070125125,58941,331801,402267
1630070125135,58951,331770,402263
1630070125145,58961,331774,402265
1630070125155,58950,331805,402269
1630070125165,58964,331791,402270
1630070125175,58971,331757,402252
1630070125185,58988,331850,402280
1630070125195,58999,331836,402300
1630070125205,59023,331838,402267
1630070125215,59050,331873,402339
1630070125225,59074,331890,402342
1630070125235,59098,331921,402300
1630070125245,59126,331907,402331
1630070125255,59142,331974,402360
1630070125265,59185,331951,402373
1630070125275,59215,331943,402372
1630070125285,59229,332005,402392
1630070125295,59267,332024,402407
1630070125305,59281,332057,402436
1630070125315,59321,332075,402419
1630070125325,59366,332085,402452
1630070125335,59390,332101,402457
1630070125345,59425,332088,402451
1630070125355,59462,332124,402470
1630070125365,59497,332154,402480
1630070125375,59538,332134,402488
1630070125385,59566,332168,402533
1630070125395,59603,332162,402500
1630070125405,59647,332272,402547
1630070125415,59686,332232,402585
1630070125425,59712,332241,402611
1630070125435,59758,332281,402584
1630070125445,59784,332289,402609
1630070125455,59834,332323,402583
1630070125465,59860,332359,402636
1630070125475,59874,332339,402618
1630070125485,59892,332259,402609
1630070125495,59876,332226,402592
1630070125505,59828,332224,402529
1630070125515,59782,332169,402518
1630070125525,59720,332136,402490
1630070125535,59675,332085,402477
1630070125545,59617,332032,402485
1630070125555,59556,332023,402446
1630070125565,59514,332007,402417
1630070125575,59477,331949,402418
1630070125585,59431,331966,402390
1630070125595,59399,331938,402370
1630070125605,59362,331914,402396
1630070125615,59327,331904,402385
1630070125625,59291,331848,402398
1630070125635,59256,331882,402390
1630070125645,59227,331860,402349
1630070125655,59209,331864,402356
1630070125665,59205,331848,402324
1630070125675,59192,331876,402291
1630070125685,59172,331889,402318
1630070125695,59157,331895,402263
1630070125705,59163,331853,402310
1630070125715,59174,331883,402340
1630070125725,59163,331887,402275
1630070125735,59178,331887,402272
1630070125745,59155,331908,402284
1630070125755,59153,331890,402272
1630070125765,59159,331883,402293
1630070125775,59154,331898,402319
1630070125785,59157,331949,402314
1630070125795,59157,331865,402314
1630070125805,59160,331901,402282
1630070125815,59162,331974,402287
1630070125825,59173,331946,402273
1630070125835,59174,331988,402299
1630070125845,59186,331959,402332
1630070125855,59204,331966,402339
1630070125865,59221,332009,402361
1630070125875,59244,331987,402341
1630070125885,59256,332033,402350
1630070125895,59264,332014,402291
1630070125905,59291,332034,402363
1630070125915,59306,332020,402368
1630070125925,59330,332068,402361
1630070125935,59348,332086,402435
1630070125945,59369,332093,402455
1630070125955,59400,332099,402427
1630070125965,59433,332108,402453
1630070125975,59448,332122,402476
1630070125985,59477,332161,402499
1630070125995,59510,332152,402430
1630070126005,59547,332219,402434
1630070126015,59591,332191,402494
1630070126025,59622,332213,402517
1630070126035,59647,332222,402536
1630070126045,59688,332231,402529
1630070126055,59701,332343,402459
1630070126065,59746,332355,402490
1630070126075,59776,332354,402529
1630070126085,59811,332381,402492
1630070126095,59837,332388,402511
1630070126105,59870,332404,402531
1630070126115,59892,332401,402485
1630070126125,59912,332418,402516
1630070126135,59908,332367,402539
1630070126145,59865,332265,402469
1630070126155,59822,332223,402418
1630070126165,59753,332214,402426
1630070126175,59702,332155,402424
1630070126185,59643,332137,402378
1630070126195,59582,332084,402376
1630070126205,59545,332069,402305
1630070126215,59495,332043,402294
1630070126225,59452,332031,402312
1630070126235,59413,332008,402228
1630070126245,59367,332009,402222
1630070126255,59344,332007,402224
1630070126265,59309,331921,402225
1630070126275,59267,331924,402178
1630070126285,59232,331942,402173
1630070126295,59212,331893,402143
1630070126305,59184,331907,402149
1630070126315,59165,331915,402104
1630070126325,59158,331963,402134
1630070126335,59150,331898,402152
1630070126345,59146,331926,402136
1630070126355,59153,331943,402115
1630070126365,59142,331915,402163
1630070126375,59164,331939,402111
1630070126385,59151,331894,402137
1630070126395,59147,331948,402059
1630070126405,59141,331964,402073
1630070126415,59150,331950,402113
1630070126425,59143,331921,402063
1630070126435,59137,331984,402073
1630070126445,59142,332018,402093
1630070126455,59145,332005,402093
1630070126465,59136,331977,402028
1630070126475,59136,331999,402055
1630070126485,59150,332025,402098
1630070126495,59161,332006,402051
1630070126505,59178,332021,402102
1630070126515,59181,332066,402089
1630070126525,59197,332060,402053
1630070126535,59208,332092,402035
1630070126545,59228,332093,402079
1630070126555,59252,332112,402128
1630070126565,59270,332121,402105
1630070126575,59292,332115,402112
1630070126585,59308,332133,402137
1630070126595,59333,332122,402156
1630070126605,59364,332104,402174
1630070126615,59387,332146,402121
1630070126625,59419,332170,402156
1630070126635,59444,332173,402180
1630070126645,59467,332218,402156
1630070126655,59505,332216,402171
1630070126665,59541,332229,402207
1630070126675,59567,332274,402213
1630070126685,59591,332277,402174
1630070126695,59633,332303,402199
1630070126705,59663,332315,402243
1630070126715,59706,332347,402242
1630070126725,59732,332371,402222
1630070126735,59772,332371,402281
1630070126745,59797,332381,402259
1630070126755,59821,332411,402253
1630070126765,59848,332376,402262
1630070126775,59852,332374,402257
1630070126785,59821,332321,402219
1630070126795,59789,332241,402225
1630070126805,59731,332215,402185
1630070126815,59663,332176,402141
1630070126825,59610,332122,402092
1630070126835,59547,332063,402109
1630070126845,59481,332006,402061
1630070126855,59432,332000,402057
1630070126865,59375,331965,402022
1630070126875,59310,331923,402035
1630070126885,59265,331928,401984
1630070126895,59190,331888,401941
1630070126905,59140,331849,401946
1630070126915,59093,331812,401950
1630070126925,59038,331843,401933
1630070126935,58988,331788,402000
1630070126945,58929,331783,402012
1630070126955,58888,331748,402001
1630070126965,58840,331739,402023
1630070126975,58808,331750,402060
1630070126985,58778,331700,402057
1630070126995,58775,331678,402024
1630070127005,58746,331697,402128
1630070127015,58732,331631,402097
1630070127025,58721,331685,402118
1630070127035,58719,331668,402163
1630070127045,58698,331649,402154
1630070127055,58691,331656,402180
1630070127065,58674,331670,402092
1630070127075,58653,331623,402140
1630070127085,58649,331599,402149
1630070127095,58632,331607,402146
1630070127105,58628,331619,402175
1630070127115,58624,331653,402111
1630070127125,58622,331646,402197
1630070127135,58627,331634,402159
1630070127145,58646,331632,402182
1630070127155,58638,331655,402190
1630070127165,58636,331648,402222
1630070127175,58655,331666,402174
1630070127185,58670,331671,402258
1630070127195,58678,331706,402204
1630070127205,58692,331691,402224
1630070127215,58710,331698,402244
1630070127225,58726,331723,402198
1630070127235,58739,331747,402242
1630070127245,58760,331754,402251
1630070127255,58780,331756,402270
1630070127265,58806,331781,402242
1630070127275,58828,331823,402254
1630070127285,58851,331824,402312
1630070127295,58880,331832,402295
1630070127305,58921,331788,402343
1630070127315,58939,331916,402280
1630070127325,58980,331890,402310
1630070127335,58995,331923,402322
1630070127345,59017,331904,402344
1630070127355,59057,331933,402364
1630070127365,59087,331962,402421
1630070127375,59123,331954,402388
1630070127385,59148,331955,402378
1630070127395,59173,331966,402401
1630070127405,59192,331995,402422
1630070127415,59212,331961,402423
1630070127425,59197,331950,402403
1630070127435,59167,331926,402397
1630070127445,59130,331852,402318
1630070127455,59061,331781,402329
1630070127465,59007,331677,402260
1630070127475,58925,331711,402234
1630070127485,58875,331659,402289
1630070127495,58814,331642,402237
1630070127505,58772,331600,402209
1630070127515,58707,331536,402194
1630070127525,58657,331507,402167
1630070127535,58594,331501,402156
1630070127545,58537,331522,402168
1630070127555,58491,331439,402096
1630070127565,58437,331430,402120
1630070127575,58387,331400,402078
1630070127585,58345,331400,402091
1630070127595,58307,331292,402047
1630070127605,58270,331382,402018
1630070127615,58240,331378,402014
1630070127625,58214,331328,402054
1630070127635,58213,331339,402028
1630070127645,58192,331362,402038
1630070127655,58172,331370,402067
1630070127665,58181,331280,402021
1630070127675,58172,331351,402016
1630070127685,58165,331288,402055
1630070127695,58140,331297,402020
1630070127705,58143,331294,402018
1630070127715,58117,331316,401991
1630070127725,58124,331314,402018
1630070127735,58112,331301,402020
1630070127745,58108,331291,402003
1630070127755,58088,331349,402027
1630070127765,58085,331282,402009
1630070127775,58082,331305,402005
1630070127785,58088,331318,402025
1630070127795,58099,331293,402064
1630070127805,58098,331324,401990
1630070127815,58126,331326,402024
1630070127825,58134,331311,402006
1630070127835,58141,331354,402016
1630070127845,58168,331333,402027
1630070127855,58180,331347,402037
1630070127865,58203,331366,402055
1630070127875,58209,331413,402042
1630070127885,58223,331407,402092
1630070127895,58240,331414,402057
1630070127905,58275,331449,402105
1630070127915,58294,331424,402083
1630070127925,58305,331440,402064
1630070127935,58337,331478,402079
1630070127945,58370,331489,402092
1630070127955,58403,331501,402108
1630070127965,58423,331503,402106
1630070127975,58451,331521,402111
1630070127985,58471,331539,402120
1630070127995,58506,331546,402149
1630070128005,58531,331595,402168
1630070128015,58559,331608,402187
1630070128025,58583,331607,402212
1630070128035,58616,331644,402200
1630070128045,58641,331590,402199
1630070128055,58669,331652,402197
1630070128065,58675,331626,402214
1630070128075,58661,331587,402171
1630070128085,58628,331531,402148
1630070128095,58571,331469,402130
1630070128105,58507,331438,402069
1630070128115,58442,331369,402036
1630070128125,58386,331355,402026
1630070128135,58338,331304,402014
1630070128145,58275,331269,402007
1630070128155,58227,331214,401993
1630070128165,58177,331241,401951
1630070128175,58138,331169,401962
1630070128185,58089,331156,401913
1630070128195,58038,331152,401933
1630070128205,58002,331143,401893
1630070128215,57961,331116,401941
1630070128225,57920,331092,401879
1630070128235,57888,331106,401859
1630070128245,57853,331062,401860
1630070128255,57811,331049,401844
1630070128265,57790,331063,401819
1630070128275,57793,331055,401821
1630070128285,57764,331069,401836
1630070128295,57777,331030,401818
1630070128305,57759,331008,401839
1630070128315,57755,331035,401848
1630070128325,57759,331030,401829
1630070128335,57728,331093,401825
1630070128345,57712,331011,401859
1630070128355,57706,330996,401803
1630070128365,57698,331004,401811
1630070128375,57678,331004,401806
1630070128385,57672,331000,401836
1630070128395,57655,331056,401818
1630070128405,57662,331036,401835
1630070128415,57660,331010,401810
1630070128425,57649,330982,401834
1630070128435,57653,331023,401818
1630070128445,57666,331054,401836
1630070128455,57676,330999,401830
1630070128465,57678,331047,401781
1630070128475,57690,331064,401870
1630070128485,57712,331042,401811
1630070128495,57717,331059,401840
1630070128505,57728,331034,401846
1630070128515,57743,331121,401848
1630070128525,57774,331062,401907
1630070128535,57803,331124,401867
1630070128545,57794,331105,401935
1630070128555,57823,331135,401844
1630070128565,57840,331178,401859
1630070128575,57856,331172,401951
1630070128585,57890,331176,401909
1630070128595,57907,331152,401948
1630070128605,57939,331221,401928
1630070128615,57952,331287,401941
1630070128625,57986,331219,401936
1630070128635,58000,331250,401924
1630070128645,58003,331310,401944
1630070128655,58033,331301,401958
1630070128665,58068,331289,401942
1630070128675,58093,331343,401931
1630070128685,58100,331312,401967
1630070128695,58111,331321,401957
1630070128705,58085,331309,401907
1630070128715,58029,331195,401878
1630070128725,57971,331152,401866
1630070128735,57914,331093,401856
1630070128745,57839,331049,401870
1630070128755,57789,330991,401787
1630070128765,57720,330986,401793
1630070128775,57676,330966,401781
1630070128785,57629,330906,401791
1630070128795,57573,330895,401737
1630070128805,57512,330890,401726
1630070128815,57472,330831,401715
1630070128825,57420,330831,401705
1630070128835,57394,330802,401680
1630070128845,57343,330782,401643
1630070128855,57297,330790,401648
1630070128865,57271,330792,401636
1630070128875,57233,330727,401660
1630070128885,57209,330720,401654
1630070128895,57188,330716,401632
1630070128905,57190,330797,401666
1630070128915,57190,330735,401627
1630070128925,57196,330748,401641
1630070128935,57178,330755,401658
1630070128945,57166,330758,401648
1630070128955,57160,330733,401653
1630070128965,57157,330763,401692
1630070128975,57152,330745,401667
1630070128985,57134,330704,401645
1630070128995,57111,330759,401623
1630070129005,57124,330740,401638
1630070129015,57125,330759,401646
1630070129025,57114,330767,401669
1630070129035,57122,330795,401643
1630070129045,57114,330775,401676
1630070129055,57122,330723,401610
1630070129065,57133,330778,401674
1630070129075,57148,330787,401672
1630070129085,57161,330845,401704
1630070129095,57185,330848,401649
1630070129105,57197,330827,401687
1630070129115,57218,330865,401719
1630070129125,57236,330858,401682
1630070129135,57263,330874,401713
1630070129145,57282,330907,401725
1630070129155,57318,330942,401720
1630070129165,57332,330891,401704
1630070129175,57340,330953,401718
1630070129185,57374,330966,401739
1630070129195,57411,330965,401741
1630070129205,57437,330948,401804
1630070129215,57464,331006,401812
1630070129225,57486,331078,401801
1630070129235,57522,331013,401804
1630070129245,57549,331058,401849
1630070129255,57597,331111,401865
1630070129265,57633,331138,401881
1630070129275,57652,331149,401855
1630070129285,57693,331145,401929
1630070129295,57721,331184,401913
1630070129305,57756,331209,401934
1630070129315,57783,331171,401938
1630070129325,57815,331197,401974
1630070129335,57827,331174,401971
1630070129345,57804,331100,401913
1630070129355,57757,331115,401905
1630070129365,57697,331018,401855
1630070129375,57624,330940,401847
1630070129385,57556,330898,401783
1630070129395,57491,330861,401826
1630070129405,57434,330827,401738
1630070129415,57361,330762,401719
1630070129425,57316,330751,401761
1630070129435,57273,330787,401697
1630070129445,57199,330746,401669
1630070129455,57138,330666,401632
1630070129465,57072,330643,401634
1630070129475,57027,330634,401638
1630070129485,56969,330599,401620
1630070129495,56916,330551,401635
1630070129505,56862,330513,401568
1630070129515,56810,330504,401572
1630070129525,56766,330504,401544
1630070129535,56726,330464,401551
1630070129545,56706,330469,401563
1630070129555,56688,330489,401544
1630070129565,56683,330473,401522
1630070129575,56662,330469,401550
1630070129585,56664,330489,401544
1630070129595,56639,330488,401530
1630070129605,56646,330473,401507
1630070129615,56634,330501,401558
1630070129625,56623,330485,401519
1630070129635,56608,330490,401468
1630070129645,56607,330448,401499
1630070129655,56596,330489,401499
1630070129665,56592,330454,401499
1630070129675,56584,330475,401533
1630070129685,56596,330473,401556
1630070129695,56592,330473,401564
1630070129705,56601,330527,401551
1630070129715,56607,330505,401536
1630070129725,56621,330536,401550
1630070129735,56644,330548,401546
1630070129745,56651,330537,401553
1630070129755,56664,330538,401593
1630070129765,56677,330591,401598
1630070129775,56705,330593,401645
1630070129785,56722,330579,401630
1630070129795,56739,330594,401633
1630070129805,56763,330649,401629
1630070129815,56793,330663,401674
1630070129825,56828,330657,401676
1630070129835,56847,330711,401662
1630070129845,56888,330689,401708
1630070129855,56913,330712,401743
1630070129865,56936,330760,401728
1630070129875,56970,330792,401759
1630070129885,57007,330776,401733
1630070129895,57040,330867,401764
1630070129905,57077,330851,401787
1630070129915,57105,330851,401819
1630070129925,57145,330959,401854
1630070129935,57185,330907,401828
1630070129945,57221,330908,401868
1630070129955,57247,330979,401867
1630070129965,57299,330975,401867
1630070129975,57322,331043,401884
1630070129985,57356,330996,401890
1630070129995,57359,330995,401898
1630070130005,57351,330932,401888
1630070130015,57318,330938,401893
1630070130025,57275,330827,401806
1630070130035,57216,330781,401818
1630070130045,57150,330747,401778
1630070130055,57105,330717,401768
1630070130065,57042,330669,401797
1630070130075,56985,330685,401772
1630070130085,56948,330650,401736
1630070130095,56897,330634,401722
1630070130105,56856,330587,401709
1630070130115,56815,330557,401735
1630070130125,56769,330548,401686
1630070130135,56737,330479,401698
1630070130145,56694,330508,401656
1630070130155,56636,330469,401634
1630070130165,56594,330511,401667
1630070130175,56566,330446,401669
1630070130185,56534,330468,401671
1630070130195,56518,330463,401659
1630070130205,56512,330478,401660
1630070130215,56508,330501,401674
1630070130225,56504,330480,401669
1630070130235,56511,330537,401752
1630070130245,56522,330505,401738
1630070130255,56518,330503,401755
1630070130265,56526,330563,401761
1630070130275,56526,330557,401732
1630070130285,56538,330535,401739
1630070130295,56534,330516,401714
1630070130305,56544,330538,401712
1630070130315,56543,330568,401773
1630070130325,56548,330546,401740
1630070130335,56566,330571,401753
1630070130345,56581,330558,401798
1630070130355,56592,330582,401790
1630070130365,56597,330602,401812
1630070130375,56627,330641,401805
1630070130385,56635,330653,401815
1630070130395,56664,330669,401844
1630070130405,56694,330657,401833
1630070130415,56723,330675,401859
1630070130425,56727,330683,401853
1630070130435,56760,330693,401905
1630070130445,56804,330763,401929
1630070130455,56820,330725,401953
1630070130465,56837,330769,402006
1630070130475,56883,330855,401966
1630070130485,56916,330854,401986
1630070130495,56953,330866,402005
1630070130505,56984,330864,401987
1630070130515,57025,330894,402037
1630070130525,57055,330907,402068
1630070130535,57094,330948,402052
1630070130545,57138,330993,402086
1630070130555,57179,331032,402143
1630070130565,57223,331015,402177
1630070130575,57264,331039,402136
1630070130585,57294,331031,402171
1630070130595,57337,331031,402201
1630070130605,57376,331123,402241
1630070130615,57417,331102,402283
1630070130625,57451,331131,402283
1630070130635,57492,331191,402318
1630070130645,57541,331177,402340
1630070130655,57576,331194,402305
1630070130665,57621,331241,402359
1630070130675,57656,331229,402327
1630070130685,57672,331199,402349
1630070130695,57679,331179,402348
1630070130705,57649,331204,402352
1630070130715,57614,331107,402290
1630070130725,57560,331071,402292
1630070130735,57499,331027,402239
1630070130745,57441,330968,402233
1630070130755,57397,330959,402207
1630070130765,57360,330914,402234
1630070130775,57313,330913,402182
1630070130785,57278,330855,402178
1630070130795,57241,330868,402202
1630070130805,57196,330845,402207
1630070130815,57163,330814,402115
1630070130825,57130,330801,402134
1630070130835,57100,330831,402196
1630070130845,57078,330837,402157
1630070130855,57056,330799,402142
1630070130865,57038,330776,402144
1630070130875,57005,330753,402155
1630070130885,57004,330813,402165
1630070130895,56992,330770,402136
1630070130905,56988,330820,402169
1630070130915,56982,330814,402130
1630070130925,56996,330819,402153
1630070130935,57006,330792,402173
1630070130945,57006,330856,402146
1630070130955,57009,330847,402163
1630070130965,57003,330767,402187
1630070130975,57001,330861,402157
1630070130985,56999,330798,402165
1630070130995,57006,330792,402181
1630070131005,57013,330836,402152
1630070131015,57019,330824,402187
1630070131025,57035,330851,402206
1630070131035,57050,330858,402236
1630070131045,57069,330894,402213
1630070131055,57077,330903,402251
1630070131065,57086,330937,402220
1630070131075,57102,330928,402259
1630070131085,57126,330928,402290
1630070131095,57147,330920,402273
1630070131105,57183,330993,402325
1630070131115,57198,331003,402277
1630070131125,57226,331021,402384
1630070131135,57252,330993,402352
1630070131145,57298,331062,402350
1630070131155,57333,331063,402365
1630070131165,57364,331097,402431
1630070131175,57393,331109,402375
1630070131185,57419,331120,402446
1630070131195,57449,331146,402466
1630070131205,57484,331205,402481
1630070131215,57503,331163,402482
1630070131225,57568,331245,402483
1630070131235,57598,331234,402506
1630070131245,57630,331294,402529
1630070131255,57655,331291,402524
1630070131265,57689,331304,402537
1630070131275,57720,331326,402562
1630070131285,57756,331335,402557
1630070131295,57805,331350,402607
1630070131305,57844,331409,402619
1630070131315,57888,331427,402669
1630070131325,57917,331416,402658
1630070131335,57953,331453,402659
1630070131345,57983,331440,402669
1630070131355,58008,331425,402674
1630070131365,57999,331378,402652
1630070131375,57968,331330,402668
1630070131385,57930,331332,402594
1630070131395,57860,331248,402600
1630070131405,57808,331261,402563
1630070131415,57757,331170,402558
1630070131425,57712,331158,402548
1630070131435,57673,331172,402496
1630070131445,57638,331092,402554
1630070131455,57596,331135,402506
1630070131465,57578,331157,402538
1630070131475,57540,331095,402505
1630070131485,57512,331107,402491
1630070131495,57492,331081,402475
1630070131505,57467,331082,402502
1630070131515,57436,331076,402465
1630070131525,57411,331044,402475
1630070131535,57407,331012,402462
1630070131545,57393,331081,402494
1630070131555,57388,331071,402460
1630070131565,57399,331109,402506
1630070131575,57397,331095,402478
1630070131585,57404,331070,402464
1630070131595,57402,331137,402495
1630070131605,57411,331117,402488
1630070131615,57409,331104,402491
1630070131625,57419,331104,402516
1630070131635,57420,331154,402506
1630070131645,57428,331109,402584
1630070131655,57427,331140,402498
1630070131665,57430,331152,402547
1630070131675,57453,331148,402525
1630070131685,57469,331168,402572
1630070131695,57468,331129,402538
1630070131705,57489,331175,402536
1630070131715,57495,331148,402571
1630070131725,57512,331219,402585
1630070131735,57544,331241,402582
1630070131745,57556,331253,402591
1630070131755,57585,331235,402595
1630070131765,57609,331270,402621
1630070131775,57625,331339,402628
1630070131785,57656,331299,402600
1630070131795,57686,331366,402639
1630070131805,57714,331357,402703
1630070131815,57756,331399,402687
1630070131825,57786,331387,402724
1630070131835,57813,331457,402715
1630070131845,57865,331448,402727
1630070131855,57889,331475,402742
1630070131865,57944,331532,402763
1630070131875,57973,331532,402781
1630070131885,57997,331568,402822
1630070131895,58041,331565,402806
1630070131905,58075,331570,402810
1630070131915,58126,331605,402820
1630070131925,58142,331649,402824
1630070131935,58199,331654,402867
1630070131945,58236,331698,402895
1630070131955,58265,331776,402876
1630070131965,58304,331732,402939
1630070131975,58349,331747,402932
1630070131985,58394,331808,402933
1630070131995,58429,331780,402972
1630070132005,58475,331766,402983
1630070132015,58506,331849,403001
1630070132025,58548,331832,403000
1630070132035,58547,331755,403007
1630070132045,58510,331758,402933
1630070132055,58470,331681,402960
1630070132065,58431,331677,402914
1630070132075,58372,331628,402921
1630070132085,58320,331536,402881
1630070132095,58267,331584,402866
1630070132105,58209,331550,402838
1630070132115,58180,331462,402837
1630070132125,58120,331499,402827
1630070132135,58064,331491,402803
1630070132145,58036,331474,402850
1630070132155,57987,331398,402793
1630070132165,57961,331419,402842
1630070132175,57908,331382,402769
1630070132185,57867,331370,402792
1630070132195,57827,331336,402713
1630070132205,57802,331362,402743
1630070132215,57743,331374,402741
1630070132225,57735,331336,402771
1630070132235,57713,331332,402788
1630070132245,57695,331349,402766
1630070132255,57690,331387,402721
1630070132265,57689,331337,402753
1630070132275,57685,331379,402756
1630070132285,57694,331366,402745
1630070132295,57696,331394,402730
1630070132305,57692,331396,402685
1630070132315,57702,331435,402750
1630070132325,57706,331426,402751
1630070132335,57705,331418,402772
1630070132345,57718,331416,402791
1630070132355,57712,331455,402764
1630070132365,57723,331407,402801
1630070132375,57726,331446,402800
1630070132385,57730,331430,402784
1630070132395,57750,331474,402793
1630070132405,57773,331499,402835
1630070132415,57788,331485,402819
1630070132425,57806,331512,402871
1630070132435,57822,331516,402833
1630070132445,57842,331555,402844
1630070132455,57861,331574,402891
1630070132465,57889,331572,402830
1630070132475,57912,331570,402884
1630070132485,57947,331608,402892
1630070132495,57965,331628,402878
1630070132505,58003,331655,402915
1630070132515,58047,331655,402897
1630070132525,58070,331702,402971
1630070132535,58115,331759,402949
1630070132545,58134,331742,402949
1630070132555,58172,331768,403004
1630070132565,58202,331801,403013
1630070132575,58246,331849,403022
1630070132585,58273,331874,403047
1630070132595,58308,331878,403047
1630070132605,58348,331908,403099
1630070132615,58390,331892,403115
1630070132625,58429,331914,403080
1630070132635,58462,331921,403120
1630070132645,58515,331967,403138
1630070132655,58553,331994,403134
1630070132665,58582,331975,403129
1630070132675,58633,332065,403219
1630070132685,58674,332041,403222
1630070132695,58715,332092,403216
1630070132705,58756,332085,403212
1630070132715,58796,332076,403231
1630070132725,58812,332099,403217
1630070132735,58814,332127,403240
1630070132745,58797,332045,403181
1630070132755,58754,331997,403202
1630070132765,58706,331941,403143
1630070132775,58657,331897,403157
1630070132785,58601,331866,403142
1630070132795,58551,331887,403118
1630070132805,58497,331844,403093
1630070132815,58465,331833,403061
1630070132825,58426,331782,403083
1630070132835,58388,331808,403089
1630070132845,58350,331813,403062
1630070132855,58309,331724,403039
1630070132865,58277,331747,403031
1630070132875,58236,331689,403055
1630070132885,58206,331672,402967
1630070132895,58177,331690,403027
1630070132905,58139,331681,403008
1630070132915,58118,331692,403033
1630070132925,58086,331667,402980
1630070132935,58073,331672,403016
1630070132945,58064,331681,402987
1630070132955,58059,331705,402948
1630070132965,58057,331752,402963
1630070132975,58067,331687,403007
1630070132985,58086,331739,402992
1630070132995,58079,331781,402963
1630070133005,58090,331702,402992
1630070133015,58084,331726,403033
1630070133025,58101,331743,403023
1630070133035,58087,331730,403021
1630070133045,58104,331726,403043
1630070133055,58106,331723,403001
1630070133065,58111,331780,403010
1630070133075,58115,331773,403033
1630070133085,58129,331754,403030
1630070133095,58150,331772,403066
1630070133105,58171,331862,403058
1630070133115,58183,331815,403077
1630070133125,58209,331846,403087
1630070133135,58220,331808,403070
1630070133145,58255,331852,403074
1630070133155,58276,331877,403135
1630070133165,58320,331917,403122
1630070133175,58346,331926,403148
1630070133185,58368,331910,403155
1630070133195,58413,331972,403167
1630070133205,58445,331972,403145
1630070133215,58466,332018,403198
1630070133225,58503,332016,403186
1630070133235,58540,332015,403202
1630070133245,58573,332038,403196
1630070133255,58606,332049,403333
1630070133265,58642,332099,403293
1630070133275,58685,332128,403271
1630070133285,58724,332152,403310
1630070133295,58758,332187,403278
1630070133305,58800,332169,403356
1630070133315,58850,332194,403322
1630070133325,58887,332249,403383
1630070133335,58930,332266,403398
1630070133345,58957,332259,403417
1630070133355,59005,332308,403398
1630070133365,59045,332291,403437
1630070133375,59088,332364,403457
1630070133385,59120,332387,403494
1630070133395,59164,332409,403471
1630070133405,59216,332414,403482
1630070133415,59252,332459,403563
1630070133425,59301,332459,403547
1630070133435,59338,332495,403555
1630070133445,59375,332504,403560
1630070133455,59388,332462,403538
1630070133465,59375,332474,403531
1630070133475,59361,332367,403527
1630070133485,59304,332405,403519
1630070133495,59257,332340,403483
1630070133505,59205,332263,403431
1630070133515,59160,332243,403409
1630070133525,59107,332210,403410
1630070133535,59071,332219,403400
1630070133545,59030,332162,403376
1630070133555,58997,332183,403381
1630070133565,58973,332177,403409
1630070133575,58942,332160,403312
1630070133585,58909,332098,403389
1630070133595,58884,332131,403337
1630070133605,58859,332125,403343
1630070133615,58837,332063,403293
1630070133625,58826,332125,403285
1630070133635,58782,332066,403281
1630070133645,58780,332098,403323
1630070133655,58765,332116,403358
1630070133665,58765,332119,403313
1630070133675,58768,332125,403332
1630070133685,58779,332081,403330
1630070133695,58778,332138,403322
1630070133705,58781,332108,403329
1630070133715,58784,332118,403359
1630070133725,58785,332155,403358
1630070133735,58793,332134,403343
1630070133745,58787,332118,403366
1630070133755,58795,332142,403354
1630070133765,58802,332159,403288
1630070133775,58801,332163,403314
1630070133785,58807,332163,403379
1630070133795,58817,332135,403333
1630070133805,58823,332189,403344
1630070133815,58847,332234,403344
1630070133825,58846,332225,403359
1630070133835,58865,332232,403379
1630070133845,58890,332233,403433
1630070133855,58898,332248,403388
1630070133865,58926,332270,403400
1630070133875,58939,332265,403412
1630070133885,58969,332304,403451
1630070133895,58991,332346,403443
1630070133905,59027,332348,403463
1630070133915,59038,332364,403450
1630070133925,59065,332363,403502
1630070133935,59110,332371,403483
1630070133945,59143,332421,403505
1630070133955,59159,332435,403533
1630070133965,59192,332438,403568
1630070133975,59238,332484,403561
1630070133985,59270,332432,403559
1630070133995,59307,332525,403562
1630070134005,59331,332514,403610
1630070134015,59362,332507,403622
1630070134025,59389,332577,403634
1630070134035,59429,332583,403633
1630070134045,59469,332634,403655
1630070134055,59505,332601,403672
1630070134065,59551,332618,403674
1630070134075,59568,332675,403651
1630070134085,59610,332685,403649
1630070134095,59642,332684,403734
1630070134105,59698,332733,403711
1630070134115,59727,332715,403736
1630070134125,59765,332784,403741
1630070134135,59791,332764,403761
1630070134145,59815,332759,403769
1630070134155,59826,332734,403732
1630070134165,59804,332663,403732
1630070134175,59773,332670,403735
1630070134185,59723,332615,403634
1630070134195,59657,332546,403602
1630070134205,59601,332544,403647
1630070134215,59552,332459,403576
1630070134225,59508,332487,403589
1630070134235,59466,332480,403579
1630070134245,59427,332474,403602
1630070134255,59405,332422,403589
1630070134265,59364,332398,403564
1630070134275,59322,332464,403525
1630070134285,59304,332442,403550
1630070134295,59275,332389,403504
1630070134305,59246,332385,403495
1630070134315,59244,332381,403531
1630070134325,59210,332426,403500
1630070134335,59183,332419,403475
1630070134345,59170,332352,403522
1630070134355,59159,332389,403473
1630070134365,59161,332382,403477
1630070134375,59158,332425,403491
1630070134385,59166,332426,403518
1630070134395,59173,332423,403523
1630070134405,59177,332442,403521
1630070134415,59167,332411,403468
1630070134425,59186,332448,403472
1630070134435,59177,332439,403472
1630070134445,59185,332462,403506
1630070134455,59173,332405,403479
1630070134465,59185,332462,403497
1630070134475,59188,332437,403477
1630070134485,59191,332457,403478
1630070134495,59193,332470,403486
1630070134505,59204,332465,403461
1630070134515,59217,332510,403521
1630070134525,59242,332528,403521
1630070134535,59256,332519,403526
1630070134545,59271,332503,403490
1630070134555,59289,332550,403568
1630070134565,59308,332529,403543
1630070134575,59339,332592,403544
1630070134585,59373,332593,403521
1630070134595,59388,332595,403596
1630070134605,59412,332670,403564
1630070134615,59453,332645,403603
1630070134625,59482,332662,403569
1630070134635,59515,332667,403611
1630070134645,59532,332716,403601
1630070134655,59578,332701,403629
1630070134665,59597,332746,403652
1630070134675,59633,332743,403688
1630070134685,59672,332789,403696
1630070134695,59701,332803,403669
1630070134705,59739,332806,403718
1630070134715,59767,332850,403718
1630070134725,59799,332862,403702
1630070134735,59837,332937,403767
1630070134745,59877,332906,403750
1630070134755,59916,332951,403780
1630070134765,59959,332947,403792
1630070134775,59995,332964,403765
1630070134785,60036,332996,403816
1630070134795,60076,332998,403794
1630070134805,60104,333054,403820
1630070134815,60133,333026,403808
1630070134825,60160,333086,403826
1630070134835,60159,333011,403831
1630070134845,60152,332968,403807
1630070134855,60107,332872,403785
1630070134865,60062,332868,403733
1630070134875,60004,332845,403728
1630070134885,59939,332795,403680
1630070134895,59891,332761,403672
1630070134905,59837,332702,403655
1630070134915,59786,332684,403613
1630070134925,59734,332655,403616
1630070134935,59680,332691,403563
1630070134945,59642,332623,403588
1630070134955,59599,332587,403573
1630070134965,59550,332583,403577
1630070134975,59509,332518,403532
1630070134985,59471,332586,403494
1630070134995,59418,332549,403498
1630070135005,59384,332459,403521
1630070135015,59347,332447,403513
1630070135025,59317,332505,403480
1630070135035,59288,332494,403486
1630070135045,59267,332459,403469
1630070135055,59256,332485,403453
1630070135065,59256,332510,403476
1630070135075,59262,332475,403486
1630070135085,59262,332490,403457
1630070135095,59252,332465,403478
1630070135105,59248,332503,403482
1630070135115,59239,332512,403466
1630070135125,59220,332471,403458
1630070135135,59216,332442,403452
1630070135145,59210,332456,403417
1630070135155,59206,332448,403434
1630070135165,59202,332496,403424
1630070135175,59205,332478,403466
1630070135185,59212,332499,403452
1630070135195,59215,332504,403449
1630070135205,59216,332522,403469
1630070135215,59224,332480,403430
1630070135225,59233,332537,403497
1630070135235,59250,332525,403472
1630070135245,59276,332532,403438
1630070135255,59279,332580,403456
1630070135265,59285,332603,403503
1630070135275,59311,332605,403491
1630070135285,59339,332637,403509
1630070135295,59346,332628,403521
1630070135305,59379,332646,403550
1630070135315,59410,332637,403520
1630070135325,59432,332695,403585
1630070135335,59443,332664,403540
1630070135345,59489,332657,403577
1630070135355,59504,332682,403543
1630070135365,59529,332747,403585
1630070135375,59560,332732,403596
1630070135385,59587,332677,403631
1630070135395,59618,332775,403609
1630070135405,59658,332759,403640
1630070135415,59689,332838,403626
1630070135425,59717,332822,403666
1630070135435,59757,332828,403685
1630070135445,59795,332866,403665
1630070135455,59832,332895,403653
1630070135465,59873,332850,403664
1630070135475,59890,332914,403675
1630070135485,59928,332895,403728
1630070135495,59938,332933,403714
1630070135505,59946,332897,403700
1630070135515,59919,332852,403655
1630070135525,59881,332819,403606
1630070135535,59824,332718,403646
1630070135545,59764,332710,403593
1630070135555,59705,332678,403534
1630070135565,59659,332621,403516
1630070135575,59575,332602,403565
1630070135585,59529,332614,403512
1630070135595,59495,332611,403472
1630070135605,59445,332522,403524
1630070135615,59398,332517,403438
1630070135625,59358,332492,403430
1630070135635,59313,332485,403446
1630070135645,59257,332420,403392
1630070135655,59216,332381,403439
1630070135665,59178,332409,403408
1630070135675,59142,332385,403387
1630070135685,59100,332359,403334
1630070135695,59069,332335,403364
1630070135705,59053,332386,403365
1630070135715,59036,332369,403381
1630070135725,59026,332407,403345
1630070135735,59024,332356,403330
1630070135745,59025,332355,403329
1630070135755,59009,332321,403360
1630070135765,59003,332382,403342
1630070135775,58983,332397,403329
1630070135785,58981,332379,403339
1630070135795,58980,332334,403320
1630070135805,58967,332379,403326
1630070135815,58963,332380,403343
1630070135825,58945,332390,403304
1630070135835,58937,332351,403337
1630070135845,58938,332395,403326
1630070135855,58946,332405,403334
1630070135865,58946,332358,403347
1630070135875,58960,332361,403320
1630070135885,58974,332382,403374
1630070135895,58989,332417,403333
1630070135905,59010,332441,403385
1630070135915,59014,332424,403398
1630070135925,59042,332437,403420
1630070135935,59062,332444,403342
1630070135945,59076,332419,403402
1630070135955,59090,332495,403407
1630070135965,59112,332474,403415
1630070135975,59141,332498,403461
1630070135985,59173,332530,403451
1630070135995,59198,332547,403429
1630070136005,59223,332598,403474
1630070136015,59260,332565,403517
1630070136025,59300,332613,403484
1630070136035,59334,332617,403495
1630070136045,59355,332642,403545
1630070136055,59385,332619,403562
1630070136065,59424,332680,403546
1630070136075,59447,332720,403568
1630070136085,59482,332730,403608
1630070136095,59511,332704,403577
1630070136105,59527,332767,403576
1630070136115,59584,332803,403625
1630070136125,59603,332756,403631
1630070136135,59657,332779,403642
1630070136145,59670,332864,403606
1630070136155,59690,332785,403654
1630070136165,59698,332776,403636
1630070136175,59686,332749,403624
1630070136185,59660,332700,403597
1630070136195,59601,332643,403569
1630070136205,59528,332556,403561
1630070136215,59473,332520,403521
1630070136225,59407,332451,403482
1630070136235,59357,332496,403472
1630070136245,59310,332460,403471
1630070136255,59270,332405,403419
1630070136265,59216,332364,403396
1630070136275,59183,332349,403375
1630070136285,59145,332364,403363
1630070136295,59103,332339,403375
1630070136305,59072,332307,403340
1630070136315,59020,332303,403315
1630070136325,58980,332278,403267
1630070136335,58949,332289,403305
1630070136345,58924,332235,403261
1630070136355,58890,332226,403291
1630070136365,58861,332272,403251
1630070136375,58845,332316,403220
1630070136385,58843,332258,403296
1630070136395,58834,332195,403262
1630070136405,58814,332254,403247
1630070136415,58827,332225,403221
1630070136425,58814,332243,403217
1630070136435,58810,332208,403239
1630070136445,58794,332142,403246
1630070136455,58781,332177,403248
1630070136465,58769,332185,403222
1630070136475,58759,332165,403208
1630070136485,58743,332188,403202
1630070136495,58739,332189,403218
1630070136505,58736,332203,403209
1630070136515,58739,332163,403223
1630070136525,58732,332138,403220
1630070136535,58752,332233,403252
1630070136545,58752,332202,403226
1630070136555,58750,332210,403203
1630070136565,58757,332225,403242
1630070136575,58758,332226,403229
1630070136585,58783,332245,403284
1630070136595,58794,332284,403273
1630070136605,58799,332227,403262
1630070136615,58821,332246,403265
1630070136625,58833,332296,403214
1630070136635,58850,332252,403252
1630070136645,58870,332305,403275
1630070136655,58889,332342,403313
1630070136665,58911,332313,403280
1630070136675,58946,332337,403306
1630070136685,58958,332406,403299
1630070136695,58983,332363,403292
1630070136705,58990,332391,403335
1630070136715,59033,332388,403354
1630070136725,59050,332446,403327
1630070136735,59068,332451,403359
1630070136745,59114,332423,403390
1630070136755,59130,332451,403366
1630070136765,59167,332448,403364
1630070136775,59180,332493,403389
1630070136785,59198,332429,403359
1630070136795,59204,332469,403375
1630070136805,59183,332492,403347
1630070136815,59150,332375,403341
1630070136825,59083,332296,403283
1630070136835,59019,332232,403255
1630070136845,58938,332225,403267
1630070136855,58863,332173,403192
1630070136865,58809,332103,403156
1630070136875,58753,332075,403164
1630070136885,58690,332062,403148
1630070136895,58638,332058,403114
1630070136905,58595,331994,403096
1630070136915,58532,331994,403054
1630070136925,58487,331977,403030
1630070136935,58439,331942,403041
1630070136945,58378,331890,403029
1630070136955,58336,331920,403023
1630070136965,58281,331911,403004
1630070136975,58229,331864,402922
1630070136985,58197,331823,402980
1630070136995,58167,331808,402963
1630070137005,58146,331830,402951
1630070137015,58135,331848,402938
1630070137025,58120,331751,402942
1630070137035,58114,331801,402954
1630070137045,58089,331852,402902
1630070137055,58059,331825,402895
1630070137065,58038,331770,402923
1630070137075,58032,331827,402899
1630070137085,58011,331762,402843
1630070137095,58003,331782,402886
1630070137105,57971,331778,402865
1630070137115,57960,331790,402902
1630070137125,57953,331810,402881
1630070137135,57947,331805,402883
1630070137145,57935,331745,402869
1630070137155,57934,331798,402849
1630070137165,57929,331787,402849
1630070137175,57941,331778,402875
1630070137185,57955,331825,402878
1630070137195,57938,331791,402837
1630070137205,57950,331856,402814
1630070137215,57969,331800,402837
1630070137225,57973,331799,402880
1630070137235,57995,331848,402867
1630070137245,58000,331821,402880
1630070137255,58009,331876,402861
1630070137265,58024,331830,402878
1630070137275,58037,331809,402889
1630070137285,58059,331902,402879
1630070137295,58064,331884,402871
1630070137305,58093,331873,402917
1630070137315,58095,331880,402896
1630070137325,58112,331921,402893
1630070137335,58118,331911,402881
1630070137345,58148,331913,402859
1630070137355,58174,331856,402914
1630070137365,58168,331909,402902
1630070137375,58191,331912,402877
1630070137385,58201,331944,402837
1630070137395,58216,331942,402888
1630070137405,58241,331966,402853
1630070137415,58251,331964,402878
1630070137425,58248,331963,402883
1630070137435,58241,331976,402828
1630070137445,58212,331861,402796
1630070137455,58158,331839,402756
1630070137465,58096,331772,402717
1630070137475,58015,331699,402720
1630070137485,57932,331667,402659
1630070137495,57857,331644,402676
1630070137505,57774,331606,402628
1630070137515,57724,331540,402576
1630070137525,57650,331476,402540
1630070137535,57582,331427,402555
1630070137545,57502,331416,402550
1630070137555,57432,331404,402512
1630070137565,57365,331332,402461
1630070137575,57303,331322,402439
1630070137585,57232,331260,402452
1630070137595,57157,331191,402376
1630070137605,57086,331191,402354
1630070137615,57017,331196,402361
1630070137625,56966,331104,402359
1630070137635,56906,331091,402347
1630070137645,56852,331046,402329
1630070137655,56815,331087,402344
1630070137665,56785,331107,402330
1630070137675,56774,331096,402275
1630070137685,56749,331106,402316
1630070137695,56745,331057,402297
1630070137705,56713,331053,402268
1630070137715,56695,331013,402257
1630070137725,56677,331021,402296
1630070137735,56640,331043,402286
1630070137745,56628,331044,402271
1630070137755,56614,331016,402319
1630070137765,56597,330996,402290
1630070137775,56591,331083,402300
1630070137785,56587,330988,402328
1630070137795,56575,331062,402316
1630070137805,56572,331018,402310
1630070137815,56576,331087,402304
1630070137825,56579,331022,402344
1630070137835,56580,331027,402353
1630070137845,56576,331081,402314
1630070137855,56606,331047,402349
1630070137865,56609,331095,402361
1630070137875,56609,331055,402331
1630070137885,56630,331097,402328
1630070137895,56646,331075,402367
1630070137905,56648,331118,402343
1630070137915,56666,331128,402359
1630070137925,56687,331105,402375
1630070137935,56709,331168,402397
1630070137945,56723,331175,402396
1630070137955,56746,331232,402421
1630070137965,56771,331217,402430
1630070137975,56786,331192,402439
1630070137985,56812,331131,402475
1630070137995,56846,331204,402457
1630070138005,56870,331260,402449
1630070138015,56883,331284,402495
1630070138025,56921,331257,402504
1630070138035,56953,331359,402498
1630070138045,56964,331308,402461
1630070138055,57004,331326,402583
1630070138065,57019,331354,402549
1630070138075,57052,331367,402558
1630070138085,57073,331403,402551
1630070138095,57094,331424,402574
1630070138105,57114,331404,402578
1630070138115,57102,331333,402542
1630070138125,57071,331325,402552
1630070138135,57015,331212,402493
1630070138145,56954,331191,402477
1630070138155,56880,331218,402472
1630070138165,56826,331148,402449
1630070138175,56771,331087,402441
1630070138185,56700,331026,402406
1630070138195,56642,331009,402354
1630070138205,56589,330997,402395
1630070138215,56536,330956,402372
1630070138225,56470,330906,402330
1630070138235,56415,330879,402316
1630070138245,56353,330863,402330
1630070138255,56292,330832,402284
1630070138265,56246,330805,402265
1630070138275,56190,330815,402222
1630070138285,56142,330704,402212
1630070138295,56085,330730,402202
1630070138305,56035,330673,402190
1630070138315,56004,330704,402180
1630070138325,55992,330719,402228
1630070138335,55971,330681,402170
1630070138345,55970,330734,402196
1630070138355,55970,330678,402191
1630070138365,55956,330707,402193
1630070138375,55947,330709,402212
1630070138385,55931,330626,402229
1630070138395,55923,330708,402204
1630070138405,55928,330650,402180
1630070138415,55918,330690,402190
1630070138425,55912,330658,402199
1630070138435,55915,330674,402186
1630070138445,55908,330666,402184
1630070138455,55917,330675,402213
1630070138465,55918,330711,402191
1630070138475,55928,330646,402212
1630070138485,55955,330720,402205
1630070138495,55970,330678,402243
1630070138505,55976,330727,402214
1630070138515,56001,330727,402232
1630070138525,56011,330730,402244
1630070138535,56042,330747,402283
1630070138545,56055,330817,402240
1630070138555,56074,330815,402271
1630070138565,56102,330808,402382
1630070138575,56120,330859,402335
1630070138585,56151,330899,402322
1630070138595,56181,330891,402361
1630070138605,56203,330845,402375
1630070138615,56243,330888,402373
1630070138625,56272,330898,402375
1630070138635,56310,330922,402399
1630070138645,56337,330930,402431
1630070138655,56345,330978,402393
1630070138665,56365,330940,402390
1630070138675,56401,331008,402359
1630070138685,56434,330993,402392
1630070138695,56474,331030,402384
1630070138705,56497,331022,402407
1630070138715,56537,331065,402428
1630070138725,56564,331081,402431
1630070138735,56601,331136,402439
1630070138745,56631,331133,402440
1630070138755,56674,331200,402468
1630070138765,56710,331176,402528
1630070138775,56748,331183,402520
1630070138785,56785,331210,402509
1630070138795,56843,331180,402546
1630070138805,56865,331250,402550
1630070138815,56899,331277,402561
1630070138825,56948,331294,402623
1630070138835,56975,331341,402596
1630070138845,56982,331275,402601
1630070138855,56975,331252,402561
1630070138865,56925,331162,402534
1630070138875,56887,331169,402519
1630070138885,56830,331095,402468
1630070138895,56772,331042,402482
1630070138905,56729,331005,402444
1630070138915,56679,330969,402450
1630070138925,56635,330983,402439
1630070138935,56582,330959,402389
1630070138945,56549,330947,402409
1630070138955,56508,330937,402380
1630070138965,56455,330896,402368
1630070138975,56421,330844,402320
1630070138985,56373,330829,402316
1630070138995,56323,330808,402291
1630070139005,56284,330794,402314
1630070139015,56234,330777,402296
1630070139025,56192,330796,402290
1630070139035,56171,330736,402290
1630070139045,56143,330735,402318
1630070139055,56132,330742,402266
1630070139065,56114,330733,402293
1630070139075,56117,330769,402274
1630070139085,56105,330746,402318
1630070139095,56107,330788,402322
1630070139105,56096,330790,402300
1630070139115,56103,330770,402271
1630070139125,56107,330717,402288
1630070139135,56097,330791,402307
1630070139145,56091,330777,402310
1630070139155,56107,330779,402332
1630070139165,56088,330777,402346
1630070139175,56097,330782,402327
1630070139185,56109,330788,402314
1630070139195,56103,330810,402371
1630070139205,56117,330812,402399
1630070139215,56131,330821,402366
1630070139225,56146,330863,402401
1630070139235,56168,330840,402365
1630070139245,56183,330805,402391
1630070139255,56204,330872,402409
1630070139265,56224,330807,402402
1630070139275,56245,330925,402414
1630070139285,56285,330905,402448
1630070139295,56307,330922,402457
1630070139305,56323,330945,402465
1630070139315,56352,330954,402482
1630070139325,56379,330975,402467
1630070139335,56409,330973,402551
1630070139345,56440,330985,402538
1630070139355,56471,331011,402535
1630070139365,56499,331070,402536
1630070139375,56527,331073,402551
1630070139385,56566,331090,402579
1630070139395,56602,331102,402579
1630070139405,56634,331119,402621
1630070139415,56654,331133,402653
1630070139425,56698,331148,402646
1630070139435,56734,331106,402668
1630070139445,56762,331221,402642
1630070139455,56804,331195,402679
1630070139465,56833,331233,402701
1630070139475,56878,331237,402718
1630070139485,56929,331252,402714
1630070139495,56960,331279,402768
1630070139505,56994,331320,402762
1630070139515,57040,331368,402745
1630070139525,57082,331379,402790
1630070139535,57119,331399,402819
1630070139545,57156,331424,402805
1630070139555,57184,331416,402868
1630070139565,57212,331387,402817
1630070139575,57222,331364,402828
1630070139585,57215,331361,402827
1630070139595,57172,331335,402753
1630070139605,57137,331274,402802
1630070139615,57088,331250,402752
1630070139625,57045,331198,402722
1630070139635,57006,331191,402761
1630070139645,56957,331157,402737
1630070139655,56926,331139,402693
1630070139665,56885,331112,402700
1630070139675,56854,331105,402711
1630070139685,56814,331094,402693
1630070139695,56768,331044,402688
1630070139705,56745,331034,402642
1630070139715,56708,331068,402658
1630070139725,56667,331005,402664
1630070139735,56637,331024,402617
1630070139745,56607,330990,402658
1630070139755,56572,330998,402613
1630070139765,56547,331011,402634
1630070139775,56539,330979,402575
1630070139785,56534,331021,402614
1630070139795,56529,330968,402617
1630070139805,56521,330997,402589
1630070139815,56529,331034,402647
1630070139825,56540,331039,402618
1630070139835,56530,330966,402686
1630070139845,56536,330980,402611
1630070139855,56539,330999,402648
1630070139865,56538,330999,402646
1630070139875,56547,331040,402681
1630070139885,56558,331010,402593
1630070139895,56566,331036,402609
1630070139905,56566,331053,402655
1630070139915,56567,331016,402661
1630070139925,56595,331086,402655
1630070139935,56605,331079,402661
1630070139945,56624,331075,402650
1630070139955,56650,331108,402706
1630070139965,56676,331108,402661
1630070139975,56703,331122,402722
1630070139985,56728,331171,402683
1630070139995,56753,331190,402741
1630070140005,56784,331211,402716
1630070140015,56808,331260,402722
1630070140025,56839,331242,402749
1630070140035,56870,331256,402758
1630070140045,56897,331300,402769
1630070140055,56931,331288,402806
1630070140065,56964,331286,402818
1630070140075,57001,331372,402836
1630070140085,57052,331383,402860
1630070140095,57075,331374,402856
1630070140105,57108,331420,402894
1630070140115,57140,331428,402884
1630070140125,57198,331446,402928
1630070140135,57229,331496,402971
1630070140145,57252,331511,402923
1630070140155,57305,331531,402968
1630070140165,57351,331548,402947
1630070140175,57382,331605,402968
1630070140185,57423,331639,402973
1630070140195,57446,331630,403054
1630070140205,57503,331665,403005
1630070140215,57530,331681,403061
1630070140225,57571,331696,403097
1630070140235,57607,331688,403085
1630070140245,57648,331763,403096
1630070140255,57715,331777,403106
1630070140265,57745,331805,403105
1630070140275,57793,331816,403157
1630070140285,57838,331842,403154
1630070140295,57877,331840,403152
1630070140305,57907,331888,403203
1630070140315,57942,331868,403215
1630070140325,57961,331888,403196
1630070140335,57941,331813,403197
1630070140345,57912,331749,403148
1630070140355,57876,331765,403138
1630070140365,57837,331670,403096
1630070140375,57792,331673,403159
1630070140385,57760,331677,403049
1630070140395,57719,331567,403080
1630070140405,57676,331577,403094
1630070140415,57640,331581,403078
1630070140425,57602,331530,403106
1630070140435,57563,331541,403067
1630070140445,57509,331471,403014
1630070140455,57473,331470,403001
1630070140465,57430,331468,403002
1630070140475,57378,331422,403003
1630070140485,57340,331469,402982
1630070140495,57305,331403,402976
1630070140505,57262,331382,402956
1630070140515,57230,331394,402929
1630070140525,57197,331391,402891
1630070140535,57172,331379,402916
1630070140545,57169,331399,402893
1630070140555,57151,331387,402912
1630070140565,57151,331392,402953
1630070140575,57163,331426,402912
1630070140585,57153,331425,402955
1630070140595,57158,331382,402909
1630070140605,57157,331401,402930
1630070140615,57141,331423,402971
1630070140625,57166,331446,402942
1630070140635,57165,331405,402957
1630070140645,57165,331434,402948
1630070140655,57171,331435,402946
1630070140665,57182,331429,402956
1630070140675,57189,331485,403032
1630070140685,57211,331474,402988
1630070140695,57217,331471,402979
1630070140705,57234,331488,403039
1630070140715,57244,331517,403001
1630070140725,57265,331519,403015
1630070140735,57301,331551,403023
1630070140745,57314,331574,403051
1630070140755,57343,331597,403046
1630070140765,57376,331598,403062
1630070140775,57411,331624,403061
1630070140785,57405,331643,403064
1630070140795,57465,331693,403092
1630070140805,57487,331688,403130
1630070140815,57501,331695,403157
1630070140825,57543,331691,403171
1630070140835,57569,331724,403161
1630070140845,57599,331737,403161
1630070140855,57641,331773,403169
1630070140865,57666,331749,403199
1630070140875,57713,331835,403198
1630070140885,57752,331834,403202
1630070140895,57788,331885,403244
1630070140905,57825,331910,403251
1630070140915,57866,331912,403224
1630070140925,57898,331925,403282
1630070140935,57924,331943,403303
1630070140945,57970,331982,403305
1630070140955,58005,332012,403327
1630070140965,58049,331999,403374
1630070140975,58087,332055,403370
1630070140985,58129,332087,403382
1630070140995,58174,332078,403403
1630070141005,58215,332114,403421
1630070141015,58261,332125,403408
1630070141025,58298,332132,403439
1630070141035,58328,332156,403441
1630070141045,58369,332234,403478
1630070141055,58406,332230,403478
1630070141065,58464,332313,403514
1630070141075,58500,332293,403527
1630070141085,58522,332270,403520
1630070141095,58533,332208,403515
1630070141105,58519,332192,403452
1630070141115,58479,332156,403469
1630070141125,58453,332115,403477
1630070141135,58411,332111,403396
1630070141145,58387,332040,403404
1630070141155,58343,332058,403386
1630070141165,58305,332081,403442
1630070141175,58291,332033,403389
1630070141185,58255,331945,403358
1630070141195,58229,331953,403318
1630070141205,58186,331920,403352
1630070141215,58169,331935,403378
1630070141225,58133,331907,403322
1630070141235,58103,331888,403317
1630070141245,58073,331848,403280
1630070141255,58034,331876,403338
1630070141265,58017,331857,403266
1630070141275,57989,331800,403276
1630070141285,57968,331849,403308
1630070141295,57955,331827,403315
1630070141305,57950,331842,403280
1630070141315,57935,331879,403256
1630070141325,57945,331892,403280
1630070141335,57942,331892,403340
1630070141345,57947,331915,403291
1630070141355,57939,331859,403323
1630070141365,57937,331855,403281
1630070141375,57955,331883,403257
1630070141385,57952,331864,403289
1630070141395,57964,331866,403303
1630070141405,57957,331862,403309
1630070141415,57965,331888,403302
1630070141425,57972,331871,403308
1630070141435,57982,331884,403267
1630070141445,57999,331926,403301
1630070141455,58014,331911,403266
1630070141465,58023,331964,403344
1630070141475,58030,331983,403297
1630070141485,58041,331918,403334
1630070141495,58075,331947,403359
1630070141505,58091,331988,403357
1630070141515,58110,331985,403386
1630070141525,58130,332057,403374
1630070141535,58178,332033,403387
1630070141545,58187,332093,403433
1630070141555,58219,332143,403435
1630070141565,58250,332148,403435
1630070141575,58289,332206,403434
1630070141585,58316,332151,403463
1630070141595,58344,332221,403455
1630070141605,58385,332179,403476
1630070141615,58404,332240,403479
1630070141625,58448,332203,403530
1630070141635,58487,332271,403551
1630070141645,58518,332295,403547
1630070141655,58552,332303,403546
1630070141665,58594,332311,403579
1630070141675,58635,332341,403578
1630070141685,58653,332369,403607
1630070141695,58703,332407,403619
1630070141705,58737,332425,403649
1630070141715,58778,332402,403627
1630070141725,58802,332421,403682
1630070141735,58856,332464,403646
1630070141745,58886,332445,403636
1630070141755,58937,332506,403664
1630070141765,58974,332525,403715
1630070141775,58986,332563,403702
1630070141785,59040,332579,403765
1630070141795,59072,332612,403742
1630070141805,59120,332649,403774
1630070141815,59163,332687,403793
1630070141825,59206,332663,403753
1630070141835,59232,332694,403785
1630070141845,59264,332711,403799
1630070141855,59281,332661,403815
1630070141865,59293,332673,403773
1630070141875,59265,332607,403735
1630070141885,59219,332556,403712
1630070141895,59194,332535,403718
1630070141905,59159,332458,403679
1630070141915,59107,332432,403696
1630070141925,59084,332414,403683
1630070141935,59045,332414,403652
1630070141945,59019,332402,403665
1630070141955,58982,332429,403637
1630070141965,58961,332352,403677
1630070141975,58927,332347,403591
1630070141985,58899,332380,403611
1630070141995,58874,332333,403639
1630070142005,58844,332321,403580
1630070142015,58819,332296,403570
1630070142025,58793,332340,403547
1630070142035,58770,332300,403532
1630070142045,58764,332268,403566
1630070142055,58741,332245,403589
1630070142065,58738,332319,403537
1630070142075,58730,332295,403574
1630070142085,58722,332313,403529
1630070142095,58738,332295,403591
1630070142105,58737,332379,403540
1630070142115,58712,332333,403559
1630070142125,58724,332334,403518
1630070142135,58725,332344,403519
1630070142145,58700,332303,403528
1630070142155,58704,332316,403518
1630070142165,58700,332374,403531
1630070142175,58701,332333,403545
1630070142185,58695,332346,403514
1630070142195,58709,332353,403581
1630070142205,58720,332363,403505
1630070142215,58720,332346,403504
1630070142225,58728,332411,403525
1630070142235,58750,332389,403548
1630070142245,58758,332405,403527
1630070142255,58774,332429,403562
1630070142265,58810,332425,403580
1630070142275,58810,332504,403593
1630070142285,58837,332484,403610
1630070142295,58863,332477,403646
1630070142305,58888,332501,403612
1630070142315,58933,332572,403660
1630070142325,58941,332529,403649
1630070142335,58974,332586,403663
1630070142345,59011,332614,403681
1630070142355,59035,332595,403742
1630070142365,59074,332649,403705
1630070142375,59100,332690,403689
1630070142385,59129,332652,403686
1630070142395,59161,332727,403790
1630070142405,59195,332710,403812
1630070142415,59229,332734,403764
1630070142425,59263,332793,403825
1630070142435,59290,332806,403833
1630070142445,59322,332823,403823
1630070142455,59357,332862,403808
1630070142465,59395,332857,403865
1630070142475,59429,332857,403868
1630070142485,59454,332897,403861
1630070142495,59507,332904,403900
1630070142505,59532,332976,403899
1630070142515,59578,332981,403931
1630070142525,59625,333006,403894
1630070142535,59656,333030,403949
1630070142545,59688,333096,403968
1630070142555,59729,333077,404008
1630070142565,59747,333075,403994
1630070142575,59750,333006,403981
1630070142585,59742,333002,403958
1630070142595,59690,332939,403926
1630070142605,59650,332880,403898
1630070142615,59598,332896,403872
1630070142625,59545,332829,403853
1630070142635,59500,332807,403848
1630070142645,59448,332799,403807
1630070142655,59407,332762,403801
1630070142665,59378,332694,403768
1630070142675,59334,332707,403766
1630070142685,59270,332731,403766
1630070142695,59245,332649,403753
1630070142705,59197,332643,403744
1630070142715,59170,332613,403729
1630070142725,59113,332588,403746
1630070142735,59083,332608,403701
1630070142745,59032,332599,403705
1630070142755,59010,332565,403727
1630070142765,58973,332594,403666
1630070142775,58946,332580,403676
1630070142785,58933,332556,403688
1630070142795,58917,332542,403694
1630070142805,58901,332623,403696
1630070142815,58902,332535,403697
1630070142825,58901,332613,403667
1630070142835,58896,332613,403675
1630070142845,58903,332608,403688
1630070142855,58892,332599,403660
1630070142865,58867,332588,403680
1630070142875,58867,332578,403675
1630070142885,58869,332566,403673
1630070142895,58876,332612,403658
1630070142905,58879,332605,403622
1630070142915,58878,332594,403642
1630070142925,58876,332581,403663
1630070142935,58882,332661,403685
1630070142945,58892,332634,403720
1630070142955,58901,332629,403686
1630070142965,58916,332664,403711
1630070142975,58930,332702,403695
1630070142985,58945,332709,403687
1630070142995,58965,332728,403737
1630070143005,58986,332732,403699
