timestamp,ecg_waveform
1630674781588,2147
1630674781592,2146
1630674781596,2145
1630674781600,2143
1630674781604,2142
1630674781608,2141
1630674781612,2140
1630674781616,2139
1630674781620,2136
1630674781624,2134
1630674781628,2131
1630674781632,2128
1630674781636,2126
1630674781640,2123
1630674781644,2119
1630674781648,2114
1630674781652,2108
1630674781656,2103
1630674781660,2099
1630674781664,2095
1630674781668,2092
1630674781672,2090
1630674781676,2087
1630674781680,2084
1630674781684,2081
1630674781688,2079
1630674781692,2077
1630674781696,2076
1630674781700,2075
1630674781704,2074
1630674781708,2073
1630674781712,2072
1630674781716,2071
1630674781720,2069
1630674781724,2068
1630674781728,2067
1630674781732,2066
1630674781736,2065
1630674781740,2063
1630674781744,2063
1630674781748,2063
1630674781752,2063
1630674781756,2063
1630674781760,2062
1630674781764,2062
1630674781768,2062
1630674781772,2062
1630674781776,2063
1630674781780,2063
1630674781784,2064
1630674781788,2064
1630674781792,2063
1630674781796,2063
1630674781800,2062
1630674781804,2062
1630674781808,2062
1630674781812,2063
1630674781816,2063
1630674781820,2063
1630674781824,2064
1630674781828,2063
1630674781832,2063
1630674781836,2063
1630674781840,2063
1630674781844,2064
1630674781848,2063
1630674781852,2064
1630674781856,2064
1630674781860,2063
1630674781864,2064
1630674781868,2064
1630674781872,2064
1630674781876,2065
1630674781880,2065
1630674781884,2066
1630674781888,2066
1630674781892,2067
1630674781896,2067
1630674781900,2067
1630674781904,2067
1630674781908,2068
1630674781912,2068
1630674781916,2068
1630674781920,2068
1630674781924,2069
1630674781928,2069
1630674781932,2069
1630674781936,2070
1630674781940,2069
1630674781944,2069
1630674781948,2069
1630674781952,2070
1630674781956,2071
1630674781960,2071
1630674781964,2071
1630674781968,2071
1630674781972,2071
1630674781976,2071
1630674781980,2071
1630674781984,2073
1630674781988,2074
1630674781992,2075
1630674781996,2076
1630674782000,2075
1630674782004,2077
1630674782008,2077
1630674782012,2078
1630674782016,2079
1630674782020,2079
1630674782024,2081
1630674782028,2082
1630674782032,2083
1630674782036,2083
1630674782040,2083
1630674782044,2085
1630674782048,2085
1630674782052,2086
1630674782056,2087
1630674782060,2085
1630674782064,2085
1630674782068,2084
1630674782072,2083
1630674782076,2082
1630674782080,2083
1630674782084,2083
1630674782088,2084
1630674782092,2085
1630674782096,2087
1630674782100,2087
1630674782104,2089
1630674782108,2088
1630674782112,2088
1630674782116,2087
1630674782120,2084
1630674782124,2082
1630674782128,2081
1630674782132,2086
1630674782136,2106
1630674782140,2137
1630674782144,2172
1630674782148,2196
1630674782152,2198
1630674782156,2173
1630674782160,2132
1630674782164,2093
1630674782168,2068
1630674782172,2061
1630674782176,2067
1630674782180,2076
1630674782184,2084
1630674782188,2087
1630674782192,2089
1630674782196,2090
1630674782200,2088
1630674782204,2088
1630674782208,2087
1630674782212,2088
1630674782216,2090
1630674782220,2091
1630674782224,2092
1630674782228,2091
1630674782232,2091
1630674782236,2091
1630674782240,2091
1630674782244,2093
1630674782248,2092
1630674782252,2092
1630674782256,2092
1630674782260,2092
1630674782264,2093
1630674782268,2092
1630674782272,2093
1630674782276,2093
1630674782280,2094
1630674782284,2095
1630674782288,2094
1630674782292,2095
1630674782296,2094
1630674782300,2094
1630674782304,2096
1630674782308,2095
1630674782312,2098
1630674782316,2098
1630674782320,2098
1630674782324,2098
1630674782328,2099
1630674782332,2100
1630674782336,2101
1630674782340,2102
1630674782344,2104
1630674782348,2105
1630674782352,2107
1630674782356,2109
1630674782360,2110
1630674782364,2110
1630674782368,2110
1630674782372,2111
1630674782376,2111
1630674782380,2111
1630674782384,2112
1630674782388,2112
1630674782392,2112
1630674782396,2110
1630674782400,2108
1630674782404,2106
1630674782408,2103
1630674782412,2100
1630674782416,2096
1630674782420,2093
1630674782424,2091
1630674782428,2089
1630674782432,2088
1630674782436,2086
1630674782440,2083
1630674782444,2081
1630674782448,2079
1630674782452,2078
1630674782456,2078
1630674782460,2079
1630674782464,2079
1630674782468,2077
1630674782472,2075
1630674782476,2073
1630674782480,2072
1630674782484,2072
1630674782488,2072
1630674782492,2072
1630674782496,2072
1630674782500,2070
1630674782504,2070
1630674782508,2070
1630674782512,2070
1630674782516,2071
1630674782520,2070
1630674782524,2071
1630674782528,2071
1630674782532,2070
1630674782536,2070
1630674782540,2069
1630674782544,2068
1630674782548,2068
1630674782552,2068
1630674782556,2068
1630674782560,2067
1630674782564,2068
1630674782568,2067
1630674782572,2066
1630674782576,2065
1630674782580,2064
1630674782584,2064
1630674782588,2064
1630674782592,2064
1630674782596,2063
1630674782600,2061
1630674782604,2061
1630674782608,2060
1630674782612,2058
1630674782616,2057
1630674782620,2055
1630674782624,2054
1630674782628,2054
1630674782632,2054
1630674782636,2054
1630674782640,2053
1630674782644,2052
1630674782648,2050
1630674782652,2048
1630674782656,2046
1630674782660,2044
1630674782664,2044
1630674782668,2043
1630674782672,2043
1630674782676,2043
1630674782680,2042
1630674782684,2041
1630674782688,2039
1630674782692,2038
1630674782696,2037
1630674782700,2036
1630674782704,2037
1630674782708,2036
1630674782712,2036
1630674782716,2034
1630674782720,2032
1630674782724,2031
1630674782728,2031
1630674782732,2033
1630674782736,2033
1630674782740,2033
1630674782744,2033
1630674782748,2033
1630674782752,2034
1630674782756,2035
1630674782760,2035
1630674782764,2036
1630674782768,2036
1630674782772,2037
1630674782776,2038
1630674782780,2038
1630674782784,2040
1630674782788,2042
1630674782792,2044
1630674782796,2046
1630674782800,2046
1630674782804,2048
1630674782808,2048
1630674782812,2050
1630674782816,2051
1630674782820,2051
1630674782824,2053
1630674782828,2055
1630674782832,2057
1630674782836,2059
1630674782840,2058
1630674782844,2057
1630674782848,2055
1630674782852,2053
1630674782856,2051
1630674782860,2048
1630674782864,2047
1630674782868,2044
1630674782872,2040
1630674782876,2035
1630674782880,2029
1630674782884,2024
1630674782888,2019
1630674782892,2014
1630674782896,2010
1630674782900,2007
1630674782904,2005
1630674782908,2003
1630674782912,2002
1630674782916,2000
1630674782920,1998
1630674782924,1998
1630674782928,1997
1630674782932,1996
1630674782936,1995
1630674782940,1991
1630674782944,1987
1630674782948,1985
1630674782952,1991
1630674782956,2010
1630674782960,2040
1630674782964,2073
1630674782968,2097
1630674782972,2098
1630674782976,2074
1630674782980,2036
1630674782984,1999
1630674782988,1974
1630674782992,1967
1630674782996,1972
1630674783000,1979
1630674783004,1986
1630674783008,1988
1630674783012,1989
1630674783016,1991
1630674783020,1991
1630674783024,1991
1630674783028,1992
1630674783032,1992
1630674783036,1993
1630674783040,1993
1630674783044,1993
1630674783048,1993
1630674783052,1993
1630674783056,1993
1630674783060,1992
1630674783064,1992
1630674783068,1991
1630674783072,1991
1630674783076,1989
1630674783080,1988
1630674783084,1987
1630674783088,1986
1630674783092,1985
1630674783096,1984
1630674783100,1982
1630674783104,1981
1630674783108,1977
1630674783112,1975
1630674783116,1972
1630674783120,1970
1630674783124,1969
1630674783128,1969
1630674783132,1968
1630674783136,1969
1630674783140,1967
1630674783144,1966
1630674783148,1966
1630674783152,1965
1630674783156,1965
1630674783160,1963
1630674783164,1962
1630674783168,1961
1630674783172,1960
1630674783176,1961
1630674783180,1962
1630674783184,1964
1630674783188,1964
1630674783192,1965
1630674783196,1965
1630674783200,1965
1630674783204,1968
1630674783208,1968
1630674783212,1970
1630674783216,1970
1630674783220,1967
1630674783224,1966
1630674783228,1962
1630674783232,1961
1630674783236,1959
1630674783240,1956
1630674783244,1955
1630674783248,1951
1630674783252,1949
1630674783256,1947
1630674783260,1945
1630674783264,1944
1630674783268,1942
1630674783272,1942
1630674783276,1940
1630674783280,1938
1630674783284,1937
1630674783288,1934
1630674783292,1933
1630674783296,1932
1630674783300,1931
1630674783304,1931
1630674783308,1930
1630674783312,1931
1630674783316,1930
1630674783320,1929
1630674783324,1929
1630674783328,1929
1630674783332,1929
1630674783336,1929
1630674783340,1929
1630674783344,1928
1630674783348,1929
1630674783352,1930
1630674783356,1931
1630674783360,1932
1630674783364,1934
1630674783368,1935
1630674783372,1936
1630674783376,1936
1630674783380,1934
1630674783384,1934
1630674783388,1934
1630674783392,1935
1630674783396,1937
1630674783400,1938
1630674783404,1940
1630674783408,1939
1630674783412,1939
1630674783416,1938
1630674783420,1938
1630674783424,1940
1630674783428,1940
1630674783432,1941
1630674783436,1940
1630674783440,1938
1630674783444,1938
1630674783448,1937
1630674783452,1938
1630674783456,1938
1630674783460,1938
1630674783464,1939
1630674783468,1940
1630674783472,1941
1630674783476,1943
1630674783480,1943
1630674783484,1943
1630674783488,1943
1630674783492,1943
1630674783496,1944
1630674783500,1945
1630674783504,1945
1630674783508,1945
1630674783512,1945
1630674783516,1946
1630674783520,1946
1630674783524,1948
1630674783528,1949
1630674783532,1948
1630674783536,1949
1630674783540,1948
1630674783544,1949
1630674783548,1951
1630674783552,1952
1630674783556,1953
1630674783560,1952
1630674783564,1954
1630674783568,1954
1630674783572,1955
1630674783576,1955
1630674783580,1956
1630674783584,1957
1630674783588,1958
1630674783592,1959
1630674783596,1960
1630674783600,1960
1630674783604,1961
1630674783608,1961
1630674783612,1962
1630674783616,1962
1630674783620,1963
1630674783624,1964
1630674783628,1966
1630674783632,1967
1630674783636,1968
1630674783640,1968
1630674783644,1969
1630674783648,1969
1630674783652,1970
1630674783656,1972
1630674783660,1973
1630674783664,1975
1630674783668,1976
1630674783672,1977
1630674783676,1978
1630674783680,1978
1630674783684,1980
1630674783688,1980
1630674783692,1981
1630674783696,1982
1630674783700,1982
1630674783704,1982
1630674783708,1982
1630674783712,1982
1630674783716,1981
1630674783720,1980
1630674783724,1980
1630674783728,1979
1630674783732,1980
1630674783736,1981
1630674783740,1982
1630674783744,1983
1630674783748,1984
1630674783752,1985
1630674783756,1986
1630674783760,1987
1630674783764,1988
1630674783768,1987
1630674783772,1984
1630674783776,1981
1630674783780,1981
1630674783784,1991
1630674783788,2016
1630674783792,2053
1630674783796,2089
1630674783800,2107
1630674783804,2098
1630674783808,2063
1630674783812,2018
1630674783816,1979
1630674783820,1958
1630674783824,1957
1630674783828,1965
1630674783832,1977
1630674783836,1984
1630674783840,1986
1630674783844,1988
1630674783848,1988
1630674783852,1988
1630674783856,1988
1630674783860,1988
1630674783864,1990
1630674783868,1990
1630674783872,1991
1630674783876,1992
1630674783880,1992
1630674783884,1992
1630674783888,1993
1630674783892,1994
1630674783896,1994
1630674783900,1995
1630674783904,1996
1630674783908,1996
1630674783912,1997
1630674783916,1997
1630674783920,1997
1630674783924,1998
1630674783928,1998
1630674783932,1999
1630674783936,2001
1630674783940,2001
1630674783944,2002
1630674783948,2003
1630674783952,2003
1630674783956,2004
1630674783960,2004
1630674783964,2006
1630674783968,2007
1630674783972,2008
1630674783976,2010
1630674783980,2011
1630674783984,2013
1630674783988,2015
1630674783992,2017
1630674783996,2019
1630674784000,2020
1630674784004,2022
1630674784008,2024
1630674784012,2026
1630674784016,2027
1630674784020,2027
1630674784024,2027
1630674784028,2026
1630674784032,2025
1630674784036,2025
1630674784040,2025
1630674784044,2025
1630674784048,2023
1630674784052,2022
1630674784056,2020
1630674784060,2017
1630674784064,2015
1630674784068,2012
1630674784072,2010
1630674784076,2007
1630674784080,2004
1630674784084,2002
1630674784088,2000
1630674784092,1999
1630674784096,1999
1630674784100,1998
1630674784104,1998
1630674784108,1996
1630674784112,1996
1630674784116,1994
1630674784120,1994
1630674784124,1994
1630674784128,1995
1630674784132,1996
1630674784136,1997
1630674784140,1997
1630674784144,1997
1630674784148,1997
1630674784152,1997
1630674784156,1998
1630674784160,1998
1630674784164,1999
1630674784168,1999
1630674784172,1999
1630674784176,1999
1630674784180,1999
1630674784184,2000
1630674784188,2001
1630674784192,2001
1630674784196,2001
1630674784200,2000
1630674784204,1999
1630674784208,1998
1630674784212,1998
1630674784216,1998
1630674784220,1997
1630674784224,1997
1630674784228,1995
1630674784232,1994
1630674784236,1993
1630674784240,1992
1630674784244,1993
1630674784248,1992
1630674784252,1992
1630674784256,1992
1630674784260,1992
1630674784264,1992
1630674784268,1991
1630674784272,1991
1630674784276,1990
1630674784280,1989
1630674784284,1989
1630674784288,1989
1630674784292,1989
1630674784296,1990
1630674784300,1990
1630674784304,1991
1630674784308,1990
1630674784312,1990
1630674784316,1989
1630674784320,1988
1630674784324,1988
1630674784328,1987
1630674784332,1987
1630674784336,1987
1630674784340,1986
1630674784344,1986
1630674784348,1986
1630674784352,1986
1630674784356,1986
1630674784360,1986
1630674784364,1985
1630674784368,1985
1630674784372,1985
1630674784376,1985
1630674784380,1986
1630674784384,1987
1630674784388,1986
1630674784392,1986
1630674784396,1985
1630674784400,1983
1630674784404,1982
1630674784408,1981
1630674784412,1981
1630674784416,1981
1630674784420,1981
1630674784424,1981
1630674784428,1980
1630674784432,1981
1630674784436,1980
1630674784440,1979
1630674784444,1979
1630674784448,1979
1630674784452,1980
1630674784456,1980
1630674784460,1980
1630674784464,1980
1630674784468,1980
1630674784472,1980
1630674784476,1980
1630674784480,1980
1630674784484,1979
1630674784488,1979
1630674784492,1978
1630674784496,1979
1630674784500,1979
1630674784504,1980
1630674784508,1981
1630674784512,1981
1630674784516,1982
1630674784520,1982
1630674784524,1982
1630674784528,1982
1630674784532,1981
1630674784536,1980
1630674784540,1978
1630674784544,1977
1630674784548,1976
1630674784552,1975
1630674784556,1974
1630674784560,1973
1630674784564,1973
1630674784568,1973
1630674784572,1973
1630674784576,1974
1630674784580,1975
1630674784584,1976
1630674784588,1977
1630674784592,1977
1630674784596,1973
1630674784600,1968
1630674784604,1964
1630674784608,1966
1630674784612,1984
1630674784616,2019
1630674784620,2060
1630674784624,2093
1630674784628,2100
1630674784632,2076
1630674784636,2031
1630674784640,1983
1630674784644,1949
1630674784648,1937
1630674784652,1941
1630674784656,1952
1630674784660,1962
1630674784664,1967
1630674784668,1969
1630674784672,1972
1630674784676,1973
1630674784680,1973
1630674784684,1974
1630674784688,1975
1630674784692,1976
1630674784696,1976
1630674784700,1976
1630674784704,1977
1630674784708,1978
1630674784712,1978
1630674784716,1979
1630674784720,1979
1630674784724,1979
1630674784728,1980
1630674784732,1981
1630674784736,1982
1630674784740,1982
1630674784744,1983
1630674784748,1984
1630674784752,1984
1630674784756,1985
1630674784760,1985
1630674784764,1986
1630674784768,1986
1630674784772,1987
1630674784776,1989
1630674784780,1989
1630674784784,1991
1630674784788,1992
1630674784792,1993
1630674784796,1995
1630674784800,1995
1630674784804,1997
1630674784808,1998
1630674784812,2000
1630674784816,2002
1630674784820,2004
1630674784824,2006
1630674784828,2008
1630674784832,2010
1630674784836,2012
1630674784840,2014
1630674784844,2015
1630674784848,2016
1630674784852,2017
1630674784856,2018
1630674784860,2018
1630674784864,2019
1630674784868,2018
1630674784872,2018
1630674784876,2017
1630674784880,2015
1630674784884,2013
1630674784888,2010
1630674784892,2007
1630674784896,2004
1630674784900,2002
1630674784904,2000
1630674784908,1998
1630674784912,1997
1630674784916,1995
1630674784920,1993
1630674784924,1992
1630674784928,1990
1630674784932,1990
1630674784936,1990
1630674784940,1990
1630674784944,1990
1630674784948,1990
1630674784952,1990
1630674784956,1989
1630674784960,1988
1630674784964,1988
1630674784968,1988
1630674784972,1989
1630674784976,1990
1630674784980,1990
1630674784984,1991
1630674784988,1992
1630674784992,1992
1630674784996,1993
1630674785000,1993
1630674785004,1993
1630674785008,1992
1630674785012,1992
1630674785016,1992
1630674785020,1992
1630674785024,1992
1630674785028,1993
1630674785032,1993
1630674785036,1993
1630674785040,1993
1630674785044,1993
1630674785048,1993
1630674785052,1993
1630674785056,1993
1630674785060,1993
1630674785064,1993
1630674785068,1993
1630674785072,1993
1630674785076,1993
1630674785080,1993
1630674785084,1993
1630674785088,1993
1630674785092,1994
1630674785096,1994
1630674785100,1994
1630674785104,1994
1630674785108,1994
1630674785112,1993
1630674785116,1993
1630674785120,1993
1630674785124,1994
1630674785128,1994
1630674785132,1994
1630674785136,1995
1630674785140,1995
1630674785144,1995
1630674785148,1995
1630674785152,1995
1630674785156,1995
1630674785160,1995
1630674785164,1995
1630674785168,1995
1630674785172,1995
1630674785176,1996
1630674785180,1995
1630674785184,1996
1630674785188,1996
1630674785192,1997
1630674785196,1997
1630674785200,1997
1630674785204,1998
1630674785208,1997
1630674785212,1997
1630674785216,1998
1630674785220,1997
1630674785224,1998
1630674785228,1997
1630674785232,1997
1630674785236,1998
1630674785240,1997
1630674785244,1999
1630674785248,1999
1630674785252,1999
1630674785256,1999
1630674785260,1999
1630674785264,1999
1630674785268,1999
1630674785272,2000
1630674785276,1999
1630674785280,1999
1630674785284,2000
1630674785288,1999
1630674785292,2000
1630674785296,2001
1630674785300,2001
1630674785304,2002
1630674785308,2002
1630674785312,2003
1630674785316,2002
1630674785320,2002
1630674785324,2003
1630674785328,2004
1630674785332,2005
1630674785336,2006
1630674785340,2006
1630674785344,2005
1630674785348,2003
1630674785352,2002
1630674785356,2001
1630674785360,2000
1630674785364,2000
1630674785368,2000
1630674785372,2000
1630674785376,2000
1630674785380,2000
1630674785384,2001
1630674785388,2001
1630674785392,2002
1630674785396,2003
1630674785400,2002
1630674785404,1999
1630674785408,1995
1630674785412,1992
1630674785416,1994
1630674785420,2009
1630674785424,2041
1630674785428,2081
1630674785432,2115
1630674785436,2126
1630674785440,2106
1630674785444,2064
1630674785448,2017
1630674785452,1981
1630674785456,1966
1630674785460,1968
1630674785464,1979
1630674785468,1989
1630674785472,1997
1630674785476,1998
1630674785480,2000
1630674785484,2000
1630674785488,2000
1630674785492,1999
1630674785496,2000
1630674785500,2001
1630674785504,2002
1630674785508,2002
1630674785512,2002
1630674785516,2002
1630674785520,2002
1630674785524,2003
1630674785528,2004
1630674785532,2004
1630674785536,2005
1630674785540,2005
1630674785544,2005
1630674785548,2005
1630674785552,2006
1630674785556,2007
1630674785560,2007
1630674785564,2008
1630674785568,2008
1630674785572,2008
1630674785576,2009
1630674785580,2010
1630674785584,2011
1630674785588,2012
1630674785592,2013
1630674785596,2014
1630674785600,2014
1630674785604,2015
1630674785608,2016
1630674785612,2018
1630674785616,2020
1630674785620,2021
1630674785624,2023
1630674785628,2025
1630674785632,2027
1630674785636,2028
1630674785640,2030
1630674785644,2032
1630674785648,2034
1630674785652,2036
1630674785656,2037
1630674785660,2038
1630674785664,2039
1630674785668,2039
1630674785672,2040
1630674785676,2040
1630674785680,2040
1630674785684,2039
1630674785688,2037
1630674785692,2035
1630674785696,2033
1630674785700,2030
1630674785704,2027
1630674785708,2024
1630674785712,2022
1630674785716,2020
1630674785720,2018
1630674785724,2016
1630674785728,2015
1630674785732,2013
1630674785736,2013
1630674785740,2011
1630674785744,2011
1630674785748,2011
1630674785752,2011
1630674785756,2011
1630674785760,2011
1630674785764,2011
1630674785768,2011
1630674785772,2010
1630674785776,2010
1630674785780,2010
1630674785784,2011
1630674785788,2011
1630674785792,2012
1630674785796,2012
1630674785800,2012
1630674785804,2012
1630674785808,2012
1630674785812,2012
1630674785816,2013
1630674785820,2013
1630674785824,2014
1630674785828,2014
1630674785832,2014
1630674785836,2014
1630674785840,2014
1630674785844,2014
1630674785848,2014
1630674785852,2014
1630674785856,2014
1630674785860,2014
1630674785864,2015
1630674785868,2015
1630674785872,2014
1630674785876,2014
1630674785880,2013
1630674785884,2013
1630674785888,2013
1630674785892,2013
1630674785896,2014
1630674785900,2014
1630674785904,2014
1630674785908,2014
1630674785912,2015
1630674785916,2015
1630674785920,2015
1630674785924,2014
1630674785928,2014
1630674785932,2014
1630674785936,2014
1630674785940,2014
1630674785944,2014
1630674785948,2015
1630674785952,2015
1630674785956,2015
1630674785960,2015
1630674785964,2014
1630674785968,2014
1630674785972,2015
1630674785976,2016
1630674785980,2016
1630674785984,2017
1630674785988,2017
1630674785992,2017
1630674785996,2017
1630674786000,2017
1630674786004,2017
1630674786008,2017
1630674786012,2017
1630674786016,2017
1630674786020,2017
1630674786024,2017
1630674786028,2018
1630674786032,2018
1630674786036,2018
1630674786040,2018
1630674786044,2018
1630674786048,2018
1630674786052,2018
1630674786056,2019
1630674786060,2019
1630674786064,2020
1630674786068,2020
1630674786072,2020
1630674786076,2020
1630674786080,2020
1630674786084,2020
1630674786088,2020
1630674786092,2020
1630674786096,2021
1630674786100,2021
1630674786104,2022
1630674786108,2021
1630674786112,2021
1630674786116,2021
1630674786120,2022
1630674786124,2023
1630674786128,2024
1630674786132,2024
1630674786136,2025
1630674786140,2025
1630674786144,2025
1630674786148,2025
1630674786152,2026
1630674786156,2027
1630674786160,2027
1630674786164,2028
1630674786168,2028
1630674786172,2028
1630674786176,2028
1630674786180,2026
1630674786184,2025
1630674786188,2024
1630674786192,2023
1630674786196,2022
1630674786200,2021
1630674786204,2022
1630674786208,2022
1630674786212,2023
1630674786216,2024
1630674786220,2024
1630674786224,2025
1630674786228,2024
1630674786232,2024
1630674786236,2022
1630674786240,2018
1630674786244,2016
1630674786248,2019
1630674786252,2038
1630674786256,2072
1630674786260,2113
1630674786264,2144
1630674786268,2149
1630674786272,2124
1630674786276,2078
1630674786280,2030
1630674786284,1997
1630674786288,1985
1630674786292,1992
1630674786296,2004
1630674786300,2015
1630674786304,2021
1630674786308,2022
1630674786312,2023
1630674786316,2022
1630674786320,2022
1630674786324,2021
1630674786328,2022
1630674786332,2023
1630674786336,2023
1630674786340,2024
1630674786344,2024
1630674786348,2024
1630674786352,2025
1630674786356,2026
1630674786360,2026
1630674786364,2027
1630674786368,2027
1630674786372,2028
1630674786376,2028
1630674786380,2028
1630674786384,2029
1630674786388,2029
1630674786392,2030
1630674786396,2031
1630674786400,2031
1630674786404,2031
1630674786408,2032
1630674786412,2032
1630674786416,2033
1630674786420,2033
1630674786424,2035
1630674786428,2036
1630674786432,2037
1630674786436,2038
1630674786440,2038
1630674786444,2039
1630674786448,2040
1630674786452,2042
1630674786456,2044
1630674786460,2046
1630674786464,2048
1630674786468,2049
1630674786472,2051
1630674786476,2053
1630674786480,2054
1630674786484,2055
1630674786488,2055
1630674786492,2056
1630674786496,2058
1630674786500,2058
1630674786504,2060
1630674786508,2060
1630674786512,2060
1630674786516,2059
1630674786520,2056
1630674786524,2054
1630674786528,2051
1630674786532,2048
1630674786536,2047
1630674786540,2044
1630674786544,2042
1630674786548,2039
1630674786552,2037
1630674786556,2036
1630674786560,2034
1630674786564,2033
1630674786568,2031
1630674786572,2031
1630674786576,2030
1630674786580,2030
1630674786584,2031
1630674786588,2031
1630674786592,2031
1630674786596,2030
1630674786600,2029
1630674786604,2029
1630674786608,2029
1630674786612,2030
1630674786616,2030
1630674786620,2031
1630674786624,2031
1630674786628,2031
1630674786632,2032
1630674786636,2031
1630674786640,2031
1630674786644,2031
1630674786648,2031
1630674786652,2032
1630674786656,2033
1630674786660,2033
1630674786664,2034
1630674786668,2034
1630674786672,2034
1630674786676,2034
1630674786680,2033
1630674786684,2033
1630674786688,2033
1630674786692,2033
1630674786696,2033
1630674786700,2033
1630674786704,2034
1630674786708,2034
1630674786712,2034
1630674786716,2033
1630674786720,2033
1630674786724,2032
1630674786728,2032
1630674786732,2032
1630674786736,2033
1630674786740,2032
1630674786744,2033
1630674786748,2033
1630674786752,2033
1630674786756,2033
1630674786760,2033
1630674786764,2033
1630674786768,2033
1630674786772,2032
1630674786776,2033
1630674786780,2033
1630674786784,2033
1630674786788,2033
1630674786792,2034
1630674786796,2034
1630674786800,2033
1630674786804,2033
1630674786808,2032
1630674786812,2033
1630674786816,2033
1630674786820,2033
1630674786824,2034
1630674786828,2034
1630674786832,2034
1630674786836,2034
1630674786840,2033
1630674786844,2033
1630674786848,2033
1630674786852,2033
1630674786856,2033
1630674786860,2033
1630674786864,2034
1630674786868,2034
1630674786872,2035
1630674786876,2035
1630674786880,2034
1630674786884,2034
1630674786888,2034
1630674786892,2034
1630674786896,2034
1630674786900,2034
1630674786904,2034
1630674786908,2034
1630674786912,2034
1630674786916,2034
1630674786920,2034
1630674786924,2034
1630674786928,2034
1630674786932,2035
1630674786936,2036
1630674786940,2036
1630674786944,2036
1630674786948,2036
1630674786952,2036
1630674786956,2036
1630674786960,2036
1630674786964,2037
1630674786968,2037
1630674786972,2038
1630674786976,2038
1630674786980,2038
1630674786984,2039
1630674786988,2040
1630674786992,2041
1630674786996,2042
1630674787000,2042
1630674787004,2042
1630674787008,2041
1630674787012,2040
1630674787016,2039
1630674787020,2037
1630674787024,2036
1630674787028,2035
1630674787032,2034
1630674787036,2034
1630674787040,2033
1630674787044,2034
1630674787048,2034
1630674787052,2035
1630674787056,2036
1630674787060,2036
1630674787064,2036
1630674787068,2034
1630674787072,2030
1630674787076,2027
1630674787080,2030
1630674787084,2049
1630674787088,2084
1630674787092,2126
1630674787096,2156
1630674787100,2159
1630674787104,2132
1630674787108,2085
1630674787112,2037
1630674787116,2005
1630674787120,1995
1630674787124,2002
1630674787128,2015
1630674787132,2025
1630674787136,2030
1630674787140,2031
1630674787144,2032
1630674787148,2032
1630674787152,2031
1630674787156,2032
1630674787160,2032
1630674787164,2033
1630674787168,2034
1630674787172,2034
1630674787176,2035
1630674787180,2036
1630674787184,2036
1630674787188,2036
1630674787192,2037
1630674787196,2036
1630674787200,2036
1630674787204,2037
1630674787208,2036
1630674787212,2037
1630674787216,2038
1630674787220,2038
1630674787224,2039
1630674787228,2039
1630674787232,2039
1630674787236,2039
1630674787240,2039
1630674787244,2040
1630674787248,2040
1630674787252,2042
1630674787256,2043
1630674787260,2044
1630674787264,2045
1630674787268,2045
1630674787272,2047
1630674787276,2048
1630674787280,2048
1630674787284,2050
1630674787288,2051
1630674787292,2053
1630674787296,2055
1630674787300,2056
1630674787304,2058
1630674787308,2059
1630674787312,2061
1630674787316,2062
1630674787320,2063
1630674787324,2064
1630674787328,2065
1630674787332,2066
1630674787336,2066
1630674787340,2065
1630674787344,2065
1630674787348,2063
1630674787352,2062
1630674787356,2060
1630674787360,2057
1630674787364,2055
1630674787368,2052
1630674787372,2049
1630674787376,2047
1630674787380,2044
1630674787384,2042
1630674787388,2040
1630674787392,2039
1630674787396,2038
1630674787400,2036
1630674787404,2035
1630674787408,2034
1630674787412,2034
1630674787416,2033
1630674787420,2033
1630674787424,2034
1630674787428,2034
1630674787432,2034
1630674787436,2035
1630674787440,2034
1630674787444,2035
1630674787448,2034
1630674787452,2035
1630674787456,2035
1630674787460,2035
1630674787464,2036
1630674787468,2036
1630674787472,2038
1630674787476,2037
1630674787480,2037
1630674787484,2036
1630674787488,2036
1630674787492,2036
1630674787496,2036
1630674787500,2037
1630674787504,2038
1630674787508,2038
1630674787512,2037
1630674787516,2037
1630674787520,2036
1630674787524,2036
1630674787528,2036
1630674787532,2037
1630674787536,2037
1630674787540,2037
1630674787544,2037
1630674787548,2037
1630674787552,2036
1630674787556,2037
1630674787560,2036
1630674787564,2036
1630674787568,2035
1630674787572,2035
1630674787576,2034
1630674787580,2034
1630674787584,2034
1630674787588,2034
1630674787592,2034
1630674787596,2034
1630674787600,2033
1630674787604,2033
1630674787608,2034
1630674787612,2034
1630674787616,2034
1630674787620,2034
1630674787624,2035
1630674787628,2034
1630674787632,2034
1630674787636,2034
1630674787640,2033
1630674787644,2033
1630674787648,2033
1630674787652,2033
1630674787656,2034
1630674787660,2034
1630674787664,2034
1630674787668,2034
1630674787672,2035
1630674787676,2035
1630674787680,2034
1630674787684,2035
1630674787688,2035
1630674787692,2035
1630674787696,2035
1630674787700,2035
1630674787704,2035
1630674787708,2035
1630674787712,2035
1630674787716,2035
1630674787720,2035
1630674787724,2035
1630674787728,2034
1630674787732,2034
1630674787736,2035
1630674787740,2035
1630674787744,2035
1630674787748,2035
1630674787752,2035
1630674787756,2035
1630674787760,2034
1630674787764,2035
1630674787768,2035
1630674787772,2036
1630674787776,2036
1630674787780,2036
1630674787784,2037
1630674787788,2037
1630674787792,2037
1630674787796,2037
1630674787800,2037
1630674787804,2038
1630674787808,2039
1630674787812,2040
1630674787816,2041
1630674787820,2040
1630674787824,2040
1630674787828,2039
1630674787832,2038
1630674787836,2037
1630674787840,2035
1630674787844,2034
1630674787848,2033
1630674787852,2033
1630674787856,2034
1630674787860,2034
1630674787864,2034
1630674787868,2035
1630674787872,2036
1630674787876,2036
1630674787880,2036
1630674787884,2035
1630674787888,2031
1630674787892,2027
1630674787896,2026
1630674787900,2035
1630674787904,2061
1630674787908,2100
1630674787912,2139
1630674787916,2159
1630674787920,2149
1630674787924,2112
1630674787928,2062
1630674787932,2021
1630674787936,2000
1630674787940,1997
1630674787944,2007
1630674787948,2018
1630674787952,2027
1630674787956,2029
1630674787960,2030
1630674787964,2031
1630674787968,2031
1630674787972,2031
1630674787976,2032
1630674787980,2032
1630674787984,2033
1630674787988,2032
1630674787992,2033
1630674787996,2033
1630674788000,2033
1630674788004,2034
1630674788008,2034
1630674788012,2035
1630674788016,2036
1630674788020,2036
1630674788024,2036
1630674788028,2036
1630674788032,2037
1630674788036,2037
1630674788040,2037
1630674788044,2038
1630674788048,2038
1630674788052,2038
1630674788056,2039
1630674788060,2039
1630674788064,2041
1630674788068,2041
1630674788072,2043
1630674788076,2043
1630674788080,2043
1630674788084,2044
1630674788088,2044
1630674788092,2046
1630674788096,2048
1630674788100,2049
1630674788104,2050
1630674788108,2051
1630674788112,2052
1630674788116,2053
1630674788120,2054
1630674788124,2057
1630674788128,2059
1630674788132,2060
1630674788136,2062
1630674788140,2062
1630674788144,2063
1630674788148,2064
1630674788152,2065
1630674788156,2065
1630674788160,2064
1630674788164,2064
1630674788168,2062
1630674788172,2060
1630674788176,2058
1630674788180,2054
1630674788184,2052
1630674788188,2049
1630674788192,2047
1630674788196,2044
1630674788200,2042
1630674788204,2040
1630674788208,2038
1630674788212,2037
1630674788216,2037
1630674788220,2036
1630674788224,2035
1630674788228,2033
1630674788232,2033
1630674788236,2032
1630674788240,2031
1630674788244,2033
1630674788248,2032
1630674788252,2032
1630674788256,2033
1630674788260,2032
1630674788264,2033
1630674788268,2033
1630674788272,2033
1630674788276,2033
1630674788280,2033
1630674788284,2034
1630674788288,2033
1630674788292,2033
1630674788296,2033
1630674788300,2033
1630674788304,2034
1630674788308,2034
1630674788312,2035
1630674788316,2035
1630674788320,2034
1630674788324,2034
1630674788328,2034
1630674788332,2035
1630674788336,2035
1630674788340,2034
1630674788344,2034
1630674788348,2033
1630674788352,2033
1630674788356,2033
1630674788360,2034
1630674788364,2034
1630674788368,2034
1630674788372,2034
1630674788376,2034
1630674788380,2033
1630674788384,2034
1630674788388,2034
1630674788392,2034
1630674788396,2034
1630674788400,2033
1630674788404,2033
1630674788408,2032
1630674788412,2032
1630674788416,2033
1630674788420,2033
1630674788424,2033
1630674788428,2033
1630674788432,2033
1630674788436,2033
1630674788440,2032
1630674788444,2033
1630674788448,2032
1630674788452,2033
1630674788456,2032
1630674788460,2033
1630674788464,2033
1630674788468,2033
1630674788472,2034
1630674788476,2034
1630674788480,2033
1630674788484,2033
1630674788488,2032
1630674788492,2032
1630674788496,2033
1630674788500,2033
1630674788504,2034
1630674788508,2034
1630674788512,2034
1630674788516,2034
1630674788520,2033
1630674788524,2033
1630674788528,2033
1630674788532,2034
1630674788536,2034
1630674788540,2034
1630674788544,2034
1630674788548,2034
1630674788552,2035
1630674788556,2035
1630674788560,2034
1630674788564,2034
1630674788568,2034
1630674788572,2034
1630674788576,2035
1630674788580,2035
1630674788584,2035
1630674788588,2035
1630674788592,2035
1630674788596,2035
1630674788600,2035
1630674788604,2035
1630674788608,2035
1630674788612,2036
1630674788616,2037
1630674788620,2037
1630674788624,2038
1630674788628,2038
1630674788632,2039
1630674788636,2039
1630674788640,2038
1630674788644,2038
1630674788648,2038
1630674788652,2039
1630674788656,2041
1630674788660,2041
1630674788664,2043
1630674788668,2042
1630674788672,2042
1630674788676,2041
1630674788680,2039
1630674788684,2037
1630674788688,2036
1630674788692,2035
1630674788696,2036
1630674788700,2036
1630674788704,2037
1630674788708,2037
1630674788712,2037
1630674788716,2037
1630674788720,2038
1630674788724,2038
1630674788728,2038
1630674788732,2036
1630674788736,2032
1630674788740,2029
1630674788744,2032
1630674788748,2048
1630674788752,2082
1630674788756,2122
1630674788760,2154
1630674788764,2163
1630674788768,2140
1630674788772,2095
1630674788776,2048
1630674788780,2013
1630674788784,2000
1630674788788,2004
1630674788792,2016
1630674788796,2027
1630674788800,2032
1630674788804,2034
1630674788808,2035
1630674788812,2035
1630674788816,2035
1630674788820,2034
1630674788824,2035
1630674788828,2036
1630674788832,2037
1630674788836,2037
1630674788840,2037
1630674788844,2037
1630674788848,2038
1630674788852,2038
1630674788856,2039
1630674788860,2039
1630674788864,2040
1630674788868,2040
1630674788872,2041
1630674788876,2042
1630674788880,2042
1630674788884,2042
1630674788888,2042
1630674788892,2043
1630674788896,2044
1630674788900,2044
1630674788904,2046
1630674788908,2046
1630674788912,2047
1630674788916,2048
1630674788920,2048
1630674788924,2048
1630674788928,2048
1630674788932,2050
1630674788936,2051
1630674788940,2053
1630674788944,2054
1630674788948,2055
1630674788952,2057
1630674788956,2058
1630674788960,2059
1630674788964,2061
1630674788968,2063
1630674788972,2065
1630674788976,2067
1630674788980,2068
1630674788984,2069
1630674788988,2070
1630674788992,2070
1630674788996,2071
1630674789000,2071
1630674789004,2072
1630674789008,2071
1630674789012,2071
1630674789016,2070
1630674789020,2067
1630674789024,2065
1630674789028,2063
1630674789032,2060
1630674789036,2057
1630674789040,2054
1630674789044,2052
1630674789048,2050
1630674789052,2048
1630674789056,2048
1630674789060,2047
1630674789064,2046
1630674789068,2045
1630674789072,2045
1630674789076,2044
1630674789080,2043
1630674789084,2043
1630674789088,2043
1630674789092,2044
1630674789096,2044
1630674789100,2044
1630674789104,2044
1630674789108,2044
1630674789112,2043
1630674789116,2043
1630674789120,2043
1630674789124,2044
1630674789128,2045
1630674789132,2045
1630674789136,2046
1630674789140,2046
1630674789144,2046
1630674789148,2046
1630674789152,2046
1630674789156,2047
1630674789160,2046
1630674789164,2046
1630674789168,2046
1630674789172,2046
1630674789176,2046
1630674789180,2046
1630674789184,2047
1630674789188,2047
1630674789192,2047
1630674789196,2046
1630674789200,2046
1630674789204,2046
1630674789208,2045
1630674789212,2046
1630674789216,2046
1630674789220,2046
1630674789224,2047
1630674789228,2045
1630674789232,2046
1630674789236,2045
1630674789240,2044
1630674789244,2045
1630674789248,2045
1630674789252,2045
1630674789256,2046
1630674789260,2046
1630674789264,2046
1630674789268,2046
1630674789272,2045
1630674789276,2045
1630674789280,2045
1630674789284,2046
1630674789288,2045
1630674789292,2046
1630674789296,2046
1630674789300,2046
1630674789304,2046
1630674789308,2046
1630674789312,2046
1630674789316,2046
1630674789320,2045
1630674789324,2045
1630674789328,2045
1630674789332,2046
1630674789336,2046
1630674789340,2046
1630674789344,2046
1630674789348,2046
1630674789352,2046
1630674789356,2047
1630674789360,2047
1630674789364,2047
1630674789368,2047
1630674789372,2047
1630674789376,2047
1630674789380,2047
1630674789384,2047
1630674789388,2047
1630674789392,2047
1630674789396,2047
1630674789400,2047
1630674789404,2047
1630674789408,2047
1630674789412,2047
1630674789416,2048
1630674789420,2048
1630674789424,2048
1630674789428,2048
1630674789432,2048
1630674789436,2048
1630674789440,2048
1630674789444,2048
1630674789448,2048
1630674789452,2048
1630674789456,2048
1630674789460,2048
1630674789464,2049
1630674789468,2049
1630674789472,2050
1630674789476,2050
1630674789480,2050
1630674789484,2050
1630674789488,2049
1630674789492,2050
1630674789496,2051
1630674789500,2051
1630674789504,2052
1630674789508,2052
1630674789512,2051
1630674789516,2052
1630674789520,2052
1630674789524,2053
1630674789528,2054
1630674789532,2055
1630674789536,2055
1630674789540,2054
1630674789544,2053
1630674789548,2052
1630674789552,2051
1630674789556,2049
1630674789560,2048
1630674789564,2048
1630674789568,2048
1630674789572,2048
1630674789576,2049
1630674789580,2048
1630674789584,2049
1630674789588,2050
1630674789592,2051
1630674789596,2051
1630674789600,2049
1630674789604,2047
1630674789608,2042
1630674789612,2042
1630674789616,2050
1630674789620,2077
1630674789624,2116
1630674789628,2154
1630674789632,2175
1630674789636,2166
1630674789640,2129
1630674789644,2080
1630674789648,2038
1630674789652,2015
1630674789656,2013
1630674789660,2023
1630674789664,2035
1630674789668,2043
1630674789672,2046
1630674789676,2047
1630674789680,2047
1630674789684,2047
1630674789688,2046
1630674789692,2046
1630674789696,2047
1630674789700,2048
1630674789704,2048
1630674789708,2048
1630674789712,2049
1630674789716,2049
1630674789720,2048
1630674789724,2049
1630674789728,2049
1630674789732,2050
1630674789736,2050
1630674789740,2051
1630674789744,2052
1630674789748,2053
1630674789752,2053
1630674789756,2053
1630674789760,2053
1630674789764,2053
1630674789768,2053
1630674789772,2054
1630674789776,2056
1630674789780,2056
1630674789784,2057
1630674789788,2058
1630674789792,2059
1630674789796,2060
1630674789800,2061
1630674789804,2062
1630674789808,2063
1630674789812,2064
1630674789816,2065
1630674789820,2066
1630674789824,2068
1630674789828,2070
1630674789832,2072
1630674789836,2073
1630674789840,2074
1630674789844,2076
1630674789848,2077
1630674789852,2078
1630674789856,2080
1630674789860,2081
1630674789864,2082
1630674789868,2083
1630674789872,2083
1630674789876,2083
1630674789880,2082
1630674789884,2081
1630674789888,2080
1630674789892,2078
1630674789896,2075
1630674789900,2073
1630674789904,2070
1630674789908,2067
1630674789912,2065
1630674789916,2062
1630674789920,2060
1630674789924,2058
1630674789928,2056
1630674789932,2055
1630674789936,2055
1630674789940,2054
1630674789944,2054
1630674789948,2053
1630674789952,2053
1630674789956,2053
1630674789960,2053
1630674789964,2053
1630674789968,2052
1630674789972,2053
1630674789976,2053
1630674789980,2053
1630674789984,2054
1630674789988,2054
1630674789992,2054
1630674789996,2054
1630674790000,2053
1630674790004,2053
1630674790008,2053
1630674790012,2054
1630674790016,2054
1630674790020,2055
1630674790024,2055
1630674790028,2055
1630674790032,2055
1630674790036,2055
1630674790040,2055
1630674790044,2055
1630674790048,2054
1630674790052,2054
1630674790056,2054
1630674790060,2054
1630674790064,2055
1630674790068,2054
1630674790072,2055
1630674790076,2054
1630674790080,2054
1630674790084,2053
1630674790088,2053
1630674790092,2053
1630674790096,2054
1630674790100,2054
1630674790104,2054
1630674790108,2053
1630674790112,2052
1630674790116,2051
1630674790120,2050
1630674790124,2051
1630674790128,2051
1630674790132,2052
1630674790136,2053
1630674790140,2053
1630674790144,2053
1630674790148,2053
1630674790152,2053
1630674790156,2053
1630674790160,2053
1630674790164,2053
1630674790168,2052
1630674790172,2052
1630674790176,2052
1630674790180,2052
1630674790184,2053
1630674790188,2053
1630674790192,2053
1630674790196,2052
1630674790200,2052
1630674790204,2052
1630674790208,2051
1630674790212,2052
1630674790216,2052
1630674790220,2052
1630674790224,2053
1630674790228,2052
1630674790232,2053
1630674790236,2053
1630674790240,2053
1630674790244,2054
1630674790248,2053
1630674790252,2053
1630674790256,2052
1630674790260,2053
1630674790264,2054
1630674790268,2054
1630674790272,2054
1630674790276,2054
1630674790280,2053
1630674790284,2054
1630674790288,2053
1630674790292,2054
1630674790296,2054
1630674790300,2054
1630674790304,2055
1630674790308,2053
1630674790312,2054
1630674790316,2053
1630674790320,2053
1630674790324,2054
1630674790328,2054
1630674790332,2055
1630674790336,2054
1630674790340,2054
1630674790344,2054
1630674790348,2054
1630674790352,2054
1630674790356,2055
1630674790360,2055
1630674790364,2056
1630674790368,2056
1630674790372,2056
1630674790376,2056
1630674790380,2057
1630674790384,2058
1630674790388,2058
1630674790392,2058
1630674790396,2057
1630674790400,2055
1630674790404,2054
1630674790408,2052
1630674790412,2051
1630674790416,2050
1630674790420,2049
1630674790424,2050
1630674790428,2050
1630674790432,2050
1630674790436,2050
1630674790440,2050
1630674790444,2051
1630674790448,2050
1630674790452,2049
1630674790456,2047
1630674790460,2042
1630674790464,2040
1630674790468,2044
1630674790472,2065
1630674790476,2103
1630674790480,2145
1630674790484,2173
1630674790488,2174
1630674790492,2143
1630674790496,2095
1630674790500,2048
1630674790504,2018
1630674790508,2009
1630674790512,2016
1630674790516,2028
1630674790520,2037
1630674790524,2041
1630674790528,2042
1630674790532,2044
1630674790536,2045
1630674790540,2045
1630674790544,2045
1630674790548,2045
1630674790552,2046
1630674790556,2047
1630674790560,2047
1630674790564,2047
1630674790568,2047
1630674790572,2047
1630674790576,2048
1630674790580,2048
1630674790584,2048
1630674790588,2048
1630674790592,2049
1630674790596,2049
1630674790600,2048
1630674790604,2049
1630674790608,2049
1630674790612,2050
1630674790616,2051
1630674790620,2051
1630674790624,2052
1630674790628,2053
1630674790632,2053
1630674790636,2054
1630674790640,2054
1630674790644,2055
1630674790648,2056
1630674790652,2057
1630674790656,2058
1630674790660,2059
1630674790664,2061
1630674790668,2061
1630674790672,2063
1630674790676,2064
1630674790680,2066
1630674790684,2067
1630674790688,2069
1630674790692,2070
1630674790696,2072
1630674790700,2074
1630674790704,2076
1630674790708,2078
1630674790712,2079
1630674790716,2080
1630674790720,2079
1630674790724,2079
1630674790728,2080
1630674790732,2079
1630674790736,2079
1630674790740,2078
1630674790744,2076
1630674790748,2072
1630674790752,2069
1630674790756,2066
1630674790760,2063
1630674790764,2060
1630674790768,2058
1630674790772,2055
1630674790776,2054
1630674790780,2052
1630674790784,2051
1630674790788,2049
1630674790792,2048
1630674790796,2048
1630674790800,2047
1630674790804,2047
1630674790808,2046
1630674790812,2046
1630674790816,2046
1630674790820,2046
1630674790824,2046
1630674790828,2046
1630674790832,2046
1630674790836,2046
1630674790840,2046
1630674790844,2047
1630674790848,2047
1630674790852,2047
1630674790856,2047
1630674790860,2047
1630674790864,2047
1630674790868,2047
1630674790872,2048
1630674790876,2048
1630674790880,2048
1630674790884,2048
1630674790888,2048
1630674790892,2048
1630674790896,2048
1630674790900,2048
1630674790904,2048
1630674790908,2048
1630674790912,2048
1630674790916,2048
1630674790920,2048
1630674790924,2048
1630674790928,2047
1630674790932,2047
1630674790936,2048
1630674790940,2047
1630674790944,2048
1630674790948,2048
1630674790952,2048
1630674790956,2048
1630674790960,2048
1630674790964,2048
1630674790968,2047
1630674790972,2047
1630674790976,2047
1630674790980,2047
1630674790984,2047
1630674790988,2047
1630674790992,2048
1630674790996,2048
1630674791000,2048
1630674791004,2048
1630674791008,2047
1630674791012,2048
1630674791016,2048
1630674791020,2048
1630674791024,2048
1630674791028,2048
1630674791032,2048
1630674791036,2048
1630674791040,2048
1630674791044,2048
1630674791048,2048
1630674791052,2048
1630674791056,2048
1630674791060,2048
1630674791064,2048
1630674791068,2048
1630674791072,2049
1630674791076,2048
1630674791080,2048
1630674791084,2048
1630674791088,2048
1630674791092,2048
1630674791096,2049
1630674791100,2050
1630674791104,2050
1630674791108,2049
1630674791112,2048
1630674791116,2048
1630674791120,2048
1630674791124,2048
1630674791128,2049
1630674791132,2049
1630674791136,2050
1630674791140,2050
1630674791144,2050
1630674791148,2050
1630674791152,2051
1630674791156,2051
1630674791160,2050
1630674791164,2050
1630674791168,2050
1630674791172,2051
1630674791176,2051
1630674791180,2051
1630674791184,2052
1630674791188,2052
1630674791192,2052
1630674791196,2052
1630674791200,2051
1630674791204,2052
1630674791208,2052
1630674791212,2054
1630674791216,2055
1630674791220,2056
1630674791224,2057
1630674791228,2056
1630674791232,2055
1630674791236,2053
1630674791240,2052
1630674791244,2052
1630674791248,2050
1630674791252,2050
1630674791256,2050
1630674791260,2049
1630674791264,2050
1630674791268,2049
1630674791272,2050
1630674791276,2050
1630674791280,2051
1630674791284,2052
1630674791288,2051
1630674791292,2049
1630674791296,2047
1630674791300,2043
1630674791304,2045
1630674791308,2055
1630674791312,2085
1630674791316,2124
1630674791320,2160
1630674791324,2175
1630674791328,2160
1630674791332,2120
1630674791336,2071
1630674791340,2032
1630674791344,2013
1630674791348,2014
1630674791352,2025
1630674791356,2037
1630674791360,2044
1630674791364,2046
1630674791368,2047
1630674791372,2048
1630674791376,2047
1630674791380,2047
1630674791384,2048
1630674791388,2048
1630674791392,2048
1630674791396,2049
1630674791400,2048
1630674791404,2049
1630674791408,2049
1630674791412,2049
1630674791416,2050
1630674791420,2051
1630674791424,2051
1630674791428,2052
1630674791432,2052
1630674791436,2052
1630674791440,2052
1630674791444,2052
1630674791448,2052
1630674791452,2053
1630674791456,2053
1630674791460,2054
1630674791464,2055
1630674791468,2055
1630674791472,2057
1630674791476,2057
1630674791480,2057
1630674791484,2058
1630674791488,2058
1630674791492,2059
1630674791496,2060
1630674791500,2062
1630674791504,2064
1630674791508,2065
1630674791512,2065
1630674791516,2066
1630674791520,2067
1630674791524,2070
1630674791528,2072
1630674791532,2074
1630674791536,2076
1630674791540,2077
1630674791544,2078
1630674791548,2079
1630674791552,2080
1630674791556,2081
1630674791560,2081
1630674791564,2081
1630674791568,2080
1630674791572,2079
1630674791576,2079
1630674791580,2077
1630674791584,2075
1630674791588,2073
1630674791592,2070
1630674791596,2067
1630674791600,2064
1630674791604,2061
1630674791608,2059
1630674791612,2057
1630674791616,2056
1630674791620,2055
1630674791624,2054
1630674791628,2053
1630674791632,2052
1630674791636,2051
1630674791640,2051
1630674791644,2050
1630674791648,2050
1630674791652,2050
1630674791656,2050
1630674791660,2050
1630674791664,2050
1630674791668,2050
1630674791672,2051
1630674791676,2051
1630674791680,2050
1630674791684,2050
1630674791688,2050
1630674791692,2050
1630674791696,2051
1630674791700,2051
1630674791704,2052
1630674791708,2052
1630674791712,2052
1630674791716,2052
1630674791720,2052
1630674791724,2052
1630674791728,2051
1630674791732,2051
1630674791736,2052
1630674791740,2052
1630674791744,2052
1630674791748,2051
1630674791752,2051
1630674791756,2050
1630674791760,2049
1630674791764,2049
1630674791768,2048
1630674791772,2049
1630674791776,2049
1630674791780,2049
1630674791784,2049
1630674791788,2049
1630674791792,2049
1630674791796,2049
1630674791800,2048
1630674791804,2048
1630674791808,2048
1630674791812,2048
1630674791816,2049
1630674791820,2048
1630674791824,2049
1630674791828,2049
1630674791832,2049
1630674791836,2048
1630674791840,2048
1630674791844,2048
1630674791848,2048
1630674791852,2048
1630674791856,2048
1630674791860,2048
1630674791864,2049
1630674791868,2049
1630674791872,2049
1630674791876,2049
1630674791880,2048
1630674791884,2049
1630674791888,2048
1630674791892,2049
1630674791896,2049
1630674791900,2049
1630674791904,2049
1630674791908,2049
1630674791912,2049
1630674791916,2049
1630674791920,2049
1630674791924,2049
1630674791928,2049
1630674791932,2049
1630674791936,2049
1630674791940,2049
1630674791944,2050
1630674791948,2050
1630674791952,2050
1630674791956,2050
1630674791960,2050
1630674791964,2050
1630674791968,2049
1630674791972,2049
1630674791976,2050
1630674791980,2050
1630674791984,2050
1630674791988,2050
1630674791992,2051
1630674791996,2051
1630674792000,2051
1630674792004,2051
1630674792008,2051
1630674792012,2051
1630674792016,2052
1630674792020,2052
1630674792024,2053
1630674792028,2053
1630674792032,2053
1630674792036,2054
1630674792040,2054
1630674792044,2055
1630674792048,2055
1630674792052,2055
1630674792056,2055
1630674792060,2054
1630674792064,2053
1630674792068,2051
1630674792072,2050
1630674792076,2049
1630674792080,2048
1630674792084,2048
1630674792088,2048
1630674792092,2049
1630674792096,2050
1630674792100,2050
1630674792104,2051
1630674792108,2051
1630674792112,2050
1630674792116,2048
1630674792120,2045
1630674792124,2042
1630674792128,2043
1630674792132,2054
1630674792136,2083
1630674792140,2123
1630674792144,2159
1630674792148,2176
1630674792152,2163
1630674792156,2123
1630674792160,2074
1630674792164,2034
1630674792168,2013
1630674792172,2013
1630674792176,2024
1630674792180,2036
1630674792184,2044
1630674792188,2046
1630674792192,2047
1630674792196,2047
1630674792200,2046
1630674792204,2047
1630674792208,2046
1630674792212,2047
1630674792216,2048
1630674792220,2048
1630674792224,2049
1630674792228,2048
1630674792232,2049
1630674792236,2049
1630674792240,2048
1630674792244,2050
1630674792248,2049
1630674792252,2050
1630674792256,2051
1630674792260,2051
1630674792264,2052
1630674792268,2052
1630674792272,2053
1630674792276,2053
1630674792280,2054
1630674792284,2055
1630674792288,2055
1630674792292,2055
1630674792296,2056
1630674792300,2057
1630674792304,2058
1630674792308,2058
1630674792312,2059
1630674792316,2060
1630674792320,2060
1630674792324,2061
1630674792328,2063
1630674792332,2064
1630674792336,2066
1630674792340,2067
1630674792344,2069
1630674792348,2070
1630674792352,2072
1630674792356,2074
1630674792360,2075
1630674792364,2077
1630674792368,2078
1630674792372,2079
1630674792376,2080
1630674792380,2080
1630674792384,2081
1630674792388,2081
1630674792392,2081
1630674792396,2080
1630674792400,2078
1630674792404,2077
1630674792408,2074
1630674792412,2072
1630674792416,2069
1630674792420,2067
1630674792424,2065
1630674792428,2062
1630674792432,2060
1630674792436,2058
1630674792440,2056
1630674792444,2054
1630674792448,2053
1630674792452,2052
1630674792456,2051
1630674792460,2050
1630674792464,2051
1630674792468,2050
1630674792472,2051
1630674792476,2051
1630674792480,2050
1630674792484,2049
1630674792488,2049
1630674792492,2049
1630674792496,2049
1630674792500,2050
1630674792504,2051
1630674792508,2051
1630674792512,2051
1630674792516,2051
1630674792520,2050
1630674792524,2050
1630674792528,2050
1630674792532,2051
1630674792536,2051
1630674792540,2051
1630674792544,2052
1630674792548,2052
1630674792552,2052
1630674792556,2052
1630674792560,2052
1630674792564,2051
1630674792568,2051
1630674792572,2051
1630674792576,2051
1630674792580,2052
1630674792584,2052
1630674792588,2052
1630674792592,2052
1630674792596,2052
1630674792600,2051
1630674792604,2051
1630674792608,2050
1630674792612,2050
1630674792616,2050
1630674792620,2050
1630674792624,2051
1630674792628,2051
1630674792632,2051
1630674792636,2051
1630674792640,2050
1630674792644,2050
1630674792648,2050
1630674792652,2050
1630674792656,2050
1630674792660,2050
1630674792664,2050
1630674792668,2050
1630674792672,2051
1630674792676,2051
1630674792680,2050
1630674792684,2050
1630674792688,2049
1630674792692,2049
1630674792696,2049
1630674792700,2050
1630674792704,2051
1630674792708,2051
1630674792712,2051
1630674792716,2050
1630674792720,2050
1630674792724,2050
1630674792728,2050
1630674792732,2050
1630674792736,2051
1630674792740,2051
1630674792744,2052
1630674792748,2051
1630674792752,2051
1630674792756,2051
1630674792760,2050
1630674792764,2050
1630674792768,2050
1630674792772,2051
1630674792776,2051
1630674792780,2051
1630674792784,2052
1630674792788,2051
1630674792792,2052
1630674792796,2052
1630674792800,2051
1630674792804,2051
1630674792808,2051
1630674792812,2052
1630674792816,2052
1630674792820,2053
1630674792824,2054
1630674792828,2055
1630674792832,2055
1630674792836,2055
1630674792840,2054
1630674792844,2055
1630674792848,2055
1630674792852,2056
1630674792856,2058
1630674792860,2058
1630674792864,2058
1630674792868,2057
1630674792872,2056
1630674792876,2054
1630674792880,2052
1630674792884,2051
1630674792888,2050
1630674792892,2050
1630674792896,2050
1630674792900,2050
1630674792904,2050
1630674792908,2051
1630674792912,2051
1630674792916,2052
1630674792920,2052
1630674792924,2051
1630674792928,2048
1630674792932,2045
1630674792936,2043
1630674792940,2048
1630674792944,2070
1630674792948,2107
1630674792952,2146
1630674792956,2172
1630674792960,2170
1630674792964,2140
1630674792968,2092
1630674792972,2047
1630674792976,2019
1630674792980,2013
1630674792984,2021
1630674792988,2034
1630674792992,2044
1630674792996,2047
1630674793000,2048
1630674793004,2048
1630674793008,2048
1630674793012,2048
1630674793016,2048
1630674793020,2048
1630674793024,2048
1630674793028,2048
1630674793032,2049
1630674793036,2049
1630674793040,2049
1630674793044,2050
1630674793048,2050
1630674793052,2050
1630674793056,2051
1630674793060,2051
1630674793064,2052
1630674793068,2052
1630674793072,2053
1630674793076,2053
1630674793080,2053
1630674793084,2054
1630674793088,2054
1630674793092,2055
1630674793096,2056
1630674793100,2057
1630674793104,2058
1630674793108,2058
1630674793112,2058
1630674793116,2058
1630674793120,2059
1630674793124,2060
1630674793128,2062
1630674793132,2063
1630674793136,2065
1630674793140,2066
1630674793144,2067
1630674793148,2068
1630674793152,2070
1630674793156,2071
1630674793160,2073
1630674793164,2075
1630674793168,2076
1630674793172,2077
1630674793176,2079
1630674793180,2080
1630674793184,2081
1630674793188,2082
1630674793192,2082
1630674793196,2082
1630674793200,2082
1630674793204,2082
1630674793208,2081
1630674793212,2079
1630674793216,2078
1630674793220,2075
1630674793224,2073
1630674793228,2069
1630674793232,2067
1630674793236,2064
1630674793240,2061
1630674793244,2060
1630674793248,2057
1630674793252,2056
1630674793256,2055
1630674793260,2054
1630674793264,2054
1630674793268,2053
1630674793272,2052
1630674793276,2051
1630674793280,2051
1630674793284,2051
1630674793288,2051
1630674793292,2051
1630674793296,2051
1630674793300,2051
1630674793304,2052
1630674793308,2051
1630674793312,2052
1630674793316,2052
1630674793320,2052
1630674793324,2052
1630674793328,2052
1630674793332,2052
1630674793336,2053
1630674793340,2052
1630674793344,2052
1630674793348,2052
1630674793352,2053
1630674793356,2052
1630674793360,2053
1630674793364,2053
1630674793368,2053
1630674793372,2053
1630674793376,2053
1630674793380,2053
1630674793384,2053
1630674793388,2053
1630674793392,2053
1630674793396,2053
1630674793400,2052
1630674793404,2052
1630674793408,2051
1630674793412,2051
1630674793416,2051
1630674793420,2051
1630674793424,2052
1630674793428,2051
1630674793432,2052
1630674793436,2051
1630674793440,2051
1630674793444,2051
1630674793448,2050
1630674793452,2051
1630674793456,2051
1630674793460,2051
1630674793464,2051
1630674793468,2051
1630674793472,2052
1630674793476,2052
1630674793480,2052
1630674793484,2051
1630674793488,2050
1630674793492,2051
1630674793496,2051
1630674793500,2052
1630674793504,2052
1630674793508,2051
1630674793512,2050
1630674793516,2050
1630674793520,2050
1630674793524,2051
1630674793528,2052
1630674793532,2051
1630674793536,2051
1630674793540,2051
1630674793544,2051
1630674793548,2052
1630674793552,2052
1630674793556,2052
1630674793560,2051
1630674793564,2051
1630674793568,2051
1630674793572,2052
1630674793576,2052
1630674793580,2052
1630674793584,2052
1630674793588,2052
1630674793592,2052
1630674793596,2052
1630674793600,2052
1630674793604,2052
1630674793608,2052
1630674793612,2053
1630674793616,2054
1630674793620,2054
1630674793624,2055
1630674793628,2055
1630674793632,2055
1630674793636,2055
1630674793640,2055
1630674793644,2055
1630674793648,2056
1630674793652,2056
1630674793656,2057
1630674793660,2058
1630674793664,2058
1630674793668,2058
1630674793672,2057
1630674793676,2056
1630674793680,2054
1630674793684,2053
1630674793688,2052
1630674793692,2051
1630674793696,2051
1630674793700,2051
1630674793704,2052
1630674793708,2052
1630674793712,2053
1630674793716,2054
1630674793720,2054
1630674793724,2054
1630674793728,2053
1630674793732,2050
1630674793736,2047
1630674793740,2045
1630674793744,2050
1630674793748,2072
1630674793752,2109
1630674793756,2148
1630674793760,2173
1630674793764,2171
1630674793768,2140
1630674793772,2092
1630674793776,2048
1630674793780,2021
1630674793784,2016
1630674793788,2024
1630674793792,2036
1630674793796,2046
1630674793800,2048
1630674793804,2049
1630674793808,2050
1630674793812,2050
1630674793816,2049
1630674793820,2049
1630674793824,2050
1630674793828,2050
1630674793832,2051
1630674793836,2051
1630674793840,2051
1630674793844,2052
1630674793848,2053
1630674793852,2054
1630674793856,2055
1630674793860,2055
1630674793864,2056
1630674793868,2056
1630674793872,2057
1630674793876,2057
1630674793880,2057
1630674793884,2057
1630674793888,2058
1630674793892,2059
1630674793896,2059
1630674793900,2059
1630674793904,2060
1630674793908,2060
1630674793912,2061
1630674793916,2062
1630674793920,2062
1630674793924,2063
1630674793928,2064
1630674793932,2065
1630674793936,2067
1630674793940,2068
1630674793944,2070
1630674793948,2072
1630674793952,2073
1630674793956,2075
1630674793960,2076
1630674793964,2077
1630674793968,2079
1630674793972,2081
1630674793976,2083
1630674793980,2084
1630674793984,2086
1630674793988,2087
1630674793992,2087
1630674793996,2087
1630674794000,2086
1630674794004,2086
1630674794008,2086
1630674794012,2086
1630674794016,2085
1630674794020,2084
1630674794024,2082
1630674794028,2078
1630674794032,2075
1630674794036,2072
1630674794040,2069
1630674794044,2067
1630674794048,2065
1630674794052,2063
1630674794056,2062
1630674794060,2060
1630674794064,2060
1630674794068,2059
1630674794072,2059
1630674794076,2058
1630674794080,2057
1630674794084,2057
1630674794088,2056
1630674794092,2057
1630674794096,2058
1630674794100,2058
1630674794104,2058
1630674794108,2058
1630674794112,2057
1630674794116,2056
1630674794120,2056
1630674794124,2057
1630674794128,2057
1630674794132,2058
1630674794136,2059
1630674794140,2059
1630674794144,2059
1630674794148,2059
1630674794152,2059
1630674794156,2058
1630674794160,2058
1630674794164,2058
1630674794168,2057
1630674794172,2057
1630674794176,2058
1630674794180,2058
1630674794184,2059
1630674794188,2059
1630674794192,2059
1630674794196,2059
1630674794200,2058
1630674794204,2058
1630674794208,2058
1630674794212,2058
1630674794216,2059
1630674794220,2059
1630674794224,2059
1630674794228,2058
1630674794232,2058
1630674794236,2057
1630674794240,2057
1630674794244,2058
1630674794248,2057
1630674794252,2057
1630674794256,2057
1630674794260,2057
1630674794264,2059
1630674794268,2058
1630674794272,2059
1630674794276,2058
1630674794280,2057
1630674794284,2057
1630674794288,2056
1630674794292,2057
1630674794296,2058
1630674794300,2058
1630674794304,2058
1630674794308,2057
1630674794312,2057
1630674794316,2057
1630674794320,2057
1630674794324,2057
1630674794328,2058
1630674794332,2059
1630674794336,2059
1630674794340,2059
1630674794344,2058
1630674794348,2057
1630674794352,2057
1630674794356,2056
1630674794360,2056
1630674794364,2057
1630674794368,2057
1630674794372,2057
1630674794376,2057
1630674794380,2056
1630674794384,2056
1630674794388,2056
1630674794392,2056
1630674794396,2056
1630674794400,2056
1630674794404,2057
1630674794408,2057
1630674794412,2058
1630674794416,2058
1630674794420,2058
1630674794424,2058
1630674794428,2058
1630674794432,2059
1630674794436,2059
1630674794440,2059
1630674794444,2060
1630674794448,2059
1630674794452,2058
1630674794456,2056
1630674794460,2054
1630674794464,2054
1630674794468,2053
1630674794472,2053
1630674794476,2053
1630674794480,2052
1630674794484,2052
1630674794488,2051
1630674794492,2051
1630674794496,2052
1630674794500,2053
1630674794504,2054
1630674794508,2054
1630674794512,2050
1630674794516,2047
1630674794520,2044
1630674794524,2051
1630674794528,2076
1630674794532,2116
1630674794536,2157
1630674794540,2180
1630674794544,2173
1630674794548,2136
1630674794552,2084
1630674794556,2040
1630674794560,2014
1630674794564,2011
1630674794568,2021
1630674794572,2034
1630674794576,2043
1630674794580,2045
1630674794584,2047
1630674794588,2048
1630674794592,2048
1630674794596,2048
1630674794600,2048
1630674794604,2048
1630674794608,2048
1630674794612,2048
1630674794616,2048
1630674794620,2048
1630674794624,2049
1630674794628,2050
1630674794632,2051
1630674794636,2051
1630674794640,2051
1630674794644,2051
1630674794648,2051
1630674794652,2052
1630674794656,2053
1630674794660,2053
1630674794664,2053
1630674794668,2054
1630674794672,2054
1630674794676,2054
1630674794680,2054
1630674794684,2055
1630674794688,2055
1630674794692,2056
1630674794696,2057
1630674794700,2058
1630674794704,2059
1630674794708,2060
1630674794712,2061
1630674794716,2062
1630674794720,2062
1630674794724,2064
1630674794728,2065
1630674794732,2067
1630674794736,2069
1630674794740,2071
1630674794744,2073
1630674794748,2075
1630674794752,2076
1630674794756,2078
1630674794760,2079
1630674794764,2081
1630674794768,2082
1630674794772,2083
1630674794776,2084
1630674794780,2084
1630674794784,2083
1630674794788,2082
1630674794792,2081
1630674794796,2079
1630674794800,2076
1630674794804,2073
1630674794808,2070
1630674794812,2067
1630674794816,2064
1630674794820,2061
1630674794824,2059
1630674794828,2056
1630674794832,2054
1630674794836,2053
1630674794840,2052
1630674794844,2051
1630674794848,2049
1630674794852,2048
1630674794856,2048
1630674794860,2048
1630674794864,2048
1630674794868,2048
1630674794872,2048
1630674794876,2048
1630674794880,2048
1630674794884,2048
1630674794888,2048
1630674794892,2048
1630674794896,2048
1630674794900,2048
1630674794904,2048
1630674794908,2048
1630674794912,2049
1630674794916,2049
1630674794920,2048
1630674794924,2049
1630674794928,2049
1630674794932,2049
1630674794936,2049
1630674794940,2049
1630674794944,2050
1630674794948,2050
1630674794952,2050
1630674794956,2050
1630674794960,2049
1630674794964,2049
1630674794968,2048
1630674794972,2048
1630674794976,2049
1630674794980,2048
1630674794984,2049
1630674794988,2048
1630674794992,2048
1630674794996,2048
1630674795000,2048
1630674795004,2048
1630674795008,2048
1630674795012,2048
1630674795016,2048
1630674795020,2048
1630674795024,2048
1630674795028,2048
1630674795032,2048
1630674795036,2047
1630674795040,2046
1630674795044,2046
1630674795048,2046
1630674795052,2047
1630674795056,2048
1630674795060,2048
1630674795064,2048
1630674795068,2048
1630674795072,2048
1630674795076,2047
1630674795080,2047
1630674795084,2047
1630674795088,2047
1630674795092,2047
1630674795096,2047
1630674795100,2047
1630674795104,2048
1630674795108,2047
1630674795112,2047
1630674795116,2046
1630674795120,2045
1630674795124,2045
1630674795128,2046
1630674795132,2047
1630674795136,2048
1630674795140,2048
1630674795144,2048
1630674795148,2048
1630674795152,2048
1630674795156,2048
1630674795160,2047
1630674795164,2048
1630674795168,2048
1630674795172,2048
1630674795176,2048
1630674795180,2048
1630674795184,2049
1630674795188,2049
1630674795192,2049
1630674795196,2050
1630674795200,2050
1630674795204,2051
1630674795208,2051
1630674795212,2052
1630674795216,2052
1630674795220,2051
1630674795224,2051
1630674795228,2048
1630674795232,2048
1630674795236,2047
1630674795240,2046
1630674795244,2046
1630674795248,2045
1630674795252,2045
1630674795256,2046
1630674795260,2046
1630674795264,2047
1630674795268,2047
1630674795272,2048
1630674795276,2048
1630674795280,2046
1630674795284,2042
1630674795288,2038
1630674795292,2039
1630674795296,2052
1630674795300,2084
1630674795304,2125
1630674795308,2158
1630674795312,2170
1630674795316,2151
1630674795320,2107
1630674795324,2058
1630674795328,2021
1630674795332,2006
1630674795336,2009
1630674795340,2021
1630674795344,2032
1630674795348,2039
1630674795352,2041
1630674795356,2042
1630674795360,2042
1630674795364,2041
1630674795368,2041
1630674795372,2042
1630674795376,2042
1630674795380,2043
1630674795384,2044
1630674795388,2044
1630674795392,2045
1630674795396,2045
1630674795400,2045
1630674795404,2045
1630674795408,2046
1630674795412,2046
1630674795416,2047
1630674795420,2047
1630674795424,2048
1630674795428,2048
1630674795432,2048
1630674795436,2048
1630674795440,2048
1630674795444,2048
1630674795448,2049
1630674795452,2050
1630674795456,2050
1630674795460,2051
1630674795464,2052
1630674795468,2053
1630674795472,2054
1630674795476,2055
1630674795480,2056
1630674795484,2056
1630674795488,2057
1630674795492,2059
1630674795496,2060
1630674795500,2062
1630674795504,2064
1630674795508,2065
1630674795512,2067
1630674795516,2068
1630674795520,2070
1630674795524,2072
1630674795528,2074
1630674795532,2075
1630674795536,2076
1630674795540,2076
1630674795544,2077
1630674795548,2078
1630674795552,2079
1630674795556,2078
1630674795560,2076
1630674795564,2075
1630674795568,2072
1630674795572,2070
1630674795576,2068
1630674795580,2065
1630674795584,2063
1630674795588,2060
1630674795592,2058
1630674795596,2055
1630674795600,2053
1630674795604,2051
1630674795608,2050
1630674795612,2049
1630674795616,2049
1630674795620,2048
1630674795624,2048
1630674795628,2048
1630674795632,2048
1630674795636,2048
1630674795640,2047
1630674795644,2047
1630674795648,2047
1630674795652,2047
1630674795656,2047
1630674795660,2047
1630674795664,2048
1630674795668,2047
1630674795672,2048
1630674795676,2047
1630674795680,2047
1630674795684,2047
1630674795688,2047
1630674795692,2048
1630674795696,2048
1630674795700,2048
1630674795704,2048
1630674795708,2048
1630674795712,2048
1630674795716,2048
1630674795720,2048
1630674795724,2048
1630674795728,2048
1630674795732,2048
1630674795736,2048
1630674795740,2048
1630674795744,2048
1630674795748,2048
1630674795752,2048
1630674795756,2048
1630674795760,2047
1630674795764,2047
1630674795768,2047
1630674795772,2047
1630674795776,2047
1630674795780,2047
1630674795784,2048
1630674795788,2048
1630674795792,2047
1630674795796,2047
1630674795800,2046
1630674795804,2046
1630674795808,2046
1630674795812,2047
1630674795816,2047
1630674795820,2047
1630674795824,2047
1630674795828,2047
1630674795832,2047
1630674795836,2047
1630674795840,2046
1630674795844,2046
1630674795848,2046
1630674795852,2046
1630674795856,2046
1630674795860,2047
1630674795864,2047
1630674795868,2047
1630674795872,2047
1630674795876,2047
1630674795880,2046
1630674795884,2046
1630674795888,2046
1630674795892,2047
1630674795896,2047
1630674795900,2047
1630674795904,2047
1630674795908,2047
1630674795912,2047
1630674795916,2048
1630674795920,2047
1630674795924,2047
1630674795928,2047
1630674795932,2048
1630674795936,2048
1630674795940,2048
1630674795944,2048
1630674795948,2048
1630674795952,2049
1630674795956,2049
1630674795960,2048
1630674795964,2048
1630674795968,2049
1630674795972,2049
1630674795976,2050
1630674795980,2051
1630674795984,2052
1630674795988,2052
1630674795992,2053
1630674795996,2053
1630674796000,2051
1630674796004,2050
1630674796008,2049
1630674796012,2048
1630674796016,2048
1630674796020,2047
1630674796024,2047
1630674796028,2047
1630674796032,2048
1630674796036,2048
1630674796040,2047
1630674796044,2047
1630674796048,2048
1630674796052,2048
1630674796056,2048
1630674796060,2046
1630674796064,2042
1630674796068,2039
1630674796072,2042
1630674796076,2058
1630674796080,2091
1630674796084,2131
1630674796088,2163
1630674796092,2170
1630674796096,2147
1630674796100,2102
1630674796104,2054
1630674796108,2019
1630674796112,2006
1630674796116,2011
1630674796120,2023
1630674796124,2034
1630674796128,2041
1630674796132,2043
1630674796136,2045
1630674796140,2044
1630674796144,2044
1630674796148,2044
1630674796152,2044
1630674796156,2045
1630674796160,2045
1630674796164,2046
1630674796168,2046
1630674796172,2046
1630674796176,2046
1630674796180,2046
1630674796184,2047
1630674796188,2047
1630674796192,2048
1630674796196,2048
1630674796200,2048
1630674796204,2049
1630674796208,2049
1630674796212,2049
1630674796216,2050
1630674796220,2050
1630674796224,2051
1630674796228,2051
1630674796232,2052
1630674796236,2052
1630674796240,2052
1630674796244,2054
1630674796248,2054
1630674796252,2055
1630674796256,2056
1630674796260,2057
1630674796264,2059
1630674796268,2060
1630674796272,2062
1630674796276,2063
1630674796280,2064
1630674796284,2065
1630674796288,2066
1630674796292,2068
1630674796296,2070
1630674796300,2071
1630674796304,2073
1630674796308,2074
1630674796312,2075
1630674796316,2076
1630674796320,2077
1630674796324,2078
1630674796328,2079
1630674796332,2079
1630674796336,2079
1630674796340,2078
1630674796344,2076
1630674796348,2074
1630674796352,2071
1630674796356,2069
1630674796360,2066
1630674796364,2064
1630674796368,2061
1630674796372,2059
1630674796376,2057
1630674796380,2055
1630674796384,2054
1630674796388,2053
1630674796392,2052
1630674796396,2051
1630674796400,2049
1630674796404,2048
1630674796408,2048
1630674796412,2048
1630674796416,2049
1630674796420,2049
1630674796424,2050
1630674796428,2050
1630674796432,2050
1630674796436,2050
1630674796440,2049
1630674796444,2049
1630674796448,2049
1630674796452,2050
1630674796456,2049
1630674796460,2049
1630674796464,2049
1630674796468,2050
1630674796472,2051
1630674796476,2052
1630674796480,2051
1630674796484,2051
1630674796488,2050
1630674796492,2049
1630674796496,2049
1630674796500,2049
1630674796504,2050
1630674796508,2051
1630674796512,2051
1630674796516,2051
1630674796520,2050
1630674796524,2050
1630674796528,2050
1630674796532,2050
1630674796536,2050
1630674796540,2050
1630674796544,2050
1630674796548,2050
1630674796552,2050
1630674796556,2049
1630674796560,2049
1630674796564,2049
1630674796568,2049
1630674796572,2049
1630674796576,2049
1630674796580,2048
1630674796584,2049
1630674796588,2049
1630674796592,2050
1630674796596,2050
1630674796600,2050
1630674796604,2049
1630674796608,2049
1630674796612,2049
1630674796616,2049
1630674796620,2049
1630674796624,2049
1630674796628,2050
1630674796632,2049
1630674796636,2050
1630674796640,2049
1630674796644,2050
1630674796648,2050
1630674796652,2050
1630674796656,2050
1630674796660,2050
1630674796664,2050
1630674796668,2050
1630674796672,2050
1630674796676,2050
1630674796680,2050
1630674796684,2050
1630674796688,2050
1630674796692,2051
1630674796696,2051
1630674796700,2051
1630674796704,2051
1630674796708,2051
1630674796712,2051
1630674796716,2050
1630674796720,2049
1630674796724,2049
1630674796728,2049
1630674796732,2050
1630674796736,2052
1630674796740,2054
1630674796744,2054
1630674796748,2055
1630674796752,2055
1630674796756,2055
1630674796760,2056
1630674796764,2056
1630674796768,2057
1630674796772,2057
1630674796776,2057
1630674796780,2056
1630674796784,2055
1630674796788,2054
1630674796792,2053
1630674796796,2051
1630674796800,2049
1630674796804,2049
1630674796808,2049
1630674796812,2049
1630674796816,2050
1630674796820,2049
1630674796824,2050
1630674796828,2051
1630674796832,2051
1630674796836,2052
1630674796840,2050
1630674796844,2048
1630674796848,2044
1630674796852,2045
1630674796856,2059
1630674796860,2092
1630674796864,2134
1630674796868,2169
1630674796872,2179
1630674796876,2158
1630674796880,2112
1630674796884,2061
1630674796888,2025
1630674796892,2011
1630674796896,2015
1630674796900,2026
1630674796904,2038
1630674796908,2044
1630674796912,2046
1630674796916,2048
1630674796920,2048
1630674796924,2048
1630674796928,2047
1630674796932,2047
1630674796936,2047
1630674796940,2048
1630674796944,2048
1630674796948,2048
1630674796952,2049
1630674796956,2049
1630674796960,2048
1630674796964,2048
1630674796968,2048
1630674796972,2049
1630674796976,2050
1630674796980,2051
1630674796984,2052
1630674796988,2053
1630674796992,2054
1630674796996,2054
1630674797000,2054
1630674797004,2054
1630674797008,2055
1630674797012,2056
1630674797016,2057
1630674797020,2058
1630674797024,2058
1630674797028,2058
1630674797032,2059
1630674797036,2060
1630674797040,2061
1630674797044,2063
1630674797048,2064
1630674797052,2065
1630674797056,2067
1630674797060,2068
1630674797064,2070
1630674797068,2072
1630674797072,2075
1630674797076,2077
1630674797080,2078
1630674797084,2079
1630674797088,2080
1630674797092,2082
1630674797096,2084
1630674797100,2085
1630674797104,2086
1630674797108,2086
1630674797112,2086
1630674797116,2085
1630674797120,2083
1630674797124,2082
1630674797128,2081
1630674797132,2078
1630674797136,2076
1630674797140,2072
1630674797144,2068
1630674797148,2065
1630674797152,2063
1630674797156,2062
1630674797160,2060
1630674797164,2059
1630674797168,2057
1630674797172,2055
1630674797176,2055
1630674797180,2053
1630674797184,2053
1630674797188,2052
1630674797192,2052
1630674797196,2052
1630674797200,2051
1630674797204,2051
1630674797208,2051
1630674797212,2051
1630674797216,2051
1630674797220,2051
1630674797224,2052
1630674797228,2051
1630674797232,2051
1630674797236,2051
1630674797240,2050
1630674797244,2051
1630674797248,2050
1630674797252,2051
1630674797256,2051
1630674797260,2052
1630674797264,2053
1630674797268,2052
1630674797272,2052
1630674797276,2051
1630674797280,2051
1630674797284,2051
1630674797288,2051
1630674797292,2052
1630674797296,2052
1630674797300,2051
1630674797304,2051
1630674797308,2049
1630674797312,2050
1630674797316,2049
1630674797320,2049
1630674797324,2049
1630674797328,2049
1630674797332,2049
1630674797336,2048
1630674797340,2048
1630674797344,2048
1630674797348,2048
1630674797352,2048
1630674797356,2048
1630674797360,2048
1630674797364,2048
1630674797368,2048
1630674797372,2048
1630674797376,2048
1630674797380,2048
1630674797384,2048
1630674797388,2048
1630674797392,2048
1630674797396,2048
1630674797400,2047
1630674797404,2047
1630674797408,2047
1630674797412,2046
1630674797416,2047
1630674797420,2046
1630674797424,2047
1630674797428,2047
1630674797432,2048
1630674797436,2048
1630674797440,2047
1630674797444,2047
1630674797448,2047
1630674797452,2047
1630674797456,2047
1630674797460,2048
1630674797464,2048
1630674797468,2048
1630674797472,2048
1630674797476,2048
1630674797480,2047
1630674797484,2047
1630674797488,2046
1630674797492,2047
1630674797496,2048
1630674797500,2048
1630674797504,2048
1630674797508,2048
1630674797512,2048
1630674797516,2048
1630674797520,2048
1630674797524,2048
1630674797528,2049
1630674797532,2050
1630674797536,2050
1630674797540,2050
1630674797544,2051
1630674797548,2051
1630674797552,2051
1630674797556,2050
1630674797560,2048
1630674797564,2047
1630674797568,2046
1630674797572,2045
1630674797576,2045
1630674797580,2045
1630674797584,2046
1630674797588,2046
1630674797592,2046
1630674797596,2046
1630674797600,2046
1630674797604,2047
1630674797608,2046
1630674797612,2043
1630674797616,2039
1630674797620,2037
1630674797624,2044
1630674797628,2067
1630674797632,2105
1630674797636,2144
1630674797640,2167
1630674797644,2162
1630674797648,2128
1630674797652,2078
1630674797656,2035
1630674797660,2009
1630674797664,2005
1630674797668,2014
1630674797672,2026
1630674797676,2035
1630674797680,2038
1630674797684,2040
1630674797688,2040
1630674797692,2040
1630674797696,2040
1630674797700,2040
1630674797704,2041
1630674797708,2041
1630674797712,2042
1630674797716,2042
1630674797720,2042
1630674797724,2043
1630674797728,2043
1630674797732,2044
1630674797736,2045
1630674797740,2045
1630674797744,2046
1630674797748,2046
1630674797752,2046
1630674797756,2046
1630674797760,2046
1630674797764,2046
1630674797768,2046
1630674797772,2047
1630674797776,2048
1630674797780,2048
1630674797784,2048
1630674797788,2049
1630674797792,2050
1630674797796,2050
1630674797800,2050
1630674797804,2051
1630674797808,2052
1630674797812,2052
1630674797816,2054
1630674797820,2055
1630674797824,2057
1630674797828,2059
1630674797832,2060
1630674797836,2062
1630674797840,2062
1630674797844,2064
1630674797848,2065
1630674797852,2067
1630674797856,2069
1630674797860,2071
1630674797864,2072
1630674797868,2073
1630674797872,2074
1630674797876,2074
1630674797880,2073
1630674797884,2073
1630674797888,2073
1630674797892,2071
1630674797896,2070
1630674797900,2067
1630674797904,2064
1630674797908,2061
1630674797912,2058
1630674797916,2056
1630674797920,2053
1630674797924,2051
1630674797928,2048
1630674797932,2048
1630674797936,2047
1630674797940,2045
1630674797944,2045
1630674797948,2044
1630674797952,2043
1630674797956,2043
1630674797960,2042
1630674797964,2042
1630674797968,2041
1630674797972,2042
1630674797976,2042
1630674797980,2042
1630674797984,2042
1630674797988,2042
1630674797992,2042
1630674797996,2042
1630674798000,2042
1630674798004,2042
1630674798008,2042
1630674798012,2042
1630674798016,2042
1630674798020,2042
1630674798024,2043
1630674798028,2043
1630674798032,2044
1630674798036,2044
1630674798040,2043
1630674798044,2044
1630674798048,2043
1630674798052,2043
1630674798056,2043
1630674798060,2043
1630674798064,2043
1630674798068,2043
1630674798072,2044
1630674798076,2043
1630674798080,2043
1630674798084,2042
1630674798088,2042
1630674798092,2042
1630674798096,2043
1630674798100,2043
1630674798104,2043
1630674798108,2042
1630674798112,2042
1630674798116,2041
1630674798120,2041
1630674798124,2041
1630674798128,2042
1630674798132,2042
1630674798136,2042
1630674798140,2042
1630674798144,2042
1630674798148,2042
1630674798152,2042
1630674798156,2042
1630674798160,2041
1630674798164,2041
1630674798168,2041
1630674798172,2041
1630674798176,2042
1630674798180,2042
1630674798184,2042
1630674798188,2042
1630674798192,2043
1630674798196,2042
1630674798200,2042
1630674798204,2042
1630674798208,2041
1630674798212,2042
1630674798216,2043
1630674798220,2043
1630674798224,2044
1630674798228,2042
1630674798232,2042
1630674798236,2042
1630674798240,2041
1630674798244,2042
1630674798248,2042
1630674798252,2043
1630674798256,2043
1630674798260,2043
1630674798264,2044
1630674798268,2044
1630674798272,2044
1630674798276,2044
1630674798280,2044
1630674798284,2045
1630674798288,2045
1630674798292,2045
1630674798296,2046
1630674798300,2046
1630674798304,2048
1630674798308,2047
1630674798312,2048
1630674798316,2048
1630674798320,2048
1630674798324,2048
1630674798328,2048
1630674798332,2048
1630674798336,2048
1630674798340,2046
1630674798344,2045
1630674798348,2043
1630674798352,2043
1630674798356,2043
1630674798360,2043
1630674798364,2043
1630674798368,2043
1630674798372,2044
1630674798376,2044
1630674798380,2044
1630674798384,2045
1630674798388,2044
1630674798392,2042
1630674798396,2038
1630674798400,2035
1630674798404,2039
1630674798408,2057
1630674798412,2092
1630674798416,2133
1630674798420,2163
1630674798424,2168
1630674798428,2141
1630674798432,2093
1630674798436,2046
1630674798440,2012
1630674798444,2003
1630674798448,2009
1630674798452,2023
1630674798456,2033
1630674798460,2038
1630674798464,2040
1630674798468,2040
1630674798472,2041
1630674798476,2040
1630674798480,2039
1630674798484,2039
1630674798488,2039
1630674798492,2040
1630674798496,2041
1630674798500,2041
1630674798504,2042
1630674798508,2043
1630674798512,2043
1630674798516,2043
1630674798520,2043
1630674798524,2043
1630674798528,2044
1630674798532,2044
1630674798536,2045
1630674798540,2045
1630674798544,2046
1630674798548,2046
1630674798552,2047
1630674798556,2047
1630674798560,2047
1630674798564,2047
1630674798568,2048
1630674798572,2048
1630674798576,2049
1630674798580,2050
1630674798584,2051
1630674798588,2052
1630674798592,2053
1630674798596,2054
1630674798600,2055
1630674798604,2056
1630674798608,2057
1630674798612,2059
1630674798616,2061
1630674798620,2062
1630674798624,2064
1630674798628,2065
1630674798632,2067
1630674798636,2069
1630674798640,2070
1630674798644,2071
1630674798648,2072
1630674798652,2072
1630674798656,2073
1630674798660,2073
1630674798664,2074
1630674798668,2073
1630674798672,2072
1630674798676,2070
1630674798680,2067
1630674798684,2065
1630674798688,2062
1630674798692,2060
1630674798696,2058
1630674798700,2055
1630674798704,2053
1630674798708,2051
1630674798712,2049
1630674798716,2048
1630674798720,2048
1630674798724,2047
1630674798728,2046
1630674798732,2045
1630674798736,2045
1630674798740,2044
1630674798744,2045
1630674798748,2045
1630674798752,2045
1630674798756,2045
1630674798760,2044
1630674798764,2044
1630674798768,2044
1630674798772,2044
1630674798776,2045
1630674798780,2045
1630674798784,2045
1630674798788,2045
1630674798792,2045
1630674798796,2045
1630674798800,2045
1630674798804,2045
1630674798808,2045
1630674798812,2046
1630674798816,2046
1630674798820,2046
1630674798824,2046
1630674798828,2046
1630674798832,2047
1630674798836,2047
1630674798840,2047
1630674798844,2046
1630674798848,2046
1630674798852,2045
1630674798856,2046
1630674798860,2045
1630674798864,2046
1630674798868,2046
1630674798872,2045
1630674798876,2045
1630674798880,2045
1630674798884,2045
1630674798888,2045
1630674798892,2045
1630674798896,2046
1630674798900,2046
1630674798904,2046
1630674798908,2045
1630674798912,2045
1630674798916,2045
1630674798920,2044
1630674798924,2045
1630674798928,2045
1630674798932,2045
1630674798936,2045
1630674798940,2045
1630674798944,2045
1630674798948,2045
1630674798952,2045
1630674798956,2045
1630674798960,2044
1630674798964,2044
1630674798968,2044
1630674798972,2044
1630674798976,2044
1630674798980,2044
1630674798984,2045
1630674798988,2044
1630674798992,2044
1630674798996,2044
1630674799000,2044
1630674799004,2043
1630674799008,2043
1630674799012,2043
1630674799016,2043
1630674799020,2043
1630674799024,2043
1630674799028,2043
1630674799032,2043
1630674799036,2043
1630674799040,2043
1630674799044,2043
1630674799048,2043
1630674799052,2043
1630674799056,2043
1630674799060,2043
1630674799064,2043
1630674799068,2042
1630674799072,2041
1630674799076,2041
1630674799080,2043
1630674799084,2045
1630674799088,2046
1630674799092,2047
1630674799096,2048
1630674799100,2048
1630674799104,2048
1630674799108,2048
1630674799112,2048
1630674799116,2048
1630674799120,2048
1630674799124,2048
1630674799128,2048
1630674799132,2048
1630674799136,2047
1630674799140,2045
1630674799144,2044
1630674799148,2044
1630674799152,2043
1630674799156,2043
1630674799160,2043
1630674799164,2043
1630674799168,2043
1630674799172,2043
1630674799176,2044
1630674799180,2045
1630674799184,2045
1630674799188,2044
1630674799192,2040
1630674799196,2035
1630674799200,2035
1630674799204,2048
1630674799208,2080
1630674799212,2122
1630674799216,2158
1630674799220,2171
1630674799224,2153
1630674799228,2108
1630674799232,2058
1630674799236,2020
1630674799240,2003
1630674799244,2007
1630674799248,2018
1630674799252,2030
1630674799256,2037
1630674799260,2038
1630674799264,2040
1630674799268,2040
1630674799272,2041
1630674799276,2041
1630674799280,2041
1630674799284,2042
1630674799288,2041
1630674799292,2041
1630674799296,2041
1630674799300,2042
1630674799304,2043
1630674799308,2043
1630674799312,2045
1630674799316,2045
1630674799320,2044
1630674799324,2044
1630674799328,2044
1630674799332,2044
1630674799336,2045
1630674799340,2046
1630674799344,2046
1630674799348,2047
1630674799352,2048
1630674799356,2048
1630674799360,2048
1630674799364,2048
1630674799368,2048
1630674799372,2048
1630674799376,2049
1630674799380,2049
1630674799384,2051
1630674799388,2052
1630674799392,2053
1630674799396,2054
1630674799400,2055
1630674799404,2056
1630674799408,2058
1630674799412,2059
1630674799416,2061
1630674799420,2062
1630674799424,2064
1630674799428,2065
1630674799432,2067
1630674799436,2069
1630674799440,2070
1630674799444,2071
1630674799448,2072
1630674799452,2073
1630674799456,2073
1630674799460,2073
1630674799464,2073
1630674799468,2073
1630674799472,2073
1630674799476,2071
1630674799480,2068
1630674799484,2065
1630674799488,2061
1630674799492,2058
1630674799496,2056
1630674799500,2054
1630674799504,2052
1630674799508,2051
1630674799512,2048
1630674799516,2047
1630674799520,2045
1630674799524,2044
1630674799528,2044
1630674799532,2044
1630674799536,2044
1630674799540,2044
1630674799544,2044
1630674799548,2044
1630674799552,2044
1630674799556,2044
1630674799560,2043
1630674799564,2044
1630674799568,2044
1630674799572,2045
1630674799576,2045
1630674799580,2046
1630674799584,2047
1630674799588,2046
1630674799592,2046
1630674799596,2047
1630674799600,2046
1630674799604,2046
1630674799608,2046
1630674799612,2047
1630674799616,2048
1630674799620,2048
1630674799624,2048
1630674799628,2048
1630674799632,2048
1630674799636,2048
1630674799640,2047
1630674799644,2046
1630674799648,2045
1630674799652,2046
1630674799656,2046
1630674799660,2047
1630674799664,2048
1630674799668,2048
1630674799672,2048
1630674799676,2047
1630674799680,2046
1630674799684,2046
1630674799688,2045
1630674799692,2045
1630674799696,2046
1630674799700,2046
1630674799704,2047
1630674799708,2047
1630674799712,2047
1630674799716,2046
1630674799720,2044
1630674799724,2044
1630674799728,2045
1630674799732,2046
1630674799736,2047
1630674799740,2047
1630674799744,2047
1630674799748,2047
1630674799752,2047
1630674799756,2047
1630674799760,2047
1630674799764,2048
1630674799768,2047
1630674799772,2047
1630674799776,2047
1630674799780,2047
1630674799784,2048
1630674799788,2048
1630674799792,2048
1630674799796,2048
1630674799800,2048
1630674799804,2048
1630674799808,2047
1630674799812,2047
1630674799816,2047
1630674799820,2047
1630674799824,2048
1630674799828,2048
1630674799832,2048
1630674799836,2049
1630674799840,2048
1630674799844,2048
1630674799848,2048
1630674799852,2048
1630674799856,2048
1630674799860,2048
1630674799864,2048
1630674799868,2048
1630674799872,2048
1630674799876,2049
1630674799880,2049
1630674799884,2049
1630674799888,2049
1630674799892,2050
1630674799896,2050
1630674799900,2050
1630674799904,2051
1630674799908,2052
1630674799912,2053
1630674799916,2053
1630674799920,2053
1630674799924,2053
1630674799928,2051
1630674799932,2050
1630674799936,2049
1630674799940,2048
1630674799944,2048
1630674799948,2047
1630674799952,2047
1630674799956,2047
1630674799960,2047
1630674799964,2047
1630674799968,2047
1630674799972,2048
1630674799976,2048
1630674799980,2048
1630674799984,2048
1630674799988,2045
1630674799992,2041
1630674799996,2038
1630674800000,2043
1630674800004,2064
1630674800008,2102
1630674800012,2144
1630674800016,2172
1630674800020,2172
1630674800024,2141
1630674800028,2091
1630674800032,2044
1630674800036,2013
1630674800040,2005
1630674800044,2013
1630674800048,2026
1630674800052,2036
1630674800056,2040
1630674800060,2041
1630674800064,2043
1630674800068,2043
1630674800072,2043
1630674800076,2042
1630674800080,2042
1630674800084,2043
1630674800088,2043
1630674800092,2045
1630674800096,2046
1630674800100,2047
1630674800104,2047
1630674800108,2046
1630674800112,2045
1630674800116,2045
1630674800120,2045
1630674800124,2046
1630674800128,2047
1630674800132,2048
1630674800136,2048
1630674800140,2048
1630674800144,2048
1630674800148,2048
1630674800152,2049
1630674800156,2049
1630674800160,2049
1630674800164,2050
1630674800168,2050
1630674800172,2051
1630674800176,2053
1630674800180,2054
1630674800184,2055
1630674800188,2056
1630674800192,2056
1630674800196,2057
1630674800200,2058
1630674800204,2060
1630674800208,2062
1630674800212,2064
1630674800216,2066
1630674800220,2068
1630674800224,2070
1630674800228,2071
1630674800232,2073
1630674800236,2074
1630674800240,2075
1630674800244,2076
1630674800248,2076
1630674800252,2078
1630674800256,2078
1630674800260,2079
1630674800264,2079
1630674800268,2078
1630674800272,2076
1630674800276,2073
1630674800280,2070
1630674800284,2067
1630674800288,2064
1630674800292,2061
1630674800296,2059
1630674800300,2056
1630674800304,2055
1630674800308,2052
1630674800312,2051
1630674800316,2050
1630674800320,2048
1630674800324,2048
1630674800328,2047
1630674800332,2046
1630674800336,2046
1630674800340,2045
1630674800344,2045
1630674800348,2045
1630674800352,2045
1630674800356,2046
1630674800360,2045
1630674800364,2045
1630674800368,2045
1630674800372,2045
1630674800376,2046
1630674800380,2045
1630674800384,2046
1630674800388,2046
1630674800392,2047
1630674800396,2047
1630674800400,2046
1630674800404,2046
1630674800408,2046
1630674800412,2046
1630674800416,2047
1630674800420,2047
1630674800424,2047
1630674800428,2047
1630674800432,2047
1630674800436,2047
1630674800440,2046
1630674800444,2046
1630674800448,2045
1630674800452,2045
1630674800456,2045
1630674800460,2045
1630674800464,2045
1630674800468,2045
1630674800472,2045
1630674800476,2045
1630674800480,2044
1630674800484,2043
1630674800488,2043
1630674800492,2042
1630674800496,2043
1630674800500,2043
1630674800504,2044
1630674800508,2043
1630674800512,2043
1630674800516,2043
1630674800520,2042
1630674800524,2042
1630674800528,2042
1630674800532,2042
1630674800536,2042
1630674800540,2042
1630674800544,2042
1630674800548,2042
1630674800552,2042
1630674800556,2042
1630674800560,2041
1630674800564,2041
1630674800568,2041
1630674800572,2041
1630674800576,2042
1630674800580,2041
1630674800584,2042
1630674800588,2041
1630674800592,2042
1630674800596,2042
1630674800600,2042
1630674800604,2042
1630674800608,2041
1630674800612,2041
1630674800616,2041
1630674800620,2041
1630674800624,2042
1630674800628,2042
1630674800632,2042
1630674800636,2042
1630674800640,2041
1630674800644,2041
1630674800648,2041
1630674800652,2041
1630674800656,2041
1630674800660,2042
1630674800664,2042
1630674800668,2043
1630674800672,2043
1630674800676,2044
1630674800680,2043
1630674800684,2044
1630674800688,2044
1630674800692,2044
1630674800696,2044
1630674800700,2045
1630674800704,2046
1630674800708,2047
1630674800712,2047
1630674800716,2048
1630674800720,2047
1630674800724,2047
1630674800728,2046
1630674800732,2044
1630674800736,2043
1630674800740,2042
1630674800744,2042
1630674800748,2041
1630674800752,2041
1630674800756,2041
1630674800760,2041
1630674800764,2041
1630674800768,2042
1630674800772,2042
1630674800776,2043
1630674800780,2043
1630674800784,2041
1630674800788,2037
1630674800792,2033
1630674800796,2036
1630674800800,2050
1630674800804,2084
1630674800808,2125
1630674800812,2159
1630674800816,2168
1630674800820,2145
1630674800824,2100
1630674800828,2050
1630674800832,2015
1630674800836,2001
1630674800840,2005
1630674800844,2018
1630674800848,2029
1630674800852,2035
1630674800856,2037
1630674800860,2038
1630674800864,2038
1630674800868,2038
1630674800872,2038
1630674800876,2038
1630674800880,2038
1630674800884,2038
1630674800888,2039
1630674800892,2039
1630674800896,2040
1630674800900,2041
1630674800904,2041
1630674800908,2042
1630674800912,2042
1630674800916,2043
1630674800920,2042
1630674800924,2043
1630674800928,2043
1630674800932,2044
1630674800936,2044
1630674800940,2045
1630674800944,2046
1630674800948,2046
1630674800952,2046
1630674800956,2047
1630674800960,2047
1630674800964,2047
1630674800968,2048
1630674800972,2048
1630674800976,2049
1630674800980,2050
1630674800984,2051
1630674800988,2052
1630674800992,2053
1630674800996,2054
1630674801000,2055
1630674801004,2057
1630674801008,2058
1630674801012,2060
1630674801016,2062
1630674801020,2063
1630674801024,2065
1630674801028,2067
1630674801032,2068
1630674801036,2070
1630674801040,2070
1630674801044,2071
1630674801048,2071
1630674801052,2072
1630674801056,2072
1630674801060,2072
1630674801064,2072
1630674801068,2070
1630674801072,2069
1630674801076,2066
1630674801080,2063
1630674801084,2060
1630674801088,2057
1630674801092,2055
1630674801096,2053
1630674801100,2051
1630674801104,2050
1630674801108,2048
1630674801112,2047
1630674801116,2046
1630674801120,2044
1630674801124,2044
1630674801128,2043
1630674801132,2044
1630674801136,2044
1630674801140,2044
1630674801144,2044
1630674801148,2044
1630674801152,2043
1630674801156,2044
1630674801160,2043
1630674801164,2044
1630674801168,2044
1630674801172,2044
1630674801176,2044
1630674801180,2044
1630674801184,2044
1630674801188,2044
1630674801192,2045
1630674801196,2044
1630674801200,2044
1630674801204,2045
1630674801208,2044
1630674801212,2045
1630674801216,2046
1630674801220,2046
1630674801224,2047
1630674801228,2046
1630674801232,2046
1630674801236,2045
1630674801240,2045
1630674801244,2045
1630674801248,2044
1630674801252,2044
1630674801256,2044
1630674801260,2044
1630674801264,2044
1630674801268,2044
1630674801272,2044
1630674801276,2044
1630674801280,2043
1630674801284,2043
1630674801288,2043
1630674801292,2043
1630674801296,2043
1630674801300,2043
1630674801304,2044
1630674801308,2043
1630674801312,2043
1630674801316,2042
1630674801320,2042
1630674801324,2043
1630674801328,2043
1630674801332,2043
1630674801336,2043
1630674801340,2043
1630674801344,2042
1630674801348,2042
1630674801352,2042
1630674801356,2043
1630674801360,2043
1630674801364,2043
1630674801368,2043
1630674801372,2043
1630674801376,2043
1630674801380,2043
1630674801384,2044
1630674801388,2044
1630674801392,2044
1630674801396,2044
1630674801400,2043
1630674801404,2043
1630674801408,2043
1630674801412,2043
1630674801416,2043
1630674801420,2043
1630674801424,2044
1630674801428,2044
1630674801432,2044
1630674801436,2044
1630674801440,2043
1630674801444,2043
1630674801448,2043
1630674801452,2043
1630674801456,2043
1630674801460,2044
1630674801464,2044
1630674801468,2044
1630674801472,2045
1630674801476,2045
1630674801480,2045
1630674801484,2045
1630674801488,2045
1630674801492,2046
1630674801496,2046
1630674801500,2047
1630674801504,2047
1630674801508,2047
1630674801512,2047
1630674801516,2048
1630674801520,2048
1630674801524,2049
1630674801528,2049
1630674801532,2048
1630674801536,2048
1630674801540,2046
1630674801544,2045
1630674801548,2044
1630674801552,2043
1630674801556,2043
1630674801560,2042
1630674801564,2043
1630674801568,2043
1630674801572,2043
1630674801576,2044
1630674801580,2045
1630674801584,2045
1630674801588,2045
1630674801592,2043
1630674801596,2039
1630674801600,2035
1630674801604,2037
1630674801608,2050
1630674801612,2083
1630674801616,2124
1630674801620,2158
1630674801624,2170
1630674801628,2151
1630674801632,2107
1630674801636,2056
1630674801640,2018
1630674801644,2002
1630674801648,2006
1630674801652,2018
1630674801656,2031
1630674801660,2037
1630674801664,2039
1630674801668,2040
1630674801672,2040
1630674801676,2040
1630674801680,2039
1630674801684,2040
1630674801688,2040
1630674801692,2041
1630674801696,2041
1630674801700,2042
1630674801704,2042
1630674801708,2043
1630674801712,2043
1630674801716,2043
1630674801720,2043
1630674801724,2044
1630674801728,2044
1630674801732,2044
1630674801736,2045
1630674801740,2045
1630674801744,2046
1630674801748,2046
1630674801752,2047
1630674801756,2047
1630674801760,2047
1630674801764,2047
1630674801768,2047
1630674801772,2048
1630674801776,2049
1630674801780,2049
1630674801784,2050
1630674801788,2051
1630674801792,2052
1630674801796,2053
1630674801800,2054
1630674801804,2056
1630674801808,2057
1630674801812,2059
1630674801816,2060
1630674801820,2062
1630674801824,2064
1630674801828,2065
1630674801832,2067
1630674801836,2068
1630674801840,2069
1630674801844,2069
1630674801848,2070
1630674801852,2071
1630674801856,2072
1630674801860,2073
1630674801864,2073
1630674801868,2073
1630674801872,2072
1630674801876,2071
1630674801880,2069
1630674801884,2067
1630674801888,2064
1630674801892,2061
1630674801896,2059
1630674801900,2056
1630674801904,2054
1630674801908,2052
1630674801912,2051
1630674801916,2049
1630674801920,2048
1630674801924,2047
1630674801928,2046
1630674801932,2045
1630674801936,2045
1630674801940,2044
1630674801944,2044
1630674801948,2044
1630674801952,2044
1630674801956,2044
1630674801960,2043
1630674801964,2043
1630674801968,2043
1630674801972,2043
1630674801976,2044
1630674801980,2044
1630674801984,2044
1630674801988,2044
1630674801992,2045
1630674801996,2045
1630674802000,2044
1630674802004,2044
1630674802008,2044
1630674802012,2044
1630674802016,2045
1630674802020,2045
1630674802024,2046
1630674802028,2046
1630674802032,2046
1630674802036,2046
1630674802040,2045
1630674802044,2045
1630674802048,2045
1630674802052,2045
1630674802056,2045
1630674802060,2045
1630674802064,2045
1630674802068,2044
1630674802072,2045
1630674802076,2045
1630674802080,2045
1630674802084,2045
1630674802088,2044
1630674802092,2044
1630674802096,2044
1630674802100,2044
1630674802104,2045
1630674802108,2044
1630674802112,2044
1630674802116,2043
1630674802120,2042
1630674802124,2042
1630674802128,2043
1630674802132,2043
1630674802136,2044
1630674802140,2044
1630674802144,2043
1630674802148,2043
1630674802152,2043
1630674802156,2044
1630674802160,2044
1630674802164,2044
1630674802168,2044
1630674802172,2044
1630674802176,2044
1630674802180,2044
1630674802184,2044
1630674802188,2044
1630674802192,2044
1630674802196,2043
1630674802200,2043
1630674802204,2044
1630674802208,2043
1630674802212,2044
1630674802216,2044
1630674802220,2045
1630674802224,2046
1630674802228,2044
1630674802232,2044
1630674802236,2044
1630674802240,2043
1630674802244,2044
1630674802248,2043
1630674802252,2044
1630674802256,2044
1630674802260,2044
1630674802264,2045
1630674802268,2045
1630674802272,2045
1630674802276,2045
1630674802280,2044
1630674802284,2045
1630674802288,2044
1630674802292,2044
1630674802296,2045
1630674802300,2045
1630674802304,2046
1630674802308,2046
1630674802312,2047
1630674802316,2046
1630674802320,2046
1630674802324,2047
1630674802328,2047
1630674802332,2048
1630674802336,2048
1630674802340,2048
1630674802344,2049
1630674802348,2049
1630674802352,2049
1630674802356,2049
1630674802360,2048
1630674802364,2048
1630674802368,2046
1630674802372,2045
1630674802376,2044
1630674802380,2043
1630674802384,2044
1630674802388,2044
1630674802392,2044
1630674802396,2044
1630674802400,2043
1630674802404,2044
1630674802408,2045
1630674802412,2045
1630674802416,2045
1630674802420,2043
1630674802424,2039
1630674802428,2035
1630674802432,2038
1630674802436,2054
1630674802440,2087
1630674802444,2128
1630674802448,2161
1630674802452,2168
1630674802456,2144
1630674802460,2099
1630674802464,2050
1630674802468,2016
1630674802472,2004
1630674802476,2010
1630674802480,2022
1630674802484,2033
1630674802488,2038
1630674802492,2040
1630674802496,2042
1630674802500,2042
1630674802504,2042
1630674802508,2042
1630674802512,2042
1630674802516,2043
1630674802520,2043
1630674802524,2043
1630674802528,2043
1630674802532,2044
1630674802536,2045
1630674802540,2045
1630674802544,2046
1630674802548,2046
1630674802552,2046
1630674802556,2046
1630674802560,2046
1630674802564,2047
1630674802568,2047
1630674802572,2048
1630674802576,2048
1630674802580,2048
1630674802584,2048
1630674802588,2049
1630674802592,2050
1630674802596,2050
1630674802600,2050
1630674802604,2051
1630674802608,2051
1630674802612,2052
1630674802616,2053
1630674802620,2054
1630674802624,2055
1630674802628,2056
1630674802632,2057
1630674802636,2058
1630674802640,2059
1630674802644,2061
1630674802648,2063
1630674802652,2065
1630674802656,2067
1630674802660,2069
1630674802664,2071
1630674802668,2073
1630674802672,2074
1630674802676,2075
1630674802680,2075
1630674802684,2076
1630674802688,2076
1630674802692,2077
1630674802696,2077
1630674802700,2076
1630674802704,2076
1630674802708,2074
1630674802712,2072
1630674802716,2069
1630674802720,2066
1630674802724,2063
1630674802728,2061
1630674802732,2058
1630674802736,2056
1630674802740,2054
1630674802744,2053
1630674802748,2052
1630674802752,2051
1630674802756,2050
1630674802760,2049
1630674802764,2048
1630674802768,2048
1630674802772,2048
1630674802776,2048
1630674802780,2048
1630674802784,2048
1630674802788,2048
1630674802792,2048
1630674802796,2048
1630674802800,2047
1630674802804,2047
1630674802808,2047
1630674802812,2047
1630674802816,2048
1630674802820,2048
1630674802824,2048
1630674802828,2048
1630674802832,2049
1630674802836,2049
1630674802840,2048
1630674802844,2048
1630674802848,2048
1630674802852,2048
1630674802856,2048
1630674802860,2048
1630674802864,2049
1630674802868,2049
1630674802872,2050
1630674802876,2049
1630674802880,2048
1630674802884,2048
1630674802888,2048
1630674802892,2048
1630674802896,2047
1630674802900,2047
1630674802904,2047
1630674802908,2048
1630674802912,2048
1630674802916,2048
1630674802920,2048
1630674802924,2048
1630674802928,2047
1630674802932,2047
1630674802936,2047
1630674802940,2047
1630674802944,2048
1630674802948,2048
1630674802952,2048
1630674802956,2048
1630674802960,2048
1630674802964,2048
1630674802968,2048
1630674802972,2048
1630674802976,2048
1630674802980,2048
1630674802984,2048
1630674802988,2048
1630674802992,2048
1630674802996,2048
1630674803000,2047
1630674803004,2047
1630674803008,2047
1630674803012,2048
1630674803016,2048
1630674803020,2048
1630674803024,2048
1630674803028,2048
1630674803032,2048
1630674803036,2048
1630674803040,2048
1630674803044,2048
1630674803048,2048
1630674803052,2048
1630674803056,2048
1630674803060,2048
1630674803064,2048
1630674803068,2048
1630674803072,2048
1630674803076,2048
1630674803080,2048
1630674803084,2048
1630674803088,2048
1630674803092,2049
1630674803096,2049
1630674803100,2049
1630674803104,2049
1630674803108,2048
1630674803112,2048
1630674803116,2048
1630674803120,2048
1630674803124,2049
1630674803128,2050
1630674803132,2050
1630674803136,2051
1630674803140,2051
1630674803144,2051
1630674803148,2051
1630674803152,2052
1630674803156,2053
1630674803160,2054
1630674803164,2055
1630674803168,2055
1630674803172,2055
1630674803176,2055
1630674803180,2054
1630674803184,2053
1630674803188,2052
1630674803192,2051
1630674803196,2049
1630674803200,2048
1630674803204,2048
1630674803208,2047
1630674803212,2048
1630674803216,2048
1630674803220,2048
1630674803224,2050
1630674803228,2049
1630674803232,2048
1630674803236,2046
1630674803240,2041
1630674803244,2038
1630674803248,2042
1630674803252,2062
1630674803256,2101
1630674803260,2144
1630674803264,2174
1630674803268,2175
1630674803272,2145
1630674803276,2094
1630674803280,2044
1630674803284,2013
1630674803288,2004
1630674803292,2013
1630674803296,2026
1630674803300,2036
1630674803304,2041
1630674803308,2042
1630674803312,2044
1630674803316,2044
1630674803320,2044
1630674803324,2043
1630674803328,2043
1630674803332,2044
1630674803336,2045
1630674803340,2046
1630674803344,2046
1630674803348,2046
1630674803352,2046
1630674803356,2045
1630674803360,2046
1630674803364,2046
1630674803368,2047
1630674803372,2048
1630674803376,2048
1630674803380,2048
1630674803384,2048
1630674803388,2048
1630674803392,2049
1630674803396,2049
1630674803400,2049
1630674803404,2050
1630674803408,2051
1630674803412,2052
1630674803416,2052
1630674803420,2053
1630674803424,2053
1630674803428,2053
1630674803432,2054
1630674803436,2055
1630674803440,2056
1630674803444,2058
1630674803448,2059
1630674803452,2060
1630674803456,2061
1630674803460,2063
1630674803464,2065
1630674803468,2066
1630674803472,2069
1630674803476,2070
1630674803480,2071
1630674803484,2072
1630674803488,2072
1630674803492,2074
1630674803496,2076
1630674803500,2077
1630674803504,2077
1630674803508,2077
1630674803512,2075
1630674803516,2075
1630674803520,2073
1630674803524,2072
1630674803528,2070
1630674803532,2066
1630674803536,2064
1630674803540,2060
1630674803544,2058
1630674803548,2055
1630674803552,2053
1630674803556,2050
1630674803560,2048
1630674803564,2047
1630674803568,2046
1630674803572,2046
1630674803576,2045
1630674803580,2044
1630674803584,2044
1630674803588,2044
1630674803592,2044
1630674803596,2044
1630674803600,2043
1630674803604,2043
1630674803608,2042
1630674803612,2042
1630674803616,2043
1630674803620,2044
1630674803624,2044
1630674803628,2044
1630674803632,2045
1630674803636,2044
1630674803640,2044
1630674803644,2045
1630674803648,2045
1630674803652,2045
1630674803656,2046
1630674803660,2045
1630674803664,2045
1630674803668,2045
1630674803672,2045
1630674803676,2046
1630674803680,2045
1630674803684,2045
1630674803688,2044
1630674803692,2044
1630674803696,2044
1630674803700,2044
1630674803704,2044
1630674803708,2044
1630674803712,2045
1630674803716,2044
1630674803720,2044
1630674803724,2043
1630674803728,2043
1630674803732,2043
1630674803736,2043
1630674803740,2043
1630674803744,2044
1630674803748,2043
1630674803752,2043
1630674803756,2043
1630674803760,2043
1630674803764,2043
1630674803768,2043
1630674803772,2043
1630674803776,2044
1630674803780,2044
1630674803784,2044
1630674803788,2044
1630674803792,2044
1630674803796,2044
1630674803800,2044
1630674803804,2044
1630674803808,2044
1630674803812,2044
1630674803816,2044
1630674803820,2044
1630674803824,2044
1630674803828,2044
1630674803832,2044
1630674803836,2044
1630674803840,2044
1630674803844,2044
1630674803848,2044
1630674803852,2045
1630674803856,2045
1630674803860,2044
1630674803864,2045
1630674803868,2045
1630674803872,2045
1630674803876,2045
1630674803880,2045
1630674803884,2046
1630674803888,2046
1630674803892,2046
1630674803896,2046
1630674803900,2046
1630674803904,2046
1630674803908,2047
1630674803912,2047
1630674803916,2048
1630674803920,2048
1630674803924,2048
1630674803928,2048
1630674803932,2048
1630674803936,2048
1630674803940,2048
1630674803944,2048
1630674803948,2049
1630674803952,2050
1630674803956,2051
1630674803960,2050
1630674803964,2050
1630674803968,2049
1630674803972,2048
1630674803976,2048
1630674803980,2046
1630674803984,2045
1630674803988,2044
1630674803992,2043
1630674803996,2043
1630674804000,2043
1630674804004,2043
1630674804008,2043
1630674804012,2044
1630674804016,2044
1630674804020,2044
1630674804024,2044
1630674804028,2042
1630674804032,2038
1630674804036,2035
1630674804040,2037
1630674804044,2051
1630674804048,2082
1630674804052,2123
1630674804056,2156
1630674804060,2165
1630674804064,2144
1630674804068,2099
1630674804072,2050
1630674804076,2014
1630674804080,2000
1630674804084,2004
1630674804088,2016
1630674804092,2028
1630674804096,2035
1630674804100,2037
1630674804104,2038
1630674804108,2038
1630674804112,2037
1630674804116,2036
1630674804120,2035
1630674804124,2036
1630674804128,2037
1630674804132,2038
1630674804136,2039
1630674804140,2038
1630674804144,2039
1630674804148,2039
1630674804152,2039
1630674804156,2039
1630674804160,2039
1630674804164,2040
1630674804168,2040
1630674804172,2040
1630674804176,2041
1630674804180,2041
1630674804184,2042
1630674804188,2042
1630674804192,2043
1630674804196,2043
1630674804200,2043
1630674804204,2043
1630674804208,2043
1630674804212,2044
1630674804216,2046
1630674804220,2047
1630674804224,2048
1630674804228,2048
1630674804232,2048
1630674804236,2049
1630674804240,2049
1630674804244,2051
1630674804248,2052
1630674804252,2054
1630674804256,2055
1630674804260,2057
1630674804264,2059
1630674804268,2059
1630674804272,2061
1630674804276,2062
1630674804280,2063
1630674804284,2064
1630674804288,2064
1630674804292,2064
1630674804296,2065
1630674804300,2065
1630674804304,2066
1630674804308,2064
1630674804312,2064
1630674804316,2061
1630674804320,2058
1630674804324,2056
1630674804328,2053
1630674804332,2050
1630674804336,2048
1630674804340,2047
1630674804344,2044
1630674804348,2042
1630674804352,2041
1630674804356,2039
1630674804360,2038
1630674804364,2037
1630674804368,2036
1630674804372,2036
1630674804376,2036
1630674804380,2035
1630674804384,2035
1630674804388,2035
1630674804392,2035
1630674804396,2035
1630674804400,2035
1630674804404,2035
1630674804408,2035
1630674804412,2035
1630674804416,2035
1630674804420,2035
1630674804424,2036
1630674804428,2036
1630674804432,2036
1630674804436,2036
1630674804440,2036
1630674804444,2036
1630674804448,2036
1630674804452,2037
1630674804456,2037
1630674804460,2037
1630674804464,2037
1630674804468,2037
1630674804472,2038
1630674804476,2037
1630674804480,2036
1630674804484,2036
1630674804488,2035
1630674804492,2035
1630674804496,2036
1630674804500,2036
1630674804504,2036
1630674804508,2036
1630674804512,2036
1630674804516,2036
1630674804520,2035
1630674804524,2035
1630674804528,2035
1630674804532,2035
1630674804536,2035
1630674804540,2035
1630674804544,2036
1630674804548,2035
1630674804552,2035
1630674804556,2035
1630674804560,2035
1630674804564,2035
1630674804568,2035
1630674804572,2035
1630674804576,2036
1630674804580,2036
1630674804584,2036
1630674804588,2036
1630674804592,2036
1630674804596,2036
1630674804600,2036
1630674804604,2036
1630674804608,2036
1630674804612,2035
1630674804616,2035
1630674804620,2035
1630674804624,2036
1630674804628,2036
1630674804632,2037
1630674804636,2037
1630674804640,2036
1630674804644,2036
1630674804648,2036
1630674804652,2036
1630674804656,2037
1630674804660,2037
1630674804664,2037
1630674804668,2037
1630674804672,2036
1630674804676,2036
1630674804680,2036
1630674804684,2037
1630674804688,2037
1630674804692,2037
1630674804696,2037
1630674804700,2037
1630674804704,2037
1630674804708,2038
1630674804712,2038
1630674804716,2039
1630674804720,2039
1630674804724,2039
1630674804728,2039
1630674804732,2039
1630674804736,2040
1630674804740,2041
1630674804744,2042
1630674804748,2043
1630674804752,2044
1630674804756,2044
1630674804760,2044
1630674804764,2043
1630674804768,2042
1630674804772,2041
1630674804776,2040
1630674804780,2039
1630674804784,2038
1630674804788,2037
1630674804792,2037
1630674804796,2037
1630674804800,2037
1630674804804,2037
1630674804808,2038
1630674804812,2038
1630674804816,2040
1630674804820,2040
1630674804824,2039
1630674804828,2036
1630674804832,2032
1630674804836,2029
1630674804840,2035
1630674804844,2056
1630674804848,2093
1630674804852,2133
1630674804856,2160
1630674804860,2160
1630674804864,2129
1630674804868,2081
1630674804872,2035
1630674804876,2006
1630674804880,1998
1630674804884,2006
1630674804888,2019
1630674804892,2029
1630674804896,2034
1630674804900,2035
1630674804904,2036
1630674804908,2035
1630674804912,2035
1630674804916,2035
1630674804920,2035
1630674804924,2036
1630674804928,2036
1630674804932,2037
1630674804936,2037
1630674804940,2038
1630674804944,2039
1630674804948,2039
1630674804952,2039
1630674804956,2040
1630674804960,2040
1630674804964,2040
1630674804968,2041
1630674804972,2041
1630674804976,2042
1630674804980,2042
1630674804984,2043
1630674804988,2043
1630674804992,2044
1630674804996,2045
1630674805000,2045
1630674805004,2046
1630674805008,2046
1630674805012,2047
1630674805016,2048
1630674805020,2048
1630674805024,2049
1630674805028,2050
1630674805032,2051
1630674805036,2052
1630674805040,2053
1630674805044,2054
1630674805048,2055
1630674805052,2057
1630674805056,2059
1630674805060,2060
1630674805064,2062
1630674805068,2063
1630674805072,2065
1630674805076,2066
1630674805080,2067
1630674805084,2068
1630674805088,2069
1630674805092,2070
1630674805096,2071
1630674805100,2071
1630674805104,2071
1630674805108,2069
1630674805112,2068
1630674805116,2065
1630674805120,2062
1630674805124,2060
1630674805128,2058
1630674805132,2056
1630674805136,2054
1630674805140,2052
1630674805144,2050
1630674805148,2048
1630674805152,2047
1630674805156,2046
1630674805160,2044
1630674805164,2044
1630674805168,2043
1630674805172,2042
1630674805176,2043
1630674805180,2042
1630674805184,2043
1630674805188,2043
1630674805192,2043
1630674805196,2042
1630674805200,2042
1630674805204,2042
1630674805208,2042
1630674805212,2043
1630674805216,2044
1630674805220,2044
1630674805224,2045
1630674805228,2044
1630674805232,2044
1630674805236,2043
1630674805240,2043
1630674805244,2044
1630674805248,2043
1630674805252,2043
1630674805256,2044
1630674805260,2044
1630674805264,2044
1630674805268,2044
1630674805272,2045
1630674805276,2044
1630674805280,2044
1630674805284,2044
1630674805288,2043
1630674805292,2044
1630674805296,2044
1630674805300,2044
1630674805304,2044
1630674805308,2044
1630674805312,2044
1630674805316,2044
1630674805320,2043
1630674805324,2043
1630674805328,2042
1630674805332,2042
1630674805336,2042
1630674805340,2042
1630674805344,2042
1630674805348,2042
1630674805352,2043
1630674805356,2044
1630674805360,2044
1630674805364,2044
1630674805368,2043
1630674805372,2043
1630674805376,2043
1630674805380,2043
1630674805384,2044
1630674805388,2045
1630674805392,2045
1630674805396,2045
1630674805400,2044
1630674805404,2044
1630674805408,2044
1630674805412,2045
1630674805416,2045
1630674805420,2045
1630674805424,2046
1630674805428,2046
1630674805432,2046
1630674805436,2045
1630674805440,2045
1630674805444,2045
1630674805448,2045
1630674805452,2046
1630674805456,2046
1630674805460,2047
1630674805464,2047
1630674805468,2047
1630674805472,2048
1630674805476,2047
1630674805480,2047
1630674805484,2046
1630674805488,2046
1630674805492,2046
1630674805496,2047
1630674805500,2047
1630674805504,2048
1630674805508,2047
1630674805512,2047
1630674805516,2047
1630674805520,2047
1630674805524,2048
1630674805528,2048
1630674805532,2048
1630674805536,2049
1630674805540,2049
1630674805544,2050
1630674805548,2051
1630674805552,2052
1630674805556,2052
1630674805560,2052
1630674805564,2053
1630674805568,2053
1630674805572,2053
1630674805576,2053
1630674805580,2051
1630674805584,2050
1630674805588,2048
1630674805592,2048
1630674805596,2046
1630674805600,2045
1630674805604,2045
1630674805608,2046
1630674805612,2048
1630674805616,2048
1630674805620,2049
1630674805624,2050
1630674805628,2050
1630674805632,2049
1630674805636,2048
1630674805640,2043
1630674805644,2040
1630674805648,2042
1630674805652,2056
1630674805656,2089
1630674805660,2130
1630674805664,2164
1630674805668,2175
1630674805672,2154
1630674805676,2109
1630674805680,2059
1630674805684,2023
1630674805688,2008
1630674805692,2012
1630674805696,2025
1630674805700,2036
1630674805704,2042
1630674805708,2044
1630674805712,2046
1630674805716,2047
1630674805720,2046
1630674805724,2045
1630674805728,2044
1630674805732,2044
1630674805736,2046
1630674805740,2047
1630674805744,2048
1630674805748,2049
1630674805752,2049
1630674805756,2049
1630674805760,2048
1630674805764,2048
1630674805768,2048
1630674805772,2050
1630674805776,2051
1630674805780,2052
1630674805784,2052
1630674805788,2052
1630674805792,2052
1630674805796,2052
1630674805800,2053
1630674805804,2053
1630674805808,2054
1630674805812,2054
1630674805816,2055
1630674805820,2055
1630674805824,2057
1630674805828,2057
1630674805832,2058
1630674805836,2059
1630674805840,2059
1630674805844,2060
1630674805848,2061
1630674805852,2063
1630674805856,2065
1630674805860,2067
1630674805864,2069
1630674805868,2070
1630674805872,2071
1630674805876,2073
1630674805880,2074
1630674805884,2075
1630674805888,2077
1630674805892,2078
1630674805896,2079
1630674805900,2079
1630674805904,2079
1630674805908,2079
1630674805912,2079
1630674805916,2078
1630674805920,2077
1630674805924,2075
1630674805928,2073
1630674805932,2071
1630674805936,2069
1630674805940,2066
1630674805944,2063
1630674805948,2061
1630674805952,2058
1630674805956,2056
1630674805960,2053
1630674805964,2052
1630674805968,2050
1630674805972,2049
1630674805976,2049
1630674805980,2049
1630674805984,2049
1630674805988,2048
1630674805992,2048
1630674805996,2048
1630674806000,2047
1630674806004,2047
1630674806008,2047
1630674806012,2047
1630674806016,2048
1630674806020,2048
1630674806024,2048
1630674806028,2048
1630674806032,2049
1630674806036,2049
1630674806040,2048
1630674806044,2048
1630674806048,2048
1630674806052,2048
1630674806056,2048
1630674806060,2048
1630674806064,2049
1630674806068,2049
1630674806072,2049
1630674806076,2049
1630674806080,2048
1630674806084,2048
1630674806088,2048
1630674806092,2048
1630674806096,2048
1630674806100,2048
1630674806104,2048
1630674806108,2047
1630674806112,2047
1630674806116,2045
1630674806120,2045
1630674806124,2045
1630674806128,2046
1630674806132,2047
1630674806136,2048
1630674806140,2047
1630674806144,2046
1630674806148,2045
1630674806152,2044
1630674806156,2044
1630674806160,2043
1630674806164,2043
1630674806168,2043
1630674806172,2043
1630674806176,2044
1630674806180,2044
1630674806184,2044
1630674806188,2044
1630674806192,2044
1630674806196,2044
1630674806200,2043
1630674806204,2044
1630674806208,2043
1630674806212,2043
1630674806216,2043
1630674806220,2042
1630674806224,2043
1630674806228,2042
1630674806232,2043
1630674806236,2044
1630674806240,2043
1630674806244,2044
1630674806248,2043
1630674806252,2043
1630674806256,2043
1630674806260,2044
1630674806264,2045
1630674806268,2045
1630674806272,2045
1630674806276,2045
1630674806280,2044
1630674806284,2044
1630674806288,2043
1630674806292,2043
1630674806296,2044
1630674806300,2044
1630674806304,2045
1630674806308,2045
1630674806312,2045
1630674806316,2045
1630674806320,2044
1630674806324,2045
1630674806328,2045
1630674806332,2046
1630674806336,2046
1630674806340,2045
1630674806344,2045
1630674806348,2046
1630674806352,2047
1630674806356,2048
1630674806360,2048
1630674806364,2048
1630674806368,2048
1630674806372,2047
1630674806376,2045
1630674806380,2043
1630674806384,2042
1630674806388,2042
1630674806392,2042
1630674806396,2042
1630674806400,2041
1630674806404,2041
1630674806408,2041
1630674806412,2041
1630674806416,2042
1630674806420,2043
1630674806424,2043
1630674806428,2041
1630674806432,2036
1630674806436,2032
1630674806440,2032
1630674806444,2044
1630674806448,2074
1630674806452,2116
1630674806456,2153
1630674806460,2168
1630674806464,2153
1630674806468,2111
1630674806472,2060
1630674806476,2021
1630674806480,2001
1630674806484,2002
1630674806488,2012
1630674806492,2024
1630674806496,2032
1630674806500,2034
1630674806504,2037
1630674806508,2039
1630674806512,2038
1630674806516,2038
1630674806520,2037
1630674806524,2037
1630674806528,2037
1630674806532,2038
1630674806536,2039
1630674806540,2039
1630674806544,2040
1630674806548,2040
1630674806552,2040
1630674806556,2040
1630674806560,2040
1630674806564,2040
1630674806568,2041
1630674806572,2041
1630674806576,2042
1630674806580,2042
1630674806584,2043
1630674806588,2044
1630674806592,2044
1630674806596,2045
1630674806600,2045
1630674806604,2045
1630674806608,2045
1630674806612,2046
1630674806616,2047
1630674806620,2048
1630674806624,2048
1630674806628,2049
1630674806632,2050
1630674806636,2051
1630674806640,2052
1630674806644,2054
1630674806648,2055
1630674806652,2057
1630674806656,2059
1630674806660,2060
1630674806664,2062
1630674806668,2064
1630674806672,2066
1630674806676,2067
1630674806680,2068
1630674806684,2069
1630674806688,2070
1630674806692,2071
1630674806696,2072
1630674806700,2072
1630674806704,2072
1630674806708,2071
1630674806712,2070
1630674806716,2068
1630674806720,2066
1630674806724,2064
1630674806728,2061
1630674806732,2058
1630674806736,2056
1630674806740,2053
1630674806744,2051
1630674806748,2049
1630674806752,2048
1630674806756,2046
1630674806760,2045
1630674806764,2044
1630674806768,2043
1630674806772,2042
1630674806776,2042
1630674806780,2041
1630674806784,2041
1630674806788,2041
1630674806792,2041
1630674806796,2041
1630674806800,2040
1630674806804,2040
1630674806808,2040
1630674806812,2041
1630674806816,2042
1630674806820,2041
1630674806824,2042
1630674806828,2041
1630674806832,2041
1630674806836,2042
1630674806840,2042
