timestamp,green,ir,red
1630674781591,23531,203596,136807
1630674781601,23525,203549,136800
1630674781611,23526,203576,136800
1630674781621,23526,203575,136787
1630674781631,23518,203579,136815
1630674781641,23529,203610,136810
1630674781651,23527,203564,136813
1630674781661,23533,203589,136804
1630674781671,23530,203581,136794
1630674781681,23531,203605,136805
1630674781691,23532,203586,136811
1630674781701,23539,203598,136790
1630674781711,23536,203584,136795
1630674781721,23540,203616,136810
1630674781731,23541,203609,136797
1630674781741,23541,203616,136792
1630674781751,23541,203600,136774
1630674781761,23550,203636,136791
1630674781771,23551,203593,136804
1630674781781,23560,203634,136785
1630674781791,23545,203617,136788
1630674781801,23553,203643,136802
1630674781811,23554,203632,136789
1630674781821,23559,203626,136808
1630674781831,23566,203655,136823
1630674781841,23566,203660,136819
1630674781851,23565,203643,136815
1630674781861,23568,203643,136843
1630674781871,23565,203606,136840
1630674781881,23564,203632,136850
1630674781891,23567,203628,136848
1630674781901,23564,203625,136838
1630674781911,23566,203636,136860
1630674781921,23556,203615,136852
1630674781931,23552,203631,136850
1630674781941,23557,203576,136840
1630674781951,23558,203570,136837
1630674781961,23548,203598,136849
1630674781971,23541,203625,136855
1630674781981,23544,203595,136843
1630674781991,23538,203536,136856
1630674782001,23537,203547,136842
1630674782011,23534,203563,136856
1630674782021,23525,203592,136840
1630674782031,23524,203540,136842
1630674782041,23526,203562,136832
1630674782051,23524,203548,136842
1630674782061,23521,203514,136829
1630674782071,23520,203528,136843
1630674782081,23521,203523,136834
1630674782091,23511,203538,136833
1630674782101,23523,203507,136828
1630674782111,23518,203525,136834
1630674782121,23519,203505,136854
1630674782131,23512,203539,136855
1630674782141,23499,203526,136837
1630674782151,23513,203511,136834
1630674782161,23512,203511,136822
1630674782171,23510,203511,136829
1630674782181,23511,203494,136802
1630674782191,23508,203486,136832
1630674782201,23514,203506,136821
1630674782211,23509,203471,136824
1630674782221,23509,203503,136821
1630674782231,23513,203475,136806
1630674782241,23512,203504,136806
1630674782251,23510,203485,136815
1630674782261,23516,203483,136805
1630674782271,23512,203477,136799
1630674782281,23520,203491,136815
1630674782291,23511,203529,136819
1630674782301,23512,203511,136812
1630674782311,23514,203507,136819
1630674782321,23522,203500,136806
1630674782331,23522,203516,136819
1630674782341,23518,203489,136811
1630674782351,23519,203516,136830
1630674782361,23530,203477,136823
1630674782371,23524,203524,136828
1630674782381,23531,203534,136823
1630674782391,23531,203541,136825
1630674782401,23535,203518,136834
1630674782411,23526,203501,136816
1630674782421,23530,203531,136815
1630674782431,23535,203531,136825
1630674782441,23525,203556,136811
1630674782451,23539,203555,136829
1630674782461,23538,203517,136808
1630674782471,23542,203540,136814
1630674782481,23543,203525,136822
1630674782491,23543,203538,136816
1630674782501,23547,203552,136803
1630674782511,23545,203548,136831
1630674782521,23550,203563,136814
1630674782531,23547,203557,136820
1630674782541,23556,203540,136808
1630674782551,23551,203562,136802
1630674782561,23551,203563,136801
1630674782571,23562,203575,136807
1630674782581,23564,203569,136802
1630674782591,23577,203583,136820
1630674782601,23559,203542,136798
1630674782611,23563,203552,136804
1630674782621,23565,203572,136802
1630674782631,23562,203566,136815
1630674782641,23562,203544,136810
1630674782651,23560,203546,136817
1630674782661,23559,203562,136819
1630674782671,23560,203542,136818
1630674782681,23559,203530,136817
1630674782691,23553,203519,136828
1630674782701,23550,203516,136820
1630674782711,23545,203517,136800
1630674782721,23542,203523,136811
1630674782731,23530,203515,136791
1630674782741,23553,203532,136810
1630674782751,23535,203511,136815
1630674782761,23545,203522,136814
1630674782771,23538,203474,136802
1630674782781,23532,203473,136815
1630674782791,23536,203485,136803
1630674782801,23522,203469,136803
1630674782811,23529,203470,136818
1630674782821,23527,203475,136809
1630674782831,23529,203479,136827
1630674782841,23534,203478,136847
1630674782851,23539,203513,136818
1630674782861,23538,203495,136837
1630674782871,23531,203490,136835
1630674782881,23532,203488,136806
1630674782891,23527,203450,136821
1630674782901,23523,203471,136776
1630674782911,23511,203475,136769
1630674782921,23514,203491,136781
1630674782931,23522,203473,136770
1630674782941,23512,203490,136790
1630674782951,23527,203453,136795
1630674782961,23517,203444,136800
1630674782971,23518,203469,136774
1630674782981,23518,203472,136760
1630674782991,23515,203480,136765
1630674783001,23518,203459,136773
1630674783011,23519,203455,136752
1630674783021,23522,203472,136778
1630674783031,23524,203467,136781
1630674783041,23530,203435,136793
1630674783051,23525,203488,136787
1630674783061,23529,203481,136784
1630674783071,23523,203458,136782
1630674783081,23515,203453,136775
1630674783091,23536,203465,136773
1630674783101,23530,203448,136781
1630674783111,23535,203486,136793
1630674783121,23536,203470,136789
1630674783131,23543,203452,136792
1630674783141,23539,203465,136796
1630674783151,23541,203487,136811
1630674783161,23547,203486,136813
1630674783171,23544,203441,136817
1630674783181,23550,203478,136825
1630674783191,23557,203470,136818
1630674783201,23553,203449,136827
1630674783211,23555,203483,136824
1630674783221,23549,203484,136830
1630674783231,23551,203459,136799
1630674783241,23549,203443,136799
1630674783251,23557,203468,136793
1630674783261,23561,203448,136768
1630674783271,23555,203463,136766
1630674783281,23552,203468,136762
1630674783291,23558,203450,136742
1630674783301,23550,203424,136723
1630674783311,23547,203456,136697
1630674783321,23548,203409,136702
1630674783331,23543,203408,136691
1630674783341,23549,203410,136690
1630674783351,23542,203419,136651
1630674783361,23538,203408,136639
1630674783371,23540,203394,136634
1630674783381,23532,203367,136620
1630674783391,23531,203382,136622
1630674783401,23538,203348,136599
1630674783411,23536,203362,136610
1630674783421,23529,203345,136611
1630674783431,23534,203317,136613
1630674783441,23523,203297,136592
1630674783451,23515,203309,136589
1630674783461,23512,203277,136547
1630674783471,23509,203238,136540
1630674783481,23500,203250,136535
1630674783491,23496,203239,136529
1630674783501,23495,203229,136538
1630674783511,23491,203233,136523
1630674783521,23487,203198,136512
1630674783531,23481,203207,136508
1630674783541,23480,203180,136482
1630674783551,23481,203196,136486
1630674783561,23478,203162,136476
1630674783571,23471,203156,136498
1630674783581,23479,203170,136497
1630674783591,23471,203154,136479
1630674783601,23469,203153,136476
1630674783611,23466,203157,136462
1630674783621,23462,203181,136476
1630674783631,23471,203137,136474
1630674783641,23471,203132,136470
1630674783651,23470,203163,136501
1630674783661,23472,203143,136487
1630674783671,23467,203165,136498
1630674783681,23467,203137,136495
1630674783691,23467,203124,136508
1630674783701,23467,203141,136485
1630674783711,23472,203176,136508
1630674783721,23473,203189,136500
1630674783731,23480,203163,136514
1630674783741,23480,203154,136515
1630674783751,23485,203146,136502
1630674783761,23473,203165,136529
1630674783771,23482,203170,136537
1630674783781,23483,203150,136510
1630674783791,23481,203159,136500
1630674783801,23483,203174,136507
1630674783811,23483,203155,136512
1630674783821,23484,203162,136523
1630674783831,23487,203179,136514
1630674783841,23486,203178,136522
1630674783851,23489,203168,136532
1630674783861,23490,203181,136519
1630674783871,23492,203183,136511
1630674783881,23496,203186,136488
1630674783891,23481,203143,136480
1630674783901,23495,203186,136498
1630674783911,23496,203184,136510
1630674783921,23493,203179,136507
1630674783931,23492,203174,136493
1630674783941,23492,203192,136479
1630674783951,23493,203180,136488
1630674783961,23491,203162,136481
1630674783971,23494,203193,136469
1630674783981,23498,203169,136465
1630674783991,23494,203170,136458
1630674784001,23501,203203,136471
1630674784011,23501,203220,136473
1630674784021,23504,203171,136467
1630674784031,23501,203158,136465
1630674784041,23506,203196,136451
1630674784051,23501,203152,136447
1630674784061,23493,203172,136447
1630674784071,23507,203160,136441
1630674784081,23505,203195,136453
1630674784091,23517,203208,136440
1630674784101,23506,203187,136427
1630674784111,23509,203180,136433
1630674784121,23507,203175,136443
1630674784131,23510,203179,136451
1630674784141,23507,203139,136466
1630674784151,23510,203176,136476
1630674784161,23510,203196,136461
1630674784171,23504,203176,136474
1630674784181,23511,203142,136490
1630674784191,23506,203176,136504
1630674784201,23499,203147,136488
1630674784211,23496,203134,136478
1630674784221,23499,203117,136493
1630674784231,23486,203143,136467
1630674784241,23492,203159,136471
1630674784251,23486,203089,136438
1630674784261,23468,203076,136403
1630674784271,23453,203032,136340
1630674784281,23435,202952,136273
1630674784291,23414,202880,136206
1630674784301,23395,202838,136110
1630674784311,23379,202766,136041
1630674784321,23361,202707,135986
1630674784331,23353,202644,135941
1630674784341,23345,202658,135889
1630674784351,23325,202612,135849
1630674784361,23316,202575,135827
1630674784371,23319,202550,135797
1630674784381,23314,202563,135767
1630674784391,23313,202539,135765
1630674784401,23302,202502,135746
1630674784411,23303,202491,135727
1630674784421,23303,202485,135722
1630674784431,23298,202465,135711
1630674784441,23294,202467,135699
1630674784451,23291,202442,135695
1630674784461,23290,202436,135669
1630674784471,23291,202452,135670
1630674784481,23290,202403,135658
1630674784491,23282,202424,135676
1630674784501,23282,202434,135647
1630674784511,23281,202411,135643
1630674784521,23274,202407,135642
1630674784531,23277,202413,135654
1630674784541,23275,202426,135643
1630674784551,23291,202407,135635
1630674784561,23292,202430,135642
1630674784571,23286,202451,135649
1630674784581,23289,202400,135637
1630674784591,23282,202441,135634
1630674784601,23284,202387,135620
1630674784611,23290,202378,135646
1630674784621,23283,202400,135634
1630674784631,23287,202403,135602
1630674784641,23287,202407,135617
1630674784651,23284,202400,135591
1630674784661,23288,202394,135604
1630674784671,23293,202422,135595
1630674784681,23292,202444,135612
1630674784691,23295,202428,135617
1630674784701,23305,202394,135607
1630674784711,23297,202406,135616
1630674784721,23309,202441,135607
1630674784731,23299,202454,135609
1630674784741,23302,202427,135604
1630674784751,23305,202426,135600
1630674784761,23302,202423,135611
1630674784771,23304,202449,135601
1630674784781,23306,202457,135601
1630674784791,23302,202409,135591
1630674784801,23308,202421,135580
1630674784811,23307,202459,135581
1630674784821,23310,202417,135583
1630674784831,23307,202432,135573
1630674784841,23301,202459,135572
1630674784851,23303,202453,135554
1630674784861,23310,202454,135542
1630674784871,23315,202432,135538
1630674784881,23302,202403,135548
1630674784891,23297,202428,135546
1630674784901,23305,202429,135585
1630674784911,23308,202443,135578
1630674784921,23302,202438,135558
1630674784931,23297,202397,135562
1630674784941,23298,202427,135584
1630674784951,23290,202391,135555
1630674784961,23292,202416,135559
1630674784971,23294,202414,135555
1630674784981,23290,202376,135543
1630674784991,23283,202368,135568
1630674785001,23282,202360,135551
1630674785011,23286,202372,135556
1630674785021,23282,202395,135549
1630674785031,23278,202372,135542
1630674785041,23272,202357,135542
1630674785051,23271,202369,135548
1630674785061,23274,202385,135555
1630674785071,23273,202352,135544
1630674785081,23268,202360,135547
1630674785091,23268,202365,135554
1630674785101,23268,202372,135555
1630674785111,23268,202351,135545
1630674785121,23264,202383,135566
1630674785131,23266,202376,135564
1630674785141,23264,202362,135554
1630674785151,23266,202385,135577
1630674785161,23266,202342,135563
1630674785171,23268,202342,135561
1630674785181,23274,202388,135560
1630674785191,23287,202371,135573
1630674785201,23274,202334,135565
1630674785211,23269,202348,135570
1630674785221,23275,202365,135590
1630674785231,23274,202354,135577
1630674785241,23269,202361,135561
1630674785251,23272,202365,135566
1630674785261,23271,202397,135561
1630674785271,23271,202354,135553
1630674785281,23263,202389,135554
1630674785291,23263,202377,135532
1630674785301,23268,202375,135529
1630674785311,23269,202391,135531
1630674785321,23267,202441,135505
1630674785331,23270,202445,135524
1630674785341,23275,202436,135521
1630674785351,23268,202472,135553
1630674785361,23290,202481,135542
1630674785371,23286,202516,135567
1630674785381,23291,202555,135564
1630674785391,23295,202536,135569
1630674785401,23299,202574,135597
1630674785411,23308,202591,135611
1630674785421,23320,202626,135636
1630674785431,23332,202673,135697
1630674785441,23346,202739,135710
1630674785451,23355,202758,135760
1630674785461,23361,202773,135802
1630674785471,23378,202834,135813
1630674785481,23386,202881,135869
1630674785491,23392,202899,135889
1630674785501,23388,202919,135889
1630674785511,23413,203022,135942
1630674785521,23430,203057,136002
1630674785531,23444,203063,136048
1630674785541,23448,203082,136094
1630674785551,23457,203126,136143
1630674785561,23468,203142,136156
1630674785571,23471,203132,136143
1630674785581,23479,203181,136172
1630674785591,23483,203137,136162
1630674785601,23477,203131,136135
1630674785611,23474,203080,136133
1630674785621,23474,203080,136115
1630674785631,23479,203098,136121
1630674785641,23477,203092,136108
1630674785651,23481,203083,136123
1630674785661,23481,203110,136145
1630674785671,23492,203125,136162
1630674785681,23488,203109,136149
1630674785691,23476,203103,136101
1630674785701,23488,203062,136075
1630674785711,23477,203075,136062
1630674785721,23463,203050,136025
1630674785731,23452,203000,135992
1630674785741,23441,202988,135984
1630674785751,23446,202988,135951
1630674785761,23432,202975,135935
1630674785771,23431,202940,135949
1630674785781,23423,202978,135926
1630674785791,23424,202924,135932
1630674785801,23412,202912,135913
1630674785811,23419,202930,135914
1630674785821,23401,202889,135924
1630674785831,23418,202903,135916
1630674785841,23404,202885,135933
1630674785851,23403,202907,135945
1630674785861,23415,202902,135951
1630674785871,23414,202891,135967
1630674785881,23410,202916,135993
1630674785891,23417,202925,135998
1630674785901,23417,202879,136022
1630674785911,23417,202889,136041
1630674785921,23423,202911,136033
1630674785931,23420,202930,136044
1630674785941,23422,202914,136056
1630674785951,23427,202905,136066
1630674785961,23424,202919,136072
1630674785971,23427,202904,136080
1630674785981,23438,202904,136100
1630674785991,23425,202885,136107
1630674786001,23433,202925,136084
1630674786011,23440,202944,136105
1630674786021,23437,202918,136118
1630674786031,23429,202919,136098
1630674786041,23429,202915,136106
1630674786051,23435,202897,136094
1630674786061,23427,202906,136104
1630674786071,23428,202922,136091
1630674786081,23428,202895,136096
1630674786091,23432,202926,136094
1630674786101,23424,202910,136094
1630674786111,23431,202907,136113
1630674786121,23430,202919,136095
1630674786131,23427,202926,136101
1630674786141,23423,202914,136108
1630674786151,23425,202945,136106
1630674786161,23431,202938,136103
1630674786171,23433,202866,136099
1630674786181,23427,202937,136097
1630674786191,23434,202892,136079
1630674786201,23434,202872,136070
1630674786211,23430,202869,136095
1630674786221,23428,202901,136074
1630674786231,23429,202904,136084
1630674786241,23429,202894,136074
1630674786251,23432,202884,136078
1630674786261,23432,202866,136072
1630674786271,23431,202866,136070
1630674786281,23429,202870,136052
1630674786291,23431,202887,136033
1630674786301,23438,202878,136041
1630674786311,23430,202847,136016
1630674786321,23428,202853,136011
1630674786331,23420,202841,135994
1630674786341,23432,202830,135985
1630674786351,23424,202848,135990
1630674786361,23422,202814,135966
1630674786371,23425,202817,135974
1630674786381,23426,202817,135952
1630674786391,23423,202824,135956
1630674786401,23425,202817,135962
1630674786411,23427,202824,135953
1630674786421,23424,202813,135942
1630674786431,23424,202826,135942
1630674786441,23433,202812,135935
1630674786451,23429,202813,135948
1630674786461,23424,202834,135942
1630674786471,23436,202841,135936
1630674786481,23434,202836,135960
1630674786491,23437,202850,135958
1630674786501,23446,202842,135955
1630674786511,23444,202851,135942
1630674786521,23457,202797,135955
1630674786531,23444,202854,135967
1630674786541,23448,202800,135960
1630674786551,23448,202803,135963
1630674786561,23449,202818,135958
1630674786571,23447,202788,135950
1630674786581,23438,202811,135951
1630674786591,23441,202799,135958
1630674786601,23442,202788,135958
1630674786611,23442,202789,135957
1630674786621,23431,202747,135937
1630674786631,23434,202807,135936
1630674786641,23440,202750,135936
1630674786651,23428,202735,135941
1630674786661,23420,202736,135925
1630674786671,23422,202728,135925
1630674786681,23418,202719,135929
1630674786691,23416,202752,135928
1630674786701,23416,202732,135924
1630674786711,23416,202709,135929
1630674786721,23412,202728,135933
1630674786731,23411,202708,135933
1630674786741,23418,202710,135948
1630674786751,23415,202751,135941
1630674786761,23416,202718,135943
1630674786771,23415,202740,135959
1630674786781,23418,202755,135978
1630674786791,23437,202743,135985
1630674786801,23429,202763,136001
1630674786811,23431,202788,135995
1630674786821,23446,202799,136019
1630674786831,23428,202822,136043
1630674786841,23437,202806,136044
1630674786851,23444,202835,136057
1630674786861,23435,202845,136068
1630674786871,23445,202828,136093
1630674786881,23446,202876,136096
1630674786891,23451,202891,136099
1630674786901,23456,202892,136112
1630674786911,23458,202881,136106
1630674786921,23457,202910,136103
1630674786931,23455,202906,136118
1630674786941,23465,202899,136131
1630674786951,23463,202939,136123
1630674786961,23465,202930,136118
1630674786971,23465,202962,136126
1630674786981,23465,202942,136121
1630674786991,23485,202947,136138
1630674787001,23473,202951,136134
1630674787011,23476,202976,136156
1630674787021,23479,202940,136166
1630674787031,23479,202976,136160
1630674787041,23484,202982,136174
1630674787051,23490,202978,136176
1630674787061,23490,203021,136202
1630674787071,23497,203023,136177
1630674787081,23496,203017,136185
1630674787091,23495,203018,136189
1630674787101,23496,203027,136188
1630674787111,23498,203036,136192
1630674787121,23493,202999,136165
1630674787131,23502,203044,136167
1630674787141,23514,203050,136174
1630674787151,23501,203053,136157
1630674787161,23498,203042,136158
1630674787171,23505,203038,136159
1630674787181,23501,203042,136169
1630674787191,23500,203047,136157
1630674787201,23505,203036,136151
1630674787211,23510,203048,136151
1630674787221,23511,203039,136169
1630674787231,23515,203075,136160
1630674787241,23518,203047,136150
1630674787251,23517,203080,136177
1630674787261,23523,203063,136171
1630674787271,23526,203071,136150
1630674787281,23526,203087,136164
1630674787291,23531,203082,136145
1630674787301,23519,203088,136154
1630674787311,23519,203072,136168
1630674787321,23536,203063,136157
1630674787331,23529,203071,136142
1630674787341,23523,203042,136126
1630674787351,23529,203044,136120
1630674787361,23524,203046,136136
1630674787371,23526,203016,136136
1630674787381,23527,203062,136155
1630674787391,23531,203017,136136
1630674787401,23520,202978,136142
1630674787411,23516,202987,136124
1630674787421,23510,202994,136109
1630674787431,23514,202988,136105
1630674787441,23508,202958,136099
1630674787451,23512,202927,136073
1630674787461,23502,202910,136107
1630674787471,23497,202904,136087
1630674787481,23491,202893,136085
1630674787491,23482,202872,136075
1630674787501,23479,202922,136093
1630674787511,23476,202912,136093
1630674787521,23472,202895,136054
1630674787531,23468,202830,136051
1630674787541,23464,202841,136056
1630674787551,23465,202842,136031
1630674787561,23459,202864,136039
1630674787571,23456,202842,136030
1630674787581,23453,202805,136021
1630674787591,23450,202841,135996
1630674787601,23449,202818,136010
1630674787611,23444,202831,136007
1630674787621,23447,202820,136003
1630674787631,23438,202805,136012
1630674787641,23446,202803,136006
1630674787651,23435,202802,135999
1630674787661,23438,202796,135998
1630674787671,23435,202789,135991
1630674787681,23431,202776,135996
1630674787691,23424,202799,135976
1630674787701,23430,202782,135993
1630674787711,23430,202780,135967
1630674787721,23421,202755,135984
1630674787731,23428,202794,135980
1630674787741,23429,202762,135966
1630674787751,23425,202773,135959
1630674787761,23413,202775,135962
1630674787771,23428,202752,135942
1630674787781,23420,202741,135941
1630674787791,23418,202786,135956
1630674787801,23421,202750,135941
1630674787811,23422,202760,135926
1630674787821,23417,202761,135924
1630674787831,23416,202770,135942
1630674787841,23418,202751,135928
1630674787851,23412,202751,135923
1630674787861,23413,202746,135927
1630674787871,23419,202783,135918
1630674787881,23419,202748,135921
1630674787891,23411,202752,135905
1630674787901,23416,202754,135909
1630674787911,23422,202749,135904
1630674787921,23413,202763,135909
1630674787931,23414,202754,135909
1630674787941,23420,202742,135906
1630674787951,23424,202770,135896
1630674787961,23430,202760,135890
1630674787971,23423,202736,135911
1630674787981,23422,202751,135904
1630674787991,23422,202751,135895
1630674788001,23423,202766,135892
1630674788011,23422,202732,135889
1630674788021,23426,202754,135879
1630674788031,23424,202772,135883
1630674788041,23426,202730,135874
1630674788051,23430,202743,135882
1630674788061,23433,202736,135885
1630674788071,23434,202763,135882
1630674788081,23438,202792,135867
1630674788091,23437,202773,135859
1630674788101,23423,202765,135870
1630674788111,23436,202735,135879
1630674788121,23430,202758,135875
1630674788131,23435,202754,135858
1630674788141,23430,202781,135852
1630674788151,23432,202748,135862
1630674788161,23436,202740,135847
1630674788171,23433,202755,135861
1630674788181,23433,202739,135860
1630674788191,23433,202755,135865
1630674788201,23433,202746,135882
1630674788211,23428,202717,135877
1630674788221,23427,202729,135873
1630674788231,23422,202721,135883
1630674788241,23423,202718,135876
1630674788251,23435,202700,135873
1630674788261,23425,202689,135882
1630674788271,23410,202696,135861
1630674788281,23405,202670,135854
1630674788291,23401,202691,135853
1630674788301,23398,202687,135856
1630674788311,23396,202672,135838
1630674788321,23393,202648,135844
1630674788331,23386,202665,135845
1630674788341,23383,202652,135854
1630674788351,23375,202603,135839
1630674788361,23378,202596,135847
1630674788371,23377,202645,135853
1630674788381,23373,202613,135845
1630674788391,23374,202614,135829
1630674788401,23367,202619,135819
1630674788411,23379,202594,135829
1630674788421,23374,202607,135819
1630674788431,23364,202608,135827
1630674788441,23356,202608,135821
1630674788451,23366,202600,135839
1630674788461,23363,202624,135837
1630674788471,23361,202604,135844
1630674788481,23356,202606,135830
1630674788491,23355,202583,135832
1630674788501,23357,202560,135846
1630674788511,23359,202571,135833
1630674788521,23358,202562,135847
1630674788531,23360,202564,135847
1630674788541,23355,202589,135832
1630674788551,23354,202579,135834
1630674788561,23348,202584,135824
1630674788571,23357,202569,135812
1630674788581,23353,202572,135849
1630674788591,23364,202591,135803
1630674788601,23351,202576,135820
1630674788611,23351,202571,135834
1630674788621,23356,202578,135823
1630674788631,23355,202563,135833
1630674788641,23354,202571,135834
1630674788651,23358,202592,135824
1630674788661,23358,202579,135814
1630674788671,23356,202583,135824
1630674788681,23357,202588,135803
1630674788691,23360,202556,135807
1630674788701,23361,202570,135809
1630674788711,23355,202575,135820
1630674788721,23357,202537,135805
1630674788731,23362,202600,135833
1630674788741,23357,202608,135808
1630674788751,23366,202548,135803
1630674788761,23368,202586,135843
1630674788771,23360,202553,135810
1630674788781,23363,202558,135805
1630674788791,23363,202582,135811
1630674788801,23367,202576,135813
1630674788811,23366,202574,135802
1630674788821,23369,202573,135813
1630674788831,23373,202550,135820
1630674788841,23373,202597,135811
1630674788851,23375,202610,135828
1630674788861,23383,202583,135831
1630674788871,23380,202602,135846
1630674788881,23384,202579,135831
1630674788891,23391,202626,135826
1630674788901,23384,202609,135831
1630674788911,23387,202595,135819
1630674788921,23380,202651,135818
1630674788931,23388,202638,135824
1630674788941,23391,202629,135803
1630674788951,23384,202641,135795
1630674788961,23387,202627,135792
1630674788971,23386,202611,135788
1630674788981,23384,202624,135773
1630674788991,23379,202639,135779
1630674789001,23383,202615,135763
1630674789011,23382,202640,135797
1630674789021,23384,202627,135783
1630674789031,23377,202628,135794
1630674789041,23379,202565,135796
1630674789051,23371,202612,135792
1630674789061,23369,202582,135786
1630674789071,23368,202583,135789
1630674789081,23354,202547,135791
1630674789091,23357,202550,135787
1630674789101,23350,202574,135782
1630674789111,23353,202539,135808
1630674789121,23346,202555,135803
1630674789131,23347,202553,135800
1630674789141,23344,202539,135788
1630674789151,23342,202516,135790
1630674789161,23335,202521,135797
1630674789171,23334,202493,135776
1630674789181,23330,202523,135788
1630674789191,23327,202459,135781
1630674789201,23323,202486,135778
1630674789211,23326,202489,135774
1630674789221,23318,202467,135776
1630674789231,23324,202492,135758
1630674789241,23322,202498,135771
1630674789251,23325,202513,135779
1630674789261,23313,202483,135765
1630674789271,23319,202493,135772
1630674789281,23313,202471,135802
1630674789291,23318,202478,135770
1630674789301,23309,202479,135797
1630674789311,23308,202464,135785
1630674789321,23306,202470,135764
1630674789331,23308,202490,135783
1630674789341,23310,202478,135787
1630674789351,23306,202446,135799
1630674789361,23311,202443,135778
1630674789371,23306,202451,135797
1630674789381,23302,202444,135791
1630674789391,23307,202457,135782
1630674789401,23302,202470,135805
1630674789411,23300,202458,135784
1630674789421,23310,202463,135779
1630674789431,23312,202432,135800
1630674789441,23316,202433,135804
1630674789451,23310,202483,135805
1630674789461,23312,202491,135794
1630674789471,23313,202460,135799
1630674789481,23316,202454,135800
1630674789491,23311,202505,135799
1630674789501,23316,202460,135795
1630674789511,23312,202467,135789
1630674789521,23314,202506,135801
1630674789531,23320,202484,135795
1630674789541,23317,202496,135788
1630674789551,23317,202515,135796
1630674789561,23319,202461,135812
1630674789571,23309,202488,135807
1630674789581,23315,202456,135802
1630674789591,23319,202484,135791
1630674789601,23316,202481,135786
1630674789611,23323,202498,135813
1630674789621,23327,202487,135800
1630674789631,23323,202499,135788
1630674789641,23321,202493,135798
1630674789651,23326,202532,135797
1630674789661,23323,202523,135777
1630674789671,23324,202520,135793
1630674789681,23328,202492,135777
1630674789691,23329,202479,135783
1630674789701,23332,202498,135794
1630674789711,23333,202532,135794
1630674789721,23345,202490,135822
1630674789731,23331,202543,135799
1630674789741,23335,202532,135796
1630674789751,23329,202575,135798
1630674789761,23341,202541,135818
1630674789771,23346,202542,135789
1630674789781,23345,202555,135807
1630674789791,23351,202560,135810
1630674789801,23354,202542,135808
1630674789811,23353,202565,135816
1630674789821,23355,202594,135833
1630674789831,23356,202580,135835
1630674789841,23361,202589,135830
1630674789851,23358,202558,135847
1630674789861,23361,202599,135864
1630674789871,23358,202557,135867
1630674789881,23356,202560,135861
1630674789891,23351,202576,135863
1630674789901,23362,202562,135873
1630674789911,23351,202534,135863
1630674789921,23344,202553,135861
1630674789931,23341,202558,135874
1630674789941,23334,202534,135872
1630674789951,23337,202527,135873
1630674789961,23330,202564,135874
1630674789971,23329,202536,135882
1630674789981,23326,202530,135888
1630674789991,23328,202551,135881
1630674790001,23324,202537,135893
1630674790011,23317,202517,135870
1630674790021,23316,202508,135876
1630674790031,23317,202535,135884
1630674790041,23309,202516,135878
1630674790051,23301,202522,135869
1630674790061,23301,202510,135862
1630674790071,23319,202501,135879
1630674790081,23306,202538,135881
1630674790091,23310,202499,135894
1630674790101,23311,202509,135891
1630674790111,23307,202515,135888
1630674790121,23304,202483,135892
1630674790131,23300,202489,135877
1630674790141,23298,202483,135869
1630674790151,23298,202495,135859
1630674790161,23297,202488,135862
1630674790171,23299,202494,135865
1630674790181,23295,202509,135862
1630674790191,23299,202475,135865
1630674790201,23302,202489,135858
1630674790211,23305,202486,135868
1630674790221,23289,202493,135857
1630674790231,23300,202478,135871
1630674790241,23297,202481,135860
1630674790251,23298,202490,135862
1630674790261,23293,202505,135852
1630674790271,23296,202480,135853
1630674790281,23296,202503,135856
1630674790291,23298,202484,135848
1630674790301,23302,202507,135862
1630674790311,23299,202512,135870
1630674790321,23302,202504,135891
1630674790331,23306,202510,135864
1630674790341,23307,202489,135859
1630674790351,23310,202473,135869
1630674790361,23308,202498,135865
1630674790371,23312,202495,135868
1630674790381,23303,202543,135856
1630674790391,23308,202523,135847
1630674790401,23314,202539,135868
1630674790411,23314,202547,135852
1630674790421,23316,202538,135859
1630674790431,23316,202551,135867
1630674790441,23318,202517,135867
1630674790451,23323,202540,135867
1630674790461,23323,202496,135867
1630674790471,23322,202519,135862
1630674790481,23330,202568,135875
1630674790491,23327,202533,135860
1630674790501,23334,202524,135859
1630674790511,23334,202527,135860
1630674790521,23337,202571,135894
1630674790531,23342,202577,135883
1630674790541,23352,202573,135887
1630674790551,23345,202574,135886
1630674790561,23343,202596,135899
1630674790571,23343,202596,135876
1630674790581,23346,202599,135873
1630674790591,23348,202610,135873
1630674790601,23351,202597,135875
1630674790611,23355,202609,135888
1630674790621,23356,202585,135885
1630674790631,23357,202605,135891
1630674790641,23360,202605,135892
1630674790651,23354,202606,135904
1630674790661,23365,202621,135908
1630674790671,23354,202596,135908
1630674790681,23360,202616,135929
1630674790691,23348,202633,135900
1630674790701,23355,202608,135913
1630674790711,23355,202562,135913
1630674790721,23349,202604,135891
1630674790731,23345,202581,135913
1630674790741,23344,202572,135924
1630674790751,23346,202555,135929
1630674790761,23337,202576,135923
1630674790771,23331,202563,135901
1630674790781,23328,202579,135917
1630674790791,23330,202547,135903
1630674790801,23329,202581,135916
1630674790811,23326,202543,135905
1630674790821,23323,202543,135923
1630674790831,23324,202542,135910
1630674790841,23315,202549,135929
1630674790851,23323,202535,135944
1630674790861,23317,202548,135918
1630674790871,23321,202522,135898
1630674790881,23319,202530,135912
1630674790891,23324,202512,135914
1630674790901,23313,202532,135905
1630674790911,23315,202521,135925
1630674790921,23312,202554,135913
1630674790931,23313,202526,135919
1630674790941,23308,202517,135905
1630674790951,23310,202535,135928
1630674790961,23308,202507,135904
1630674790971,23311,202512,135911
1630674790981,23309,202556,135918
1630674790991,23313,202509,135903
1630674791001,23307,202529,135904
1630674791011,23299,202561,135913
1630674791021,23301,202561,135901
1630674791031,23312,202502,135912
1630674791041,23320,202532,135907
1630674791051,23309,202520,135909
1630674791061,23312,202541,135921
1630674791071,23316,202558,135908
1630674791081,23314,202546,135906
1630674791091,23315,202529,135921
1630674791101,23319,202530,135902
1630674791111,23312,202535,135919
1630674791121,23323,202533,135897
1630674791131,23322,202563,135893
1630674791141,23321,202533,135913
1630674791151,23323,202561,135908
1630674791161,23327,202552,135910
1630674791171,23329,202562,135903
1630674791181,23337,202574,135905
1630674791191,23334,202554,135907
1630674791201,23329,202566,135897
1630674791211,23337,202535,135919
1630674791221,23333,202563,135915
1630674791231,23334,202575,135894
1630674791241,23334,202578,135918
1630674791251,23339,202584,135916
1630674791261,23339,202569,135902
1630674791271,23342,202578,135905
1630674791281,23339,202594,135921
1630674791291,23329,202588,135912
1630674791301,23344,202592,135905
1630674791311,23346,202591,135909
1630674791321,23344,202597,135911
1630674791331,23359,202576,135903
1630674791341,23354,202610,135907
1630674791351,23357,202591,135904
1630674791361,23359,202596,135906
1630674791371,23351,202599,135895
1630674791381,23357,202616,135903
1630674791391,23363,202626,135907
1630674791401,23361,202604,135914
1630674791411,23366,202626,135899
1630674791421,23368,202623,135894
1630674791431,23365,202637,135912
1630674791441,23370,202645,135904
1630674791451,23371,202650,135898
1630674791461,23377,202665,135898
1630674791471,23377,202663,135908
1630674791481,23376,202615,135905
1630674791491,23380,202635,135904
1630674791501,23376,202633,135893
1630674791511,23378,202639,135921
1630674791521,23379,202635,135922
1630674791531,23377,202637,135916
1630674791541,23372,202632,135931
1630674791551,23372,202647,135942
1630674791561,23371,202613,135932
1630674791571,23370,202592,135928
1630674791581,23367,202622,135918
1630674791591,23366,202641,135927
1630674791601,23364,202609,135940
1630674791611,23362,202575,135934
1630674791621,23357,202573,135922
1630674791631,23351,202615,135927
1630674791641,23353,202588,135925
1630674791651,23352,202593,135936
1630674791661,23349,202558,135928
1630674791671,23348,202568,135922
1630674791681,23346,202560,135931
1630674791691,23333,202550,135902
1630674791701,23328,202593,135917
1630674791711,23337,202539,135943
1630674791721,23332,202562,135898
1630674791731,23333,202562,135907
1630674791741,23333,202568,135907
1630674791751,23334,202553,135914
1630674791761,23332,202577,135926
1630674791771,23337,202573,135920
1630674791781,23336,202574,135912
1630674791791,23337,202527,135911
1630674791801,23338,202561,135927
1630674791811,23331,202551,135918
1630674791821,23346,202598,135934
1630674791831,23335,202523,135909
1630674791841,23337,202574,135924
1630674791851,23338,202548,135912
1630674791861,23321,202538,135910
1630674791871,23338,202568,135920
1630674791881,23338,202588,135919
1630674791891,23339,202564,135914
1630674791901,23335,202562,135920
1630674791911,23336,202574,135902
1630674791921,23339,202555,135915
1630674791931,23340,202588,135927
1630674791941,23338,202576,135907
1630674791951,23342,202586,135920
1630674791961,23342,202565,135900
1630674791971,23346,202586,135911
1630674791981,23341,202592,135910
1630674791991,23348,202557,135922
1630674792001,23345,202588,135916
1630674792011,23338,202570,135901
1630674792021,23345,202612,135917
1630674792031,23352,202608,135927
1630674792041,23353,202587,135927
1630674792051,23350,202578,135916
1630674792061,23355,202584,135923
1630674792071,23355,202600,135916
1630674792081,23354,202607,135918
1630674792091,23359,202603,135906
1630674792101,23365,202592,135906
1630674792111,23366,202606,135918
1630674792121,23364,202624,135918
1630674792131,23369,202613,135917
1630674792141,23365,202625,135920
1630674792151,23371,202627,135935
1630674792161,23377,202623,135928
1630674792171,23375,202648,135905
1630674792181,23392,202620,135917
1630674792191,23380,202658,135903
1630674792201,23381,202618,135907
1630674792211,23382,202665,135904
1630674792221,23381,202653,135915
1630674792231,23385,202657,135902
1630674792241,23388,202672,135933
1630674792251,23387,202705,135926
1630674792261,23395,202671,135923
1630674792271,23398,202654,135925
1630674792281,23394,202682,135916
1630674792291,23405,202675,135928
1630674792301,23399,202681,135915
1630674792311,23403,202680,135934
1630674792321,23414,202746,135923
1630674792331,23415,202707,135920
1630674792341,23408,202693,135915
1630674792351,23415,202719,135927
1630674792361,23415,202687,135921
1630674792371,23417,202706,135950
1630674792381,23421,202728,135948
1630674792391,23423,202712,135959
1630674792401,23419,202717,135971
1630674792411,23411,202723,135964
1630674792421,23418,202702,135966
1630674792431,23419,202717,135957
1630674792441,23411,202691,135953
1630674792451,23411,202703,135953
1630674792461,23411,202672,135941
1630674792471,23399,202718,135956
1630674792481,23412,202681,135962
1630674792491,23408,202646,135955
1630674792501,23404,202657,135943
1630674792511,23401,202653,135959
1630674792521,23412,202655,135972
1630674792531,23404,202633,135947
1630674792541,23397,202653,135958
1630674792551,23401,202657,135965
1630674792561,23394,202650,135936
1630674792571,23396,202627,135944
1630674792581,23397,202663,135956
1630674792591,23396,202666,135938
1630674792601,23394,202672,135939
1630674792611,23399,202668,135943
1630674792621,23400,202672,135953
1630674792631,23403,202677,135950
1630674792641,23402,202667,135949
1630674792651,23398,202717,135955
1630674792661,23395,202677,135954
1630674792671,23399,202663,135952
1630674792681,23400,202680,135951
1630674792691,23400,202666,135960
1630674792701,23402,202682,135951
1630674792711,23398,202663,135951
1630674792721,23399,202687,135936
1630674792731,23400,202658,135938
1630674792741,23404,202663,135956
1630674792751,23405,202649,135966
1630674792761,23404,202665,135940
1630674792771,23409,202670,135956
1630674792781,23405,202657,135945
1630674792791,23405,202632,135951
1630674792801,23402,202668,135954
1630674792811,23404,202674,135955
1630674792821,23413,202701,135949
1630674792831,23404,202704,135934
1630674792841,23412,202681,135933
1630674792851,23412,202704,135942
1630674792861,23409,202690,135936
1630674792871,23412,202695,135940
1630674792881,23411,202678,135950
1630674792891,23411,202698,135953
1630674792901,23417,202674,135941
1630674792911,23421,202685,135919
1630674792921,23419,202690,135895
1630674792931,23422,202694,135925
1630674792941,23428,202715,135916
1630674792951,23424,202705,135933
1630674792961,23434,202730,135929
1630674792971,23428,202716,135923
1630674792981,23426,202740,135946
1630674792991,23432,202733,135943
1630674793001,23435,202732,135936
1630674793011,23438,202715,135953
1630674793021,23434,202724,135942
1630674793031,23436,202701,135932
1630674793041,23438,202744,135942
1630674793051,23448,202749,135928
1630674793061,23447,202755,135930
1630674793071,23448,202732,135936
1630674793081,23449,202763,135932
1630674793091,23448,202745,135918
1630674793101,23457,202748,135933
1630674793111,23456,202761,135928
1630674793121,23459,202745,135919
1630674793131,23465,202770,135931
1630674793141,23447,202756,135928
1630674793151,23451,202767,135952
1630674793161,23467,202760,135932
1630674793171,23466,202784,135947
1630674793181,23470,202775,135941
1630674793191,23472,202791,135932
1630674793201,23474,202775,135924
1630674793211,23477,202785,135937
1630674793221,23480,202769,135926
1630674793231,23475,202800,135946
1630674793241,23480,202760,135931
1630674793251,23476,202807,135936
1630674793261,23470,202777,135964
1630674793271,23474,202782,135943
1630674793281,23470,202790,135920
1630674793291,23466,202740,135920
1630674793301,23472,202742,135933
1630674793311,23468,202738,135931
1630674793321,23468,202766,135929
1630674793331,23469,202743,135925
1630674793341,23460,202733,135941
1630674793351,23466,202744,135927
1630674793361,23463,202765,135924
1630674793371,23458,202728,135942
1630674793381,23463,202741,135924
1630674793391,23460,202733,135921
1630674793401,23455,202739,135943
1630674793411,23452,202739,135921
1630674793421,23455,202734,135922
1630674793431,23455,202734,135919
1630674793441,23457,202735,135928
1630674793451,23458,202727,135903
1630674793461,23452,202720,135915
1630674793471,23456,202735,135915
1630674793481,23456,202735,135925
1630674793491,23457,202742,135929
1630674793501,23458,202737,135936
1630674793511,23457,202719,135922
1630674793521,23454,202722,135910
1630674793531,23453,202701,135915
1630674793541,23458,202720,135918
1630674793551,23454,202751,135904
1630674793561,23459,202690,135907
1630674793571,23454,202704,135879
1630674793581,23455,202744,135908
1630674793591,23456,202761,135892
1630674793601,23457,202730,135890
1630674793611,23462,202741,135909
1630674793621,23449,202720,135914
1630674793631,23456,202705,135901
1630674793641,23458,202743,135914
1630674793651,23451,202722,135908
1630674793661,23457,202745,135906
1630674793671,23463,202725,135914
1630674793681,23458,202735,135905
1630674793691,23460,202730,135904
1630674793701,23462,202767,135887
1630674793711,23457,202749,135880
1630674793721,23458,202736,135884
1630674793731,23466,202743,135889
1630674793741,23462,202727,135886
1630674793751,23465,202749,135873
1630674793761,23478,202735,135904
1630674793771,23475,202736,135887
1630674793781,23471,202756,135863
1630674793791,23464,202744,135884
1630674793801,23471,202737,135863
1630674793811,23474,202746,135863
1630674793821,23478,202749,135865
1630674793831,23477,202748,135879
1630674793841,23479,202740,135876
1630674793851,23480,202735,135884
1630674793861,23478,202790,135887
1630674793871,23475,202759,135870
1630674793881,23486,202770,135867
1630674793891,23481,202763,135871
1630674793901,23486,202752,135886
1630674793911,23490,202758,135874
1630674793921,23491,202751,135901
1630674793931,23491,202785,135886
1630674793941,23495,202787,135894
1630674793951,23501,202770,135892
1630674793961,23496,202780,135887
1630674793971,23500,202793,135883
1630674793981,23501,202817,135883
1630674793991,23501,202815,135886
1630674794001,23502,202813,135855
1630674794011,23504,202805,135877
1630674794021,23501,202828,135892
1630674794031,23505,202823,135887
1630674794041,23511,202825,135887
1630674794051,23512,202814,135894
1630674794061,23518,202839,135884
1630674794071,23508,202816,135889
1630674794081,23516,202809,135911
1630674794091,23518,202814,135904
1630674794101,23520,202821,135909
1630674794111,23503,202835,135925
1630674794121,23510,202797,135905
1630674794131,23506,202811,135895
1630674794141,23509,202793,135909
1630674794151,23503,202781,135895
1630674794161,23501,202769,135904
1630674794171,23500,202786,135891
1630674794181,23497,202752,135902
1630674794191,23491,202752,135888
1630674794201,23493,202793,135885
1630674794211,23489,202758,135893
1630674794221,23492,202761,135880
1630674794231,23485,202727,135884
1630674794241,23487,202733,135890
1630674794251,23489,202743,135871
1630674794261,23473,202741,135881
1630674794271,23470,202745,135871
1630674794281,23469,202734,135870
1630674794291,23464,202732,135872
1630674794301,23467,202732,135865
1630674794311,23467,202730,135870
1630674794321,23468,202739,135876
1630674794331,23469,202726,135862
1630674794341,23469,202730,135873
1630674794351,23471,202715,135866
1630674794361,23466,202720,135892
1630674794371,23470,202731,135883
1630674794381,23470,202699,135896
1630674794391,23469,202699,135870
1630674794401,23466,202675,135879
1630674794411,23474,202713,135858
1630674794421,23469,202686,135864
1630674794431,23476,202687,135863
1630674794441,23472,202688,135853
1630674794451,23473,202695,135844
1630674794461,23467,202695,135877
1630674794471,23470,202724,135884
1630674794481,23467,202701,135870
1630674794491,23465,202696,135872
1630674794501,23466,202708,135869
1630674794511,23468,202700,135870
1630674794521,23468,202701,135871
1630674794531,23470,202730,135860
1630674794541,23466,202699,135868
1630674794551,23468,202740,135854
1630674794561,23467,202691,135862
1630674794571,23468,202673,135868
1630674794581,23462,202666,135871
1630674794591,23463,202702,135859
1630674794601,23474,202687,135858
1630674794611,23475,202733,135856
1630674794621,23469,202720,135851
1630674794631,23472,202719,135866
1630674794641,23472,202716,135875
1630674794651,23479,202707,135855
1630674794661,23473,202712,135879
1630674794671,23471,202721,135859
1630674794681,23478,202708,135864
1630674794691,23473,202716,135865
1630674794701,23484,202715,135860
1630674794711,23477,202705,135861
1630674794721,23476,202716,135864
1630674794731,23488,202706,135849
1630674794741,23489,202708,135846
1630674794751,23470,202770,135853
1630674794761,23488,202714,135850
1630674794771,23487,202727,135839
1630674794781,23487,202727,135852
1630674794791,23487,202744,135871
1630674794801,23488,202738,135850
1630674794811,23488,202735,135872
1630674794821,23490,202718,135860
1630674794831,23493,202726,135860
1630674794841,23489,202774,135865
1630674794851,23492,202751,135870
1630674794861,23499,202741,135845
1630674794871,23493,202767,135851
1630674794881,23495,202766,135868
1630674794891,23500,202760,135888
1630674794901,23502,202724,135889
1630674794911,23500,202740,135902
1630674794921,23489,202736,135886
1630674794931,23486,202746,135884
1630674794941,23478,202737,135893
1630674794951,23483,202735,135884
1630674794961,23477,202741,135873
1630674794971,23477,202712,135883
1630674794981,23477,202728,135894
1630674794991,23471,202712,135897
1630674795001,23467,202702,135885
1630674795011,23467,202690,135893
1630674795021,23460,202678,135881
1630674795031,23457,202670,135853
1630674795041,23449,202660,135865
1630674795051,23446,202625,135858
1630674795061,23445,202637,135877
1630674795071,23434,202634,135852
1630674795081,23433,202646,135861
1630674795091,23431,202629,135869
1630674795101,23436,202636,135849
1630674795111,23423,202625,135835
1630674795121,23424,202610,135850
1630674795131,23417,202609,135850
1630674795141,23423,202600,135839
1630674795151,23420,202598,135860
1630674795161,23416,202628,135852
1630674795171,23414,202612,135845
1630674795181,23413,202618,135850
1630674795191,23410,202600,135848
1630674795201,23406,202576,135849
1630674795211,23405,202594,135827
1630674795221,23405,202587,135856
1630674795231,23412,202601,135842
1630674795241,23405,202551,135836
1630674795251,23396,202583,135832
1630674795261,23402,202589,135832
1630674795271,23391,202586,135849
1630674795281,23397,202566,135837
1630674795291,23395,202580,135850
1630674795301,23394,202586,135834
1630674795311,23391,202584,135850
1630674795321,23393,202594,135835
1630674795331,23394,202569,135847
1630674795341,23396,202586,135865
1630674795351,23398,202579,135849
1630674795361,23387,202586,135829
1630674795371,23391,202615,135844
1630674795381,23393,202608,135866
1630674795391,23388,202566,135843
1630674795401,23395,202609,135841
1630674795411,23389,202575,135805
1630674795421,23384,202604,135827
1630674795431,23390,202598,135830
1630674795441,23386,202575,135814
1630674795451,23383,202557,135823
1630674795461,23388,202570,135836
1630674795471,23384,202588,135843
1630674795481,23389,202602,135847
1630674795491,23388,202580,135818
1630674795501,23388,202585,135844
1630674795511,23393,202637,135833
1630674795521,23392,202603,135830
1630674795531,23392,202595,135827
1630674795541,23394,202605,135827
1630674795551,23391,202591,135837
1630674795561,23391,202605,135833
1630674795571,23400,202638,135846
1630674795581,23393,202613,135835
1630674795591,23399,202617,135855
1630674795601,23396,202620,135833
1630674795611,23390,202639,135838
1630674795621,23391,202660,135844
1630674795631,23395,202604,135848
1630674795641,23395,202598,135844
1630674795651,23396,202627,135824
1630674795661,23395,202652,135851
1630674795671,23398,202664,135853
1630674795681,23395,202636,135819
1630674795691,23397,202626,135856
1630674795701,23400,202632,135843
1630674795711,23387,202622,135847
1630674795721,23389,202591,135841
1630674795731,23383,202601,135858
1630674795741,23390,202607,135851
1630674795751,23380,202597,135843
1630674795761,23379,202596,135834
1630674795771,23367,202571,135845
1630674795781,23370,202566,135832
1630674795791,23359,202581,135839
1630674795801,23361,202561,135849
1630674795811,23350,202538,135846
1630674795821,23348,202557,135843
1630674795831,23345,202561,135830
1630674795841,23343,202540,135831
1630674795851,23335,202527,135829
1630674795861,23336,202511,135837
1630674795871,23333,202509,135833
1630674795881,23326,202563,135856
1630674795891,23318,202493,135829
1630674795901,23312,202504,135824
1630674795911,23321,202509,135822
1630674795921,23318,202482,135810
1630674795931,23313,202518,135827
1630674795941,23312,202493,135832
1630674795951,23310,202495,135820
1630674795961,23309,202473,135824
1630674795971,23308,202471,135819
1630674795981,23303,202501,135806
1630674795991,23303,202476,135830
1630674796001,23303,202491,135828
1630674796011,23303,202482,135810
1630674796021,23297,202463,135817
1630674796031,23298,202460,135819
1630674796041,23291,202479,135808
1630674796051,23299,202480,135812
1630674796061,23297,202466,135796
1630674796071,23287,202467,135800
1630674796081,23278,202483,135799
1630674796091,23288,202470,135812
1630674796101,23285,202463,135814
1630674796111,23288,202486,135819
1630674796121,23288,202504,135812
1630674796131,23290,202423,135804
1630674796141,23287,202471,135808
1630674796151,23285,202479,135818
1630674796161,23287,202479,135813
1630674796171,23288,202479,135809
1630674796181,23287,202476,135805
1630674796191,23289,202458,135811
1630674796201,23281,202479,135810
1630674796211,23298,202477,135814
1630674796221,23298,202491,135809
1630674796231,23297,202459,135793
1630674796241,23300,202493,135806
1630674796251,23296,202480,135809
1630674796261,23299,202489,135814
1630674796271,23295,202502,135826
1630674796281,23299,202517,135820
1630674796291,23300,202508,135835
1630674796301,23301,202489,135835
1630674796311,23302,202500,135838
1630674796321,23312,202510,135852
1630674796331,23311,202536,135850
1630674796341,23312,202527,135845
1630674796351,23309,202543,135856
1630674796361,23323,202515,135849
1630674796371,23325,202558,135868
1630674796381,23322,202541,135867
1630674796391,23315,202528,135885
1630674796401,23321,202521,135856
1630674796411,23324,202536,135871
1630674796421,23327,202519,135850
1630674796431,23327,202533,135873
1630674796441,23328,202524,135867
1630674796451,23330,202535,135869
1630674796461,23334,202569,135872
1630674796471,23334,202551,135865
1630674796481,23331,202552,135851
1630674796491,23339,202575,135862
1630674796501,23338,202569,135862
1630674796511,23334,202546,135901
1630674796521,23340,202547,135893
1630674796531,23331,202541,135910
1630674796541,23324,202551,135896
1630674796551,23341,202550,135916
1630674796561,23329,202534,135907
1630674796571,23323,202526,135909
1630674796581,23323,202536,135910
1630674796591,23320,202526,135921
1630674796601,23312,202505,135900
1630674796611,23311,202528,135905
1630674796621,23309,202504,135910
1630674796631,23305,202494,135907
1630674796641,23303,202488,135904
1630674796651,23295,202462,135910
1630674796661,23293,202455,135911
1630674796671,23286,202435,135913
1630674796681,23286,202487,135905
1630674796691,23293,202441,135885
1630674796701,23286,202445,135901
1630674796711,23286,202462,135890
1630674796721,23285,202427,135871
1630674796731,23271,202386,135881
1630674796741,23274,202410,135872
1630674796751,23275,202430,135884
1630674796761,23272,202409,135874
1630674796771,23267,202405,135874
1630674796781,23266,202398,135870
1630674796791,23269,202411,135860
1630674796801,23266,202358,135855
1630674796811,23262,202373,135866
1630674796821,23263,202361,135866
1630674796831,23261,202387,135841
1630674796841,23259,202364,135844
1630674796851,23248,202385,135846
1630674796861,23253,202377,135852
1630674796871,23252,202385,135855
1630674796881,23257,202363,135845
1630674796891,23260,202394,135853
1630674796901,23252,202366,135838
1630674796911,23254,202386,135850
1630674796921,23258,202384,135848
1630674796931,23260,202386,135849
1630674796941,23260,202368,135843
1630674796951,23259,202390,135842
1630674796961,23259,202380,135845
1630674796971,23258,202378,135848
1630674796981,23259,202400,135847
1630674796991,23255,202388,135819
1630674797001,23263,202402,135853
1630674797011,23267,202363,135840
1630674797021,23268,202412,135846
1630674797031,23272,202398,135843
1630674797041,23265,202394,135828
1630674797051,23275,202387,135828
1630674797061,23266,202387,135851
1630674797071,23270,202399,135826
1630674797081,23267,202410,135837
1630674797091,23273,202404,135846
1630674797101,23274,202415,135828
1630674797111,23274,202411,135838
1630674797121,23279,202462,135834
1630674797131,23271,202393,135843
1630674797141,23280,202412,135847
1630674797151,23276,202412,135840
1630674797161,23282,202405,135841
1630674797171,23285,202472,135849
1630674797181,23281,202427,135837
1630674797191,23279,202451,135861
1630674797201,23291,202460,135857
1630674797211,23297,202470,135844
1630674797221,23297,202440,135856
1630674797231,23296,202457,135855
1630674797241,23301,202510,135857
1630674797251,23302,202481,135866
1630674797261,23304,202462,135855
1630674797271,23308,202515,135876
1630674797281,23313,202517,135916
1630674797291,23327,202560,135926
1630674797301,23325,202598,135991
1630674797311,23332,202635,136000
1630674797321,23332,202683,136021
1630674797331,23350,202697,136016
1630674797341,23339,202720,136011
1630674797351,23327,202726,135962
1630674797361,23323,202695,135985
1630674797371,23313,202708,135953
1630674797381,23313,202722,135957
1630674797391,23309,202681,135947
1630674797401,23305,202648,135929
1630674797411,23296,202645,135905
1630674797421,23288,202644,135912
1630674797431,23287,202634,135887
1630674797441,23286,202650,135889
1630674797451,23281,202619,135903
1630674797461,23282,202597,135893
1630674797471,23283,202601,135909
1630674797481,23281,202598,135887
1630674797491,23276,202604,135886
1630674797501,23286,202611,135901
1630674797511,23281,202590,135874
1630674797521,23269,202568,135870
1630674797531,23262,202570,135870
1630674797541,23275,202567,135866
1630674797551,23264,202557,135863
1630674797561,23268,202526,135863
1630674797571,23270,202546,135862
1630674797581,23261,202533,135843
1630674797591,23262,202522,135839
1630674797601,23254,202536,135832
1630674797611,23261,202515,135834
1630674797621,23252,202496,135830
1630674797631,23255,202502,135819
1630674797641,23247,202533,135825
1630674797651,23248,202486,135790
1630674797661,23258,202484,135807
1630674797671,23247,202499,135791
1630674797681,23250,202473,135785
1630674797691,23261,202448,135777
1630674797701,23238,202455,135757
1630674797711,23251,202472,135778
1630674797721,23248,202494,135785
1630674797731,23251,202495,135760
1630674797741,23249,202457,135772
1630674797751,23253,202476,135762
1630674797761,23256,202445,135750
1630674797771,23246,202445,135762
1630674797781,23253,202462,135758
1630674797791,23256,202459,135757
1630674797801,23257,202465,135756
1630674797811,23258,202470,135773
1630674797821,23267,202480,135781
1630674797831,23278,202485,135760
1630674797841,23267,202510,135768
1630674797851,23270,202481,135772
1630674797861,23269,202487,135765
1630674797871,23275,202498,135781
1630674797881,23278,202486,135774
1630674797891,23274,202483,135777
1630674797901,23276,202493,135791
1630674797911,23289,202516,135789
1630674797921,23288,202506,135806
1630674797931,23286,202505,135806
1630674797941,23293,202493,135794
1630674797951,23297,202491,135810
1630674797961,23304,202526,135799
1630674797971,23301,202517,135804
1630674797981,23308,202535,135818
1630674797991,23310,202531,135806
1630674798001,23304,202516,135811
1630674798011,23319,202539,135810
1630674798021,23301,202540,135800
1630674798031,23311,202534,135790
1630674798041,23317,202554,135804
1630674798051,23312,202541,135791
1630674798061,23315,202529,135831
1630674798071,23316,202500,135825
1630674798081,23312,202523,135838
1630674798091,23323,202500,135828
1630674798101,23314,202524,135829
1630674798111,23312,202517,135831
1630674798121,23310,202511,135829
1630674798131,23309,202483,135833
1630674798141,23311,202511,135812
1630674798151,23301,202493,135835
1630674798161,23305,202477,135845
1630674798171,23306,202485,135838
1630674798181,23299,202489,135833
1630674798191,23293,202471,135816
1630674798201,23291,202454,135816
1630674798211,23292,202447,135836
1630674798221,23291,202480,135829
1630674798231,23289,202443,135827
1630674798241,23289,202468,135839
1630674798251,23285,202465,135832
1630674798261,23287,202449,135816
1630674798271,23288,202448,135822
1630674798281,23288,202456,135817
1630674798291,23288,202449,135813
1630674798301,23289,202438,135825
1630674798311,23292,202439,135813
1630674798321,23295,202426,135825
1630674798331,23288,202437,135837
1630674798341,23303,202463,135839
1630674798351,23290,202418,135836
1630674798361,23291,202413,135819
1630674798371,23289,202423,135822
1630674798381,23291,202429,135822
1630674798391,23291,202433,135810
1630674798401,23292,202416,135827
1630674798411,23299,202447,135831
1630674798421,23296,202425,135822
1630674798431,23301,202478,135821
1630674798441,23296,202452,135814
1630674798451,23296,202437,135814
1630674798461,23302,202436,135831
1630674798471,23304,202426,135817
1630674798481,23304,202463,135820
1630674798491,23302,202478,135815
1630674798501,23316,202434,135820
1630674798511,23312,202470,135815
1630674798521,23307,202456,135833
1630674798531,23316,202446,135821
1630674798541,23309,202484,135816
1630674798551,23309,202447,135818
1630674798561,23315,202451,135812
1630674798571,23320,202429,135813
1630674798581,23315,202445,135819
1630674798591,23318,202497,135790
1630674798601,23317,202448,135779
1630674798611,23324,202430,135791
1630674798621,23320,202449,135791
1630674798631,23329,202458,135786
1630674798641,23326,202450,135785
1630674798651,23331,202450,135786
1630674798661,23324,202460,135791
1630674798671,23322,202444,135776
1630674798681,23333,202458,135790
1630674798691,23333,202467,135785
1630674798701,23338,202459,135806
1630674798711,23340,202485,135791
1630674798721,23342,202486,135795
1630674798731,23340,202489,135781
1630674798741,23344,202478,135796
1630674798751,23349,202493,135801
1630674798761,23351,202485,135785
1630674798771,23348,202503,135792
1630674798781,23355,202490,135789
1630674798791,23355,202491,135802
1630674798801,23358,202486,135797
1630674798811,23361,202485,135798
1630674798821,23361,202527,135812
1630674798831,23361,202527,135810
1630674798841,23368,202548,135826
1630674798851,23365,202513,135833
1630674798861,23371,202502,135821
1630674798871,23369,202501,135829
1630674798881,23370,202493,135821
1630674798891,23365,202497,135825
1630674798901,23360,202485,135827
1630674798911,23364,202478,135825
1630674798921,23364,202457,135831
1630674798931,23356,202462,135831
1630674798941,23361,202494,135817
1630674798951,23362,202477,135848
1630674798961,23362,202473,135826
1630674798971,23368,202474,135837
1630674798981,23366,202458,135819
1630674798991,23362,202465,135839
1630674799001,23360,202482,135854
1630674799011,23357,202452,135831
1630674799021,23361,202460,135838
1630674799031,23363,202445,135840
1630674799041,23360,202463,135842
1630674799051,23359,202448,135825
1630674799061,23362,202451,135849
1630674799071,23368,202474,135839
1630674799081,23366,202435,135840
1630674799091,23364,202439,135862
1630674799101,23374,202462,135867
1630674799111,23378,202450,135863
1630674799121,23366,202454,135878
1630674799131,23367,202458,135877
1630674799141,23377,202441,135871
1630674799151,23380,202457,135863
1630674799161,23375,202489,135848
1630674799171,23376,202460,135868
1630674799181,23375,202462,135866
1630674799191,23378,202452,135871
1630674799201,23383,202483,135862
1630674799211,23382,202473,135872
1630674799221,23387,202468,135868
1630674799231,23388,202469,135880
1630674799241,23390,202505,135874
1630674799251,23391,202487,135886
1630674799261,23398,202491,135881
1630674799271,23400,202498,135882
1630674799281,23397,202501,135873
1630674799291,23409,202465,135883
1630674799301,23403,202511,135871
1630674799311,23412,202524,135877
1630674799321,23407,202500,135865
1630674799331,23407,202516,135899
1630674799341,23409,202497,135876
1630674799351,23417,202512,135853
1630674799361,23414,202516,135890
1630674799371,23415,202531,135882
1630674799381,23420,202530,135874
1630674799391,23427,202522,135886
1630674799401,23429,202533,135886
1630674799411,23428,202534,135880
1630674799421,23428,202540,135898
1630674799431,23435,202541,135885
1630674799441,23436,202586,135890
1630674799451,23429,202556,135884
1630674799461,23427,202563,135885
1630674799471,23446,202565,135901
1630674799481,23444,202588,135915
1630674799491,23448,202569,135908
1630674799501,23449,202575,135890
1630674799511,23450,202590,135898
1630674799521,23457,202583,135907
1630674799531,23462,202579,135896
1630674799541,23459,202587,135903
1630674799551,23465,202638,135906
1630674799561,23472,202580,135927
1630674799571,23479,202628,135944
1630674799581,23484,202666,135973
1630674799591,23494,202663,135979
1630674799601,23502,202759,136047
1630674799611,23534,202857,136119
1630674799621,23546,203028,136269
1630674799631,23577,203159,136369
1630674799641,23597,203349,136457
1630674799651,23613,203444,136563
1630674799661,23631,203562,136638
1630674799671,23641,203669,136691
1630674799681,23653,203699,136716
1630674799691,23658,203780,136768
1630674799701,23668,203817,136774
1630674799711,23674,203817,136773
1630674799721,23677,203806,136788
1630674799731,23680,203829,136763
1630674799741,23674,203801,136769
1630674799751,23683,203795,136759
1630674799761,23678,203796,136768
1630674799771,23671,203766,136733
1630674799781,23692,203790,136733
1630674799791,23682,203763,136729
1630674799801,23672,203759,136750
1630674799811,23680,203801,136731
1630674799821,23683,203760,136719
1630674799831,23683,203774,136724
1630674799841,23679,203749,136714
1630674799851,23685,203747,136715
1630674799861,23684,203757,136715
1630674799871,23690,203714,136712
1630674799881,23686,203735,136709
1630674799891,23692,203745,136711
1630674799901,23692,203739,136702
1630674799911,23693,203693,136691
1630674799921,23688,203699,136700
1630674799931,23699,203708,136701
1630674799941,23693,203699,136695
1630674799951,23699,203704,136694
1630674799961,23698,203679,136667
1630674799971,23696,203636,136695
1630674799981,23699,203690,136695
1630674799991,23702,203683,136674
1630674800001,23703,203669,136689
1630674800011,23701,203653,136684
1630674800021,23703,203641,136666
1630674800031,23713,203636,136668
1630674800041,23703,203661,136665
1630674800051,23704,203643,136670
1630674800061,23701,203618,136651
1630674800071,23707,203657,136646
1630674800081,23707,203656,136649
1630674800091,23711,203626,136653
1630674800101,23713,203639,136628
1630674800111,23715,203635,136636
1630674800121,23717,203637,136649
1630674800131,23709,203635,136630
1630674800141,23716,203647,136626
1630674800151,23711,203619,136631
1630674800161,23713,203612,136604
1630674800171,23710,203608,136629
1630674800181,23713,203610,136618
1630674800191,23716,203615,136615
1630674800201,23715,203606,136612
1630674800211,23716,203605,136590
1630674800221,23717,203585,136588
1630674800231,23718,203587,136590
1630674800241,23720,203584,136597
1630674800251,23722,203587,136595
1630674800261,23714,203623,136603
1630674800271,23727,203573,136586
1630674800281,23720,203581,136585
1630674800291,23740,203558,136585
1630674800301,23729,203572,136582
1630674800311,23732,203588,136611
1630674800321,23734,203566,136591
1630674800331,23733,203578,136598
1630674800341,23733,203586,136599
1630674800351,23740,203557,136597
1630674800361,23736,203555,136582
1630674800371,23737,203545,136584
1630674800381,23741,203588,136589
1630674800391,23740,203568,136584
1630674800401,23740,203575,136581
1630674800411,23749,203518,136617
1630674800421,23743,203524,136584
1630674800431,23747,203533,136598
1630674800441,23742,203523,136588
1630674800451,23744,203518,136573
1630674800461,23728,203507,136591
1630674800471,23728,203499,136587
1630674800481,23728,203488,136589
1630674800491,23725,203487,136575
1630674800501,23731,203469,136580
1630674800511,23727,203504,136582
1630674800521,23720,203461,136597
1630674800531,23727,203444,136605
1630674800541,23729,203433,136604
1630674800551,23725,203455,136606
1630674800561,23722,203407,136603
1630674800571,23722,203456,136596
1630674800581,23715,203428,136594
1630674800591,23708,203462,136567
1630674800601,23704,203438,136543
1630674800611,23694,203435,136554
1630674800621,23698,203436,136573
1630674800631,23699,203437,136561
1630674800641,23697,203437,136541
1630674800651,23689,203398,136534
1630674800661,23688,203421,136528
1630674800671,23686,203398,136518
1630674800681,23679,203398,136505
1630674800691,23679,203417,136490
1630674800701,23676,203413,136487
1630674800711,23671,203367,136461
1630674800721,23665,203384,136464
1630674800731,23670,203367,136453
1630674800741,23665,203368,136453
1630674800751,23660,203400,136446
1630674800761,23665,203368,136449
1630674800771,23659,203329,136435
1630674800781,23663,203363,136441
1630674800791,23656,203335,136424
1630674800801,23654,203350,136417
1630674800811,23651,203335,136416
1630674800821,23652,203320,136402
1630674800831,23645,203350,136407
1630674800841,23654,203319,136410
1630674800851,23655,203325,136405
1630674800861,23649,203305,136394
1630674800871,23653,203295,136390
1630674800881,23649,203307,136400
1630674800891,23656,203302,136380
1630674800901,23642,203312,136387
1630674800911,23651,203273,136376
1630674800921,23653,203308,136396
1630674800931,23649,203279,136396
1630674800941,23656,203309,136383
1630674800951,23645,203269,136384
1630674800961,23643,203263,136367
1630674800971,23646,203285,136370
1630674800981,23648,203258,136377
1630674800991,23649,203266,136364
1630674801001,23648,203296,136346
1630674801011,23646,203256,136345
1630674801021,23649,203242,136338
1630674801031,23645,203275,136331
1630674801041,23646,203253,136330
1630674801051,23650,203233,136332
1630674801061,23648,203271,136331
1630674801071,23638,203263,136330
1630674801081,23658,203225,136328
1630674801091,23648,203244,136311
1630674801101,23648,203224,136348
1630674801111,23650,203242,136332
1630674801121,23651,203235,136334
1630674801131,23650,203257,136328
1630674801141,23652,203252,136304
1630674801151,23650,203248,136324
1630674801161,23654,203258,136316
1630674801171,23648,203216,136331
1630674801181,23652,203228,136325
1630674801191,23651,203209,136325
1630674801201,23641,203226,136315
1630674801211,23637,203219,136320
1630674801221,23636,203222,136311
1630674801231,23631,203188,136288
1630674801241,23632,203191,136306
1630674801251,23632,203164,136289
1630674801261,23621,203162,136291
1630674801271,23618,203167,136302
1630674801281,23613,203156,136296
1630674801291,23604,203157,136274
1630674801301,23601,203120,136274
1630674801311,23598,203113,136264
1630674801321,23595,203084,136271
1630674801331,23587,203104,136268
1630674801341,23594,203069,136262
1630674801351,23587,203070,136257
1630674801361,23583,203058,136270
1630674801371,23589,203073,136288
1630674801381,23578,203044,136270
1630674801391,23579,203062,136273
1630674801401,23585,203078,136258
1630674801411,23581,203052,136279
1630674801421,23574,203043,136260
1630674801431,23571,203025,136266
1630674801441,23565,203038,136262
1630674801451,23567,203071,136257
1630674801461,23569,203048,136249
1630674801471,23564,203005,136262
1630674801481,23558,203020,136241
1630674801491,23555,203032,136248
1630674801501,23556,203027,136240
1630674801511,23556,203000,136235
1630674801521,23553,202990,136220
1630674801531,23552,202986,136237
1630674801541,23550,202999,136225
1630674801551,23547,202993,136214
1630674801561,23542,202997,136217
1630674801571,23532,202991,136243
1630674801581,23541,203004,136209
1630674801591,23540,202968,136215
1630674801601,23536,202984,136210
1630674801611,23539,202931,136222
1630674801621,23536,202970,136192
1630674801631,23537,202980,136195
1630674801641,23529,202968,136186
1630674801651,23531,202977,136186
1630674801661,23531,202967,136175
1630674801671,23530,202961,136181
1630674801681,23527,202956,136177
1630674801691,23533,202932,136194
1630674801701,23527,202922,136173
1630674801711,23529,202944,136170
1630674801721,23525,202939,136171
1630674801731,23528,202958,136161
1630674801741,23524,202982,136178
1630674801751,23519,202966,136177
1630674801761,23528,202963,136167
1630674801771,23525,202947,136166
1630674801781,23529,202948,136164
1630674801791,23525,202943,136171
1630674801801,23525,202944,136172
1630674801811,23524,202915,136164
1630674801821,23529,202968,136162
1630674801831,23526,202932,136164
1630674801841,23528,202925,136169
1630674801851,23532,202953,136165
1630674801861,23532,202956,136168
1630674801871,23522,202956,136156
1630674801881,23531,202933,136165
1630674801891,23534,202939,136173
1630674801901,23542,202956,136160
1630674801911,23540,202943,136181
1630674801921,23533,202958,136165
1630674801931,23530,202964,136173
1630674801941,23533,202931,136169
1630674801951,23532,202954,136169
1630674801961,23530,202929,136178
1630674801971,23533,202927,136178
1630674801981,23530,202936,136201
1630674801991,23531,202940,136185
1630674802001,23529,202956,136195
1630674802011,23526,202916,136187
1630674802021,23513,202916,136188
1630674802031,23500,202873,136168
1630674802041,23502,202874,136172
1630674802051,23494,202901,136158
1630674802061,23499,202875,136185
1630674802071,23491,202865,136183
1630674802081,23489,202872,136180
1630674802091,23485,202848,136197
1630674802101,23480,202865,136173
1630674802111,23483,202821,136176
1630674802121,23476,202827,136192
1630674802131,23473,202832,136189
1630674802141,23465,202820,136192
1630674802151,23468,202830,136195
1630674802161,23463,202834,136174
1630674802171,23461,202782,136179
1630674802181,23457,202805,136175
1630674802191,23452,202804,136141
1630674802201,23448,202802,136189
1630674802211,23441,202763,136157
1630674802221,23449,202823,136148
1630674802231,23433,202763,136148
1630674802241,23437,202739,136141
1630674802251,23432,202730,136122
1630674802261,23426,202738,136121
1630674802271,23425,202747,136104
1630674802281,23417,202723,136096
1630674802291,23416,202712,136107
1630674802301,23422,202733,136105
1630674802311,23417,202743,136109
1630674802321,23414,202717,136097
1630674802331,23412,202724,136101
1630674802341,23411,202694,136088
1630674802351,23400,202700,136080
1630674802361,23398,202673,136089
1630674802371,23403,202670,136073
1630674802381,23402,202701,136056
1630674802391,23390,202683,136076
1630674802401,23399,202729,136063
1630674802411,23399,202720,136067
1630674802421,23397,202689,136053
1630674802431,23392,202692,136066
1630674802441,23398,202697,136062
1630674802451,23394,202670,136064
1630674802461,23396,202707,136069
1630674802471,23398,202666,136051
1630674802481,23399,202699,136079
1630674802491,23395,202693,136049
1630674802501,23400,202698,136071
1630674802511,23397,202694,136045
1630674802521,23408,202681,136071
1630674802531,23400,202732,136071
1630674802541,23392,202709,136069
1630674802551,23404,202694,136075
1630674802561,23394,202680,136087
1630674802571,23405,202736,136088
1630674802581,23408,202725,136096
1630674802591,23406,202703,136085
1630674802601,23411,202742,136103
1630674802611,23412,202692,136090
1630674802621,23414,202709,136104
1630674802631,23418,202727,136110
1630674802641,23414,202753,136106
1630674802651,23414,202735,136100
1630674802661,23419,202765,136097
1630674802671,23423,202713,136108
1630674802681,23426,202725,136108
1630674802691,23409,202715,136089
1630674802701,23428,202737,136109
1630674802711,23429,202717,136114
1630674802721,23424,202793,136117
1630674802731,23428,202756,136141
1630674802741,23429,202732,136111
1630674802751,23427,202747,136119
1630674802761,23426,202737,136109
1630674802771,23431,202744,136132
1630674802781,23426,202738,136152
1630674802791,23425,202746,136146
1630674802801,23419,202709,136144
1630674802811,23413,202709,136159
1630674802821,23412,202698,136144
1630674802831,23401,202697,136138
1630674802841,23405,202710,136132
1630674802851,23399,202695,136128
1630674802861,23395,202672,136144
1630674802871,23382,202657,136140
1630674802881,23389,202659,136126
1630674802891,23377,202642,136130
1630674802901,23378,202659,136141
1630674802911,23373,202663,136121
1630674802921,23371,202642,136125
1630674802931,23367,202635,136145
1630674802941,23367,202596,136132
1630674802951,23360,202638,136141
1630674802961,23358,202593,136123
1630674802971,23357,202607,136093
1630674802981,23355,202605,136113
1630674802991,23350,202593,136125
1630674803001,23358,202603,136120
1630674803011,23347,202594,136107
1630674803021,23349,202599,136137
1630674803031,23343,202591,136125
1630674803041,23340,202559,136120
1630674803051,23341,202595,136113
1630674803061,23338,202576,136104
1630674803071,23340,202564,136115
1630674803081,23337,202580,136119
1630674803091,23335,202569,136122
1630674803101,23339,202543,136113
1630674803111,23334,202596,136122
1630674803121,23334,202586,136114
1630674803131,23334,202578,136104
1630674803141,23337,202529,136110
1630674803151,23334,202613,136125
1630674803161,23330,202600,136116
1630674803171,23339,202580,136112
1630674803181,23345,202541,136131
1630674803191,23344,202556,136109
1630674803201,23336,202572,136109
1630674803211,23336,202556,136098
1630674803221,23337,202556,136102
1630674803231,23336,202547,136110
1630674803241,23340,202550,136092
1630674803251,23337,202533,136108
1630674803261,23338,202581,136106
1630674803271,23338,202553,136099
1630674803281,23338,202553,136094
1630674803291,23346,202571,136080
1630674803301,23343,202578,136095
1630674803311,23342,202552,136097
1630674803321,23341,202557,136097
1630674803331,23335,202572,136096
1630674803341,23332,202568,136091
1630674803351,23346,202605,136083
1630674803361,23344,202572,136090
1630674803371,23341,202575,136093
1630674803381,23348,202571,136090
1630674803391,23349,202569,136107
1630674803401,23350,202592,136069
1630674803411,23352,202570,136079
1630674803421,23352,202598,136092
1630674803431,23353,202588,136083
1630674803441,23361,202594,136096
1630674803451,23360,202611,136114
1630674803461,23371,202598,136106
1630674803471,23361,202608,136085
1630674803481,23371,202627,136111
1630674803491,23378,202578,136098
1630674803501,23372,202617,136090
1630674803511,23376,202650,136065
1630674803521,23373,202642,136100
1630674803531,23382,202624,136111
1630674803541,23375,202623,136086
1630674803551,23375,202607,136104
1630674803561,23377,202613,136109
1630674803571,23376,202611,136115
1630674803581,23364,202606,136108
1630674803591,23367,202595,136112
1630674803601,23364,202609,136113
1630674803611,23359,202577,136099
1630674803621,23358,202594,136082
1630674803631,23352,202574,136078
1630674803641,23352,202539,136078
1630674803651,23356,202584,136075
1630674803661,23344,202546,136076
1630674803671,23337,202557,136070
1630674803681,23334,202534,136077
1630674803691,23342,202535,136030
1630674803701,23333,202565,136054
1630674803711,23319,202508,136051
1630674803721,23325,202507,136053
1630674803731,23322,202523,136059
1630674803741,23322,202516,136066
1630674803751,23323,202498,136052
1630674803761,23314,202515,136065
1630674803771,23322,202499,136071
1630674803781,23319,202471,136067
1630674803791,23319,202509,136061
1630674803801,23322,202517,136075
1630674803811,23320,202491,136076
1630674803821,23316,202533,136087
1630674803831,23314,202503,136086
1630674803841,23322,202504,136071
1630674803851,23317,202546,136090
1630674803861,23320,202486,136087
1630674803871,23317,202499,136100
1630674803881,23328,202471,136098
1630674803891,23327,202528,136112
1630674803901,23329,202522,136101
1630674803911,23324,202526,136100
1630674803921,23323,202541,136110
1630674803931,23328,202517,136110
1630674803941,23327,202513,136093
1630674803951,23324,202481,136097
1630674803961,23330,202535,136106
1630674803971,23322,202493,136094
1630674803981,23327,202479,136105
1630674803991,23334,202545,136107
1630674804001,23332,202544,136104
1630674804011,23348,202521,136114
1630674804021,23345,202551,136104
1630674804031,23339,202532,136113
1630674804041,23341,202530,136105
1630674804051,23342,202560,136117
1630674804061,23350,202554,136106
1630674804071,23347,202539,136113
1630674804081,23350,202561,136115
1630674804091,23356,202546,136113
1630674804101,23346,202523,136107
1630674804111,23355,202554,136125
1630674804121,23358,202534,136107
1630674804131,23354,202568,136131
1630674804141,23363,202584,136113
1630674804151,23371,202595,136110
1630674804161,23358,202584,136094
1630674804171,23365,202561,136116
1630674804181,23365,202578,136122
1630674804191,23371,202570,136123
1630674804201,23375,202600,136118
1630674804211,23375,202603,136131
1630674804221,23376,202572,136123
1630674804231,23383,202598,136132
1630674804241,23386,202602,136140
1630674804251,23383,202626,136128
1630674804261,23389,202598,136137
1630674804271,23393,202601,136145
1630674804281,23391,202616,136143
1630674804291,23393,202611,136148
1630674804301,23387,202634,136147
1630674804311,23397,202625,136153
1630674804321,23398,202648,136136
1630674804331,23400,202660,136126
1630674804341,23412,202610,136144
1630674804351,23407,202613,136156
1630674804361,23411,202660,136142
1630674804371,23411,202665,136166
1630674804381,23414,202656,136165
1630674804391,23414,202629,136182
1630674804401,23409,202643,136182
1630674804411,23411,202651,136178
1630674804421,23405,202644,136192
1630674804431,23408,202634,136175
1630674804441,23407,202636,136180
1630674804451,23405,202662,136189
1630674804461,23405,202643,136189
1630674804471,23402,202632,136192
1630674804481,23393,202639,136183
1630674804491,23399,202647,136178
1630674804501,23398,202616,136167
1630674804511,23386,202592,136187
1630674804521,23401,202608,136204
1630674804531,23396,202585,136196
1630674804541,23393,202608,136189
1630674804551,23392,202604,136185
1630674804561,23391,202615,136180
1630674804571,23390,202607,136183
1630674804581,23396,202608,136197
1630674804591,23387,202593,136185
1630674804601,23388,202587,136188
1630674804611,23389,202575,136193
1630674804621,23396,202591,136182
1630674804631,23400,202605,136191
1630674804641,23389,202617,136182
1630674804651,23389,202624,136187
1630674804661,23392,202611,136212
1630674804671,23393,202618,136188
1630674804681,23391,202567,136204
1630674804691,23390,202604,136191
1630674804701,23392,202606,136182
1630674804711,23391,202581,136194
1630674804721,23393,202575,136184
1630674804731,23395,202586,136186
1630674804741,23397,202588,136192
1630674804751,23395,202568,136193
1630674804761,23397,202597,136184
1630674804771,23399,202599,136189
1630674804781,23403,202608,136171
1630674804791,23414,202605,136184
1630674804801,23406,202620,136194
1630674804811,23416,202608,136201
1630674804821,23417,202626,136221
1630674804831,23413,202643,136199
1630674804841,23418,202635,136199
1630674804851,23412,202618,136196
1630674804861,23417,202638,136207
1630674804871,23418,202682,136184
1630674804881,23416,202630,136213
1630674804891,23434,202658,136197
1630674804901,23425,202670,136191
1630674804911,23423,202646,136214
1630674804921,23433,202650,136222
1630674804931,23435,202631,136219
1630674804941,23431,202656,136211
1630674804951,23450,202668,136215
1630674804961,23445,202676,136212
1630674804971,23447,202671,136224
1630674804981,23445,202691,136229
1630674804991,23450,202708,136234
1630674805001,23450,202718,136239
1630674805011,23453,202676,136255
1630674805021,23456,202695,136249
1630674805031,23459,202707,136247
1630674805041,23459,202694,136237
1630674805051,23464,202705,136251
1630674805061,23471,202703,136249
1630674805071,23469,202733,136255
1630674805081,23473,202730,136262
1630674805091,23478,202749,136258
1630674805101,23481,202716,136257
1630674805111,23487,202763,136285
1630674805121,23490,202744,136275
1630674805131,23501,202765,136253
1630674805141,23505,202744,136281
1630674805151,23519,202819,136356
1630674805161,23534,202954,136449
1630674805171,23557,203200,136574
1630674805181,23584,203326,136686
1630674805191,23606,203535,136782
1630674805201,23625,203615,136860
1630674805211,23640,203735,136917
1630674805221,23653,203806,136949
1630674805231,23661,203826,136991
1630674805241,23674,203830,136986
1630674805251,23672,203850,136969
1630674805261,23672,203870,136992
1630674805271,23681,203834,136991
1630674805281,23674,203854,136972
1630674805291,23671,203850,136981
1630674805301,23685,203833,136985
1630674805311,23695,203883,136959
1630674805321,23678,203873,136989
1630674805331,23671,203870,136980
1630674805341,23679,203855,137007
1630674805351,23674,203882,136986
1630674805361,23679,203877,136982
1630674805371,23683,203864,137004
1630674805381,23684,203866,136988
1630674805391,23680,203868,136976
1630674805401,23684,203868,136989
1630674805411,23682,203860,136991
1630674805421,23685,203877,136987
1630674805431,23685,203835,136986
1630674805441,23692,203844,136985
1630674805451,23683,203845,136995
1630674805461,23689,203823,136965
1630674805471,23692,203812,136992
1630674805481,23680,203804,136981
1630674805491,23682,203805,136975
1630674805501,23683,203824,136985
1630674805511,23687,203782,136995
1630674805521,23686,203776,136964
1630674805531,23686,203802,136968
1630674805541,23685,203795,136953
1630674805551,23679,203789,136953
1630674805561,23686,203774,136949
1630674805571,23688,203768,136947
1630674805581,23684,203735,136929
1630674805591,23690,203749,136942
1630674805601,23691,203737,136929
1630674805611,23687,203710,136910
1630674805621,23694,203705,136909
1630674805631,23692,203701,136918
1630674805641,23687,203706,136919
1630674805651,23683,203700,136930
1630674805661,23688,203681,136919
1630674805671,23691,203720,136905
1630674805681,23692,203711,136921
1630674805691,23690,203688,136899
1630674805701,23695,203685,136901
1630674805711,23696,203707,136878
1630674805721,23696,203702,136890
1630674805731,23693,203687,136890
1630674805741,23693,203714,136888
1630674805751,23700,203673,136872
1630674805761,23696,203680,136864
1630674805771,23706,203678,136875
1630674805781,23705,203679,136863
1630674805791,23706,203682,136848
1630674805801,23704,203661,136845
1630674805811,23706,203661,136856
1630674805821,23699,203662,136848
1630674805831,23707,203667,136851
1630674805841,23704,203645,136856
1630674805851,23703,203667,136837
1630674805861,23711,203670,136850
1630674805871,23710,203648,136846
1630674805881,23709,203650,136834
1630674805891,23709,203628,136848
1630674805901,23714,203647,136830
1630674805911,23710,203640,136816
1630674805921,23709,203616,136805
1630674805931,23711,203630,136808
1630674805941,23719,203650,136807
1630674805951,23720,203605,136810
1630674805961,23732,203623,136790
1630674805971,23714,203665,136807
1630674805981,23716,203651,136776
1630674805991,23719,203636,136778
1630674806001,23720,203648,136788
1630674806011,23725,203645,136797
1630674806021,23719,203597,136779
1630674806031,23722,203587,136780
1630674806041,23717,203601,136773
1630674806051,23723,203575,136791
1630674806061,23718,203568,136782
1630674806071,23712,203585,136788
1630674806081,23718,203549,136767
1630674806091,23715,203540,136767
1630674806101,23718,203532,136747
1630674806111,23703,203520,136764
1630674806121,23716,203505,136773
1630674806131,23709,203502,136769
1630674806141,23706,203494,136762
1630674806151,23701,203504,136739
1630674806161,23695,203519,136747
1630674806171,23695,203508,136740
1630674806181,23693,203471,136731
1630674806191,23691,203487,136730
1630674806201,23695,203482,136723
1630674806211,23691,203473,136726
1630674806221,23690,203459,136718
1630674806231,23690,203486,136724
1630674806241,23698,203473,136718
1630674806251,23687,203466,136725
1630674806261,23687,203436,136698
1630674806271,23695,203426,136698
1630674806281,23689,203431,136724
1630674806291,23683,203439,136698
1630674806301,23683,203445,136713
1630674806311,23683,203434,136689
1630674806321,23679,203433,136704
1630674806331,23680,203428,136708
1630674806341,23682,203430,136699
1630674806351,23680,203416,136690
1630674806361,23683,203416,136707
1630674806371,23678,203421,136661
1630674806381,23674,203390,136690
1630674806391,23673,203416,136671
1630674806401,23680,203396,136691
1630674806411,23677,203399,136673
1630674806421,23688,203397,136678
1630674806431,23680,203382,136677
1630674806441,23677,203377,136664
1630674806451,23677,203366,136656
1630674806461,23675,203394,136664
1630674806471,23679,203355,136657
1630674806481,23677,203379,136668
1630674806491,23679,203382,136653
1630674806501,23674,203409,136632
1630674806511,23677,203379,136657
1630674806521,23673,203407,136649
1630674806531,23680,203415,136641
1630674806541,23680,203399,136653
1630674806551,23681,203384,136632
1630674806561,23681,203359,136643
1630674806571,23674,203387,136632
1630674806581,23676,203368,136623
1630674806591,23676,203377,136627
1630674806601,23688,203373,136622
1630674806611,23677,203367,136611
1630674806621,23679,203383,136615
1630674806631,23682,203380,136620
1630674806641,23684,203349,136612
1630674806651,23681,203343,136631
1630674806661,23683,203365,136619
1630674806671,23687,203360,136614
1630674806681,23684,203385,136615
1630674806691,23687,203395,136618
1630674806701,23692,203361,136606
1630674806711,23689,203344,136601
1630674806721,23688,203376,136617
1630674806731,23692,203385,136619
1630674806741,23681,203381,136606
1630674806751,23688,203383,136616
1630674806761,23686,203384,136617
1630674806771,23704,203372,136628
1630674806781,23691,203414,136600
1630674806791,23692,203399,136612
1630674806801,23695,203368,136607
1630674806811,23696,203356,136626
1630674806821,23690,203360,136619
1630674806831,23689,203366,136615
1630674806841,23689,203331,136629
1630674806851,23688,203340,136610
1630674806861,23685,203344,136609
1630674806871,23677,203347,136585
1630674806881,23677,203309,136607
1630674806891,23675,203322,136610
1630674806901,23674,203310,136601
1630674806911,23661,203307,136617
1630674806921,23662,203300,136606
1630674806931,23674,203311,136597
1630674806941,23662,203299,136602
1630674806951,23655,203287,136606
1630674806961,23652,203272,136592
1630674806971,23652,203228,136589
1630674806981,23651,203228,136602
1630674806991,23644,203247,136593
1630674807001,23648,203242,136583
1630674807011,23643,203239,136586
1630674807021,23642,203241,136587
1630674807031,23638,203243,136593
1630674807041,23637,203225,136578
1630674807051,23636,203238,136586
1630674807061,23638,203235,136601
1630674807071,23628,203230,136610
1630674807081,23642,203216,136595
1630674807091,23633,203229,136593
1630674807101,23633,203220,136587
1630674807111,23632,203234,136587
1630674807121,23631,203193,136571
1630674807131,23629,203228,136580
1630674807141,23630,203217,136583
1630674807151,23626,203201,136583
1630674807161,23628,203206,136576
1630674807171,23619,203203,136560
1630674807181,23623,203203,136566
1630674807191,23620,203197,136568
1630674807201,23620,203173,136573
1630674807211,23620,203160,136570
1630674807221,23614,203188,136574
1630674807231,23619,203192,136557
1630674807241,23621,203188,136555
1630674807251,23617,203192,136556
1630674807261,23620,203175,136552
1630674807271,23617,203156,136554
1630674807281,23622,203158,136546
1630674807291,23620,203184,136575
1630674807301,23617,203192,136559
1630674807311,23618,203152,136562
1630674807321,23613,203179,136550
1630674807331,23618,203194,136548
1630674807341,23617,203190,136539
1630674807351,23616,203164,136549
1630674807361,23616,203185,136535
1630674807371,23620,203141,136545
1630674807381,23619,203160,136543
1630674807391,23614,203185,136534
1630674807401,23626,203163,136550
1630674807411,23611,203169,136526
1630674807421,23621,203173,136525
1630674807431,23618,203156,136549
1630674807441,23615,203176,136539
1630674807451,23620,203207,136524
1630674807461,23620,203195,136546
1630674807471,23623,203193,136540
1630674807481,23624,203170,136549
1630674807491,23626,203193,136548
1630674807501,23629,203179,136548
1630674807511,23625,203179,136538
1630674807521,23628,203216,136547
1630674807531,23632,203186,136526
1630674807541,23628,203202,136540
1630674807551,23637,203166,136530
1630674807561,23638,203202,136529
1630674807571,23637,203192,136535
1630674807581,23630,203161,136533
1630674807591,23620,203166,136547
1630674807601,23631,203143,136541
1630674807611,23628,203163,136545
1630674807621,23624,203141,136553
1630674807631,23624,203139,136556
1630674807641,23619,203139,136548
1630674807651,23616,203156,136535
1630674807661,23612,203143,136520
1630674807671,23607,203130,136533
1630674807681,23604,203126,136541
1630674807691,23598,203125,136536
1630674807701,23595,203129,136508
1630674807711,23597,203089,136520
1630674807721,23588,203106,136502
1630674807731,23587,203095,136517
1630674807741,23573,203079,136529
1630674807751,23574,203089,136519
1630674807761,23573,203072,136496
1630674807771,23572,203027,136508
1630674807781,23565,203070,136498
1630674807791,23559,203018,136495
1630674807801,23562,203037,136512
1630674807811,23560,203025,136486
1630674807821,23555,203012,136505
1630674807831,23550,203031,136503
1630674807841,23552,203001,136495
1630674807851,23547,202963,136478
1630674807861,23543,203014,136485
1630674807871,23534,203000,136472
1630674807881,23533,202980,136493
1630674807891,23532,202987,136471
1630674807901,23529,203008,136483
1630674807911,23530,202977,136489
1630674807921,23530,203008,136467
1630674807931,23524,202989,136479
1630674807941,23524,202983,136456
1630674807951,23521,202966,136453
1630674807961,23519,202982,136467
1630674807971,23521,202955,136446
1630674807981,23513,202992,136436
1630674807991,23513,202912,136441
1630674808001,23517,202965,136433
1630674808011,23508,202944,136443
1630674808021,23510,202975,136426
1630674808031,23515,202951,136417
1630674808041,23506,202951,136408
1630674808051,23502,202948,136412
1630674808061,23507,202934,136413
1630674808071,23500,202945,136413
1630674808081,23508,202948,136410
1630674808091,23502,202963,136411
1630674808101,23507,202915,136405
1630674808111,23510,202919,136406
1630674808121,23504,202942,136401
1630674808131,23510,202947,136405
1630674808141,23505,202940,136399
1630674808151,23497,202932,136401
1630674808161,23505,202928,136406
1630674808171,23506,202945,136402
1630674808181,23510,202953,136408
1630674808191,23512,202938,136396
1630674808201,23507,202959,136407
1630674808211,23514,202948,136427
1630674808221,23512,202920,136400
1630674808231,23511,202976,136405
1630674808241,23510,202975,136394
1630674808251,23511,202954,136398
1630674808261,23515,202955,136408
1630674808271,23512,202962,136390
1630674808281,23511,202913,136397
1630674808291,23513,202963,136405
1630674808301,23517,202957,136388
1630674808311,23515,203011,136417
1630674808321,23515,202966,136400
1630674808331,23520,202959,136419
1630674808341,23522,203005,136380
1630674808351,23519,202985,136391
1630674808361,23527,202996,136399
1630674808371,23521,202960,136398
1630674808381,23529,202973,136381
1630674808391,23528,202984,136387
1630674808401,23523,202985,136364
1630674808411,23520,202993,136403
1630674808421,23523,202995,136394
1630674808431,23520,202976,136411
1630674808441,23516,202959,136413
1630674808451,23509,202941,136402
1630674808461,23507,202912,136414
1630674808471,23500,202931,136401
1630674808481,23500,202925,136401
1630674808491,23494,202915,136403
1630674808501,23491,202920,136393
1630674808511,23491,202926,136380
1630674808521,23486,202884,136405
1630674808531,23477,202875,136390
1630674808541,23475,202876,136393
1630674808551,23475,202886,136400
1630674808561,23476,202865,136386
1630674808571,23461,202858,136377
1630674808581,23459,202857,136383
1630674808591,23455,202840,136387
1630674808601,23455,202823,136380
1630674808611,23449,202843,136366
1630674808621,23445,202839,136364
1630674808631,23446,202851,136355
1630674808641,23444,202814,136365
1630674808651,23450,202827,136378
1630674808661,23440,202843,136383
1630674808671,23441,202819,136366
1630674808681,23442,202827,136374
1630674808691,23430,202846,136369
1630674808701,23440,202817,136364
1630674808711,23436,202858,136350
1630674808721,23427,202833,136374
1630674808731,23433,202816,136360
1630674808741,23427,202806,136360
1630674808751,23429,202836,136350
1630674808761,23430,202800,136354
1630674808771,23428,202794,136338
1630674808781,23428,202817,136345
1630674808791,23425,202781,136339
1630674808801,23425,202800,136365
1630674808811,23428,202797,136349
1630674808821,23424,202804,136346
1630674808831,23426,202782,136346
1630674808841,23421,202778,136327
1630674808851,23418,202802,136325
1630674808861,23429,202803,136366
1630674808871,23427,202801,136353
1630674808881,23426,202820,136341
1630674808891,23426,202794,136338
1630674808901,23431,202811,136326
1630674808911,23422,202788,136332
1630674808921,23427,202791,136337
1630674808931,23424,202811,136310
1630674808941,23425,202818,136334
1630674808951,23426,202798,136342
1630674808961,23425,202814,136307
1630674808971,23429,202814,136319
1630674808981,23430,202788,136304
1630674808991,23431,202840,136321
1630674809001,23424,202806,136331
1630674809011,23438,202810,136313
1630674809021,23428,202831,136323
1630674809031,23436,202820,136311
1630674809041,23435,202823,136295
1630674809051,23434,202816,136301
1630674809061,23438,202819,136309
1630674809071,23439,202819,136335
1630674809081,23443,202825,136331
1630674809091,23444,202831,136330
1630674809101,23444,202827,136310
1630674809111,23446,202839,136332
1630674809121,23446,202852,136338
1630674809131,23451,202845,136337
1630674809141,23456,202885,136335
1630674809151,23457,202837,136336
1630674809161,23455,202856,136326
1630674809171,23459,202875,136337
1630674809181,23463,202868,136339
1630674809191,23452,202882,136364
1630674809201,23469,202876,136337
1630674809211,23455,202869,136356
1630674809221,23457,202825,136375
1630674809231,23458,202858,136369
1630674809241,23451,202860,136354
1630674809251,23448,202857,136355
1630674809261,23449,202834,136368
1630674809271,23446,202846,136363
1630674809281,23442,202806,136364
1630674809291,23439,202818,136357
1630674809301,23437,202837,136354
1630674809311,23439,202803,136351
1630674809321,23439,202814,136349
1630674809331,23415,202805,136365
1630674809341,23433,202815,136336
1630674809351,23414,202821,136334
1630674809361,23415,202766,136352
1630674809371,23419,202756,136351
1630674809381,23414,202774,136354
1630674809391,23416,202786,136357
1630674809401,23410,202796,136358
1630674809411,23408,202797,136356
1630674809421,23407,202763,136353
1630674809431,23411,202763,136350
1630674809441,23409,202763,136357
1630674809451,23410,202772,136361
1630674809461,23414,202755,136341
1630674809471,23409,202750,136351
1630674809481,23409,202773,136357
1630674809491,23407,202784,136358
1630674809501,23421,202748,136360
1630674809511,23400,202760,136344
1630674809521,23414,202745,136335
1630674809531,23399,202768,136353
1630674809541,23405,202756,136353
1630674809551,23408,202748,136346
1630674809561,23408,202756,136356
1630674809571,23411,202763,136347
1630674809581,23406,202760,136370
1630674809591,23413,202761,136354
1630674809601,23413,202762,136355
1630674809611,23416,202793,136376
1630674809621,23421,202771,136360
1630674809631,23416,202776,136354
1630674809641,23415,202785,136376
1630674809651,23417,202777,136388
1630674809661,23412,202809,136377
1630674809671,23436,202817,136353
1630674809681,23423,202794,136369
1630674809691,23430,202766,136384
1630674809701,23425,202807,136373
1630674809711,23422,202811,136370
1630674809721,23434,202800,136374
1630674809731,23433,202812,136375
1630674809741,23430,202784,136385
1630674809751,23432,202807,136371
1630674809761,23438,202810,136375
1630674809771,23443,202825,136364
1630674809781,23447,202814,136361
1630674809791,23452,202804,136398
1630674809801,23454,202838,136393
1630674809811,23452,202844,136397
1630674809821,23461,202828,136384
1630674809831,23462,202817,136394
1630674809841,23474,202876,136386
1630674809851,23467,202864,136399
1630674809861,23469,202858,136402
1630674809871,23471,202856,136405
1630674809881,23471,202861,136405
1630674809891,23474,202859,136389
1630674809901,23470,202893,136396
1630674809911,23480,202898,136388
1630674809921,23480,202901,136400
1630674809931,23481,202908,136384
1630674809941,23486,202858,136416
1630674809951,23486,202876,136395
1630674809961,23489,202876,136407
1630674809971,23493,202895,136410
1630674809981,23500,202894,136399
1630674809991,23494,202912,136397
1630674810001,23502,202897,136435
1630674810011,23501,202906,136445
1630674810021,23496,202932,136430
1630674810031,23499,202914,136447
1630674810041,23496,202927,136450
1630674810051,23502,202923,136480
1630674810061,23494,202949,136464
1630674810071,23493,202956,136448
1630674810081,23492,202946,136460
1630674810091,23495,202947,136447
1630674810101,23492,202930,136444
1630674810111,23491,202922,136459
1630674810121,23487,202933,136466
1630674810131,23489,202936,136460
1630674810141,23483,202937,136450
1630674810151,23485,202923,136463
1630674810161,23491,202898,136477
1630674810171,23484,202928,136476
1630674810181,23483,202933,136439
1630674810191,23477,202896,136454
1630674810201,23484,202908,136459
1630674810211,23484,202904,136446
1630674810221,23482,202906,136452
1630674810231,23485,202905,136463
1630674810241,23482,202912,136465
1630674810251,23485,202900,136456
1630674810261,23486,202920,136455
1630674810271,23485,202905,136464
1630674810281,23483,202901,136463
1630674810291,23485,202852,136443
1630674810301,23487,202878,136440
1630674810311,23498,202880,136456
1630674810321,23493,202876,136455
1630674810331,23483,202898,136447
1630674810341,23483,202880,136450
1630674810351,23478,202891,136454
1630674810361,23479,202883,136457
1630674810371,23484,202892,136446
1630674810381,23481,202883,136440
1630674810391,23486,202888,136452
1630674810401,23489,202888,136443
1630674810411,23491,202860,136447
1630674810421,23489,202857,136443
1630674810431,23490,202905,136447
1630674810441,23488,202892,136457
1630674810451,23492,202895,136436
1630674810461,23489,202895,136438
1630674810471,23498,202892,136441
1630674810481,23494,202915,136448
1630674810491,23490,202877,136409
1630674810501,23490,202871,136420
1630674810511,23498,202866,136427
1630674810521,23496,202873,136429
1630674810531,23502,202883,136420
1630674810541,23502,202892,136435
1630674810551,23500,202924,136428
1630674810561,23504,202882,136436
1630674810571,23509,202918,136434
1630674810581,23509,202890,136439
1630674810591,23514,202917,136450
1630674810601,23518,202947,136441
1630674810611,23517,202909,136437
1630674810621,23513,202882,136425
1630674810631,23515,202904,136419
1630674810641,23521,202916,136403
1630674810651,23518,202905,136405
1630674810661,23517,202911,136408
1630674810671,23520,202907,136409
1630674810681,23520,202913,136410
1630674810691,23526,202893,136404
1630674810701,23529,202922,136394
1630674810711,23527,202917,136415
1630674810721,23528,202917,136399
1630674810731,23531,202924,136408
1630674810741,23536,202955,136389
1630674810751,23531,202960,136395
1630674810761,23533,202920,136389
1630674810771,23540,202960,136385
1630674810781,23538,202952,136400
1630674810791,23543,202952,136387
1630674810801,23552,202943,136405
1630674810811,23535,202971,136406
1630674810821,23554,202949,136420
1630674810831,23542,202956,136424
1630674810841,23547,202968,136424
1630674810851,23545,202980,136429
1630674810861,23546,202937,136423
1630674810871,23546,202933,136413
1630674810881,23543,202933,136428
1630674810891,23545,202924,136430
1630674810901,23541,202915,136416
1630674810911,23540,202942,136412
1630674810921,23545,202935,136427
1630674810931,23545,202940,136415
1630674810941,23544,202905,136417
1630674810951,23548,202942,136403
1630674810961,23542,202905,136406
1630674810971,23534,202925,136396
1630674810981,23533,202915,136417
1630674810991,23534,202925,136415
1630674811001,23536,202932,136414
1630674811011,23527,202960,136428
1630674811021,23535,202942,136399
1630674811031,23539,202925,136403
1630674811041,23538,202915,136420
1630674811051,23537,202906,136415
1630674811061,23528,202915,136403
1630674811071,23538,202895,136402
1630674811081,23541,202916,136409
1630674811091,23548,202933,136416
1630674811101,23539,202890,136411
1630674811111,23535,202935,136419
1630674811121,23534,202927,136407
1630674811131,23536,202937,136414
1630674811141,23528,202912,136398
1630674811151,23534,202900,136394
1630674811161,23537,202930,136406
1630674811171,23539,202880,136390
1630674811181,23543,202915,136396
1630674811191,23544,202915,136399
1630674811201,23543,202909,136403
1630674811211,23543,202924,136417
1630674811221,23543,202951,136382
1630674811231,23547,202919,136400
1630674811241,23548,202928,136392
1630674811251,23549,202914,136400
1630674811261,23548,202928,136393
1630674811271,23554,202941,136410
1630674811281,23558,202936,136397
1630674811291,23561,202935,136409
1630674811301,23561,202939,136411
1630674811311,23553,202963,136424
1630674811321,23560,202958,136400
1630674811331,23565,202968,136420
1630674811341,23563,202972,136443
1630674811351,23571,202957,136447
1630674811361,23571,202970,136430
1630674811371,23576,202995,136420
1630674811381,23578,202974,136443
1630674811391,23573,203000,136418
1630674811401,23572,203013,136419
1630674811411,23588,202984,136421
1630674811421,23582,202985,136436
1630674811431,23583,203018,136397
1630674811441,23579,202979,136404
1630674811451,23575,202951,136346
1630674811461,23561,202936,136323
1630674811471,23553,202959,136294
1630674811481,23554,202919,136277
1630674811491,23549,202897,136256
1630674811501,23547,202916,136221
1630674811511,23553,202898,136208
1630674811521,23549,202928,136199
1630674811531,23551,202906,136201
1630674811541,23554,202928,136216
1630674811551,23555,202940,136223
1630674811561,23564,202916,136229
1630674811571,23563,202929,136234
1630674811581,23568,202971,136244
1630674811591,23567,202957,136262
1630674811601,23581,202995,136274
1630674811611,23581,202998,136288
1630674811621,23590,202987,136300
1630674811631,23583,202960,136326
1630674811641,23586,202974,136321
1630674811651,23586,202949,136331
1630674811661,23580,202966,136324
1630674811671,23589,203006,136321
1630674811681,23587,202990,136336
1630674811691,23588,202973,136345
1630674811701,23586,202985,136346
1630674811711,23588,203007,136356
1630674811721,23595,202987,136347
1630674811731,23588,202983,136373
1630674811741,23587,202961,136371
1630674811751,23584,202973,136367
1630674811761,23586,202993,136364
1630674811771,23585,202978,136370
1630674811781,23589,202979,136362
1630674811791,23584,202985,136355
1630674811801,23573,202977,136344
1630674811811,23574,202964,136343
1630674811821,23578,202959,136363
1630674811831,23583,202948,136358
1630674811841,23584,202948,136356
1630674811851,23583,202980,136344
1630674811861,23586,202952,136356
1630674811871,23588,202948,136359
1630674811881,23584,202942,136350
1630674811891,23586,202954,136329
1630674811901,23581,202971,136343
1630674811911,23587,202925,136350
1630674811921,23586,202950,136333
1630674811931,23582,202937,136325
1630674811941,23586,202955,136340
1630674811951,23591,202957,136319
1630674811961,23575,202945,136333
1630674811971,23580,202936,136339
1630674811981,23586,202945,136344
1630674811991,23576,202930,136349
1630674812001,23582,202952,136359
1630674812011,23587,202947,136329
1630674812021,23587,202959,136332
1630674812031,23586,202955,136326
1630674812041,23588,202973,136329
1630674812051,23589,202935,136325
1630674812061,23589,202962,136343
1630674812071,23589,202976,136323
1630674812081,23598,202961,136309
1630674812091,23596,202970,136314
1630674812101,23589,202977,136303
1630674812111,23599,202944,136298
1630674812121,23585,202953,136316
1630674812131,23580,202941,136316
1630674812141,23602,202956,136303
1630674812151,23590,202979,136315
1630674812161,23592,202956,136333
1630674812171,23594,202936,136333
1630674812181,23596,202986,136314
1630674812191,23596,202970,136342
1630674812201,23603,202993,136329
1630674812211,23603,202967,136347
1630674812221,23610,202939,136356
1630674812231,23616,202967,136340
1630674812241,23603,202970,136345
1630674812251,23613,202985,136331
1630674812261,23618,202991,136340
1630674812271,23627,203015,136342
1630674812281,23624,203005,136341
1630674812291,23615,203011,136338
1630674812301,23616,203020,136337
1630674812311,23626,203017,136349
1630674812321,23623,202986,136335
1630674812331,23623,203015,136358
1630674812341,23620,203016,136334
1630674812351,23625,203007,136344
1630674812361,23621,202995,136327
1630674812371,23621,203022,136352
1630674812381,23619,202979,136338
1630674812391,23615,203002,136348
1630674812401,23606,202989,136334
1630674812411,23609,203000,136338
1630674812421,23604,202957,136331
1630674812431,23608,202957,136317
1630674812441,23614,202961,136303
1630674812451,23595,202948,136330
1630674812461,23597,202938,136320
1630674812471,23590,202941,136326
1630674812481,23588,202924,136326
1630674812491,23597,202915,136326
1630674812501,23585,202922,136305
1630674812511,23590,202939,136306
1630674812521,23581,202908,136299
1630674812531,23579,202898,136304
1630674812541,23573,202891,136309
1630674812551,23575,202900,136302
1630674812561,23576,202854,136296
1630674812571,23570,202871,136306
1630674812581,23570,202885,136303
1630674812591,23574,202879,136310
1630674812601,23566,202842,136300
1630674812611,23573,202881,136299
1630674812621,23568,202871,136317
1630674812631,23570,202881,136307
1630674812641,23565,202870,136308
1630674812651,23559,202852,136300
1630674812661,23561,202849,136292
1630674812671,23559,202856,136297
1630674812681,23558,202864,136284
1630674812691,23557,202856,136295
1630674812701,23557,202867,136295
1630674812711,23556,202871,136281
1630674812721,23548,202849,136269
1630674812731,23558,202865,136280
1630674812741,23551,202833,136289
1630674812751,23541,202811,136262
1630674812761,23543,202827,136263
1630674812771,23555,202879,136253
1630674812781,23547,202835,136265
1630674812791,23547,202837,136259
1630674812801,23547,202843,136252
1630674812811,23543,202850,136253
1630674812821,23545,202834,136256
1630674812831,23544,202861,136251
1630674812841,23547,202828,136234
1630674812851,23538,202846,136246
1630674812861,23550,202850,136255
1630674812871,23548,202850,136251
1630674812881,23543,202848,136247
1630674812891,23545,202834,136221
1630674812901,23556,202837,136253
1630674812911,23554,202864,136259
1630674812921,23557,202875,136272
1630674812931,23558,202854,136265
1630674812941,23551,202846,136258
1630674812951,23556,202882,136244
1630674812961,23560,202861,136242
1630674812971,23554,202870,136265
1630674812981,23557,202844,136267
1630674812991,23561,202841,136267
1630674813001,23563,202863,136265
1630674813011,23566,202871,136259
1630674813021,23562,202862,136247
1630674813031,23564,202876,136260
1630674813041,23563,202861,136259
1630674813051,23567,202867,136255
1630674813061,23571,202868,136266
1630674813071,23564,202879,136248
1630674813081,23574,202861,136248
1630674813091,23578,202877,136248
1630674813101,23559,202860,136260
1630674813111,23564,202873,136240
1630674813121,23561,202875,136264
1630674813131,23561,202841,136260
1630674813141,23565,202852,136269
1630674813151,23558,202853,136276
1630674813161,23554,202872,136264
1630674813171,23559,202864,136261
1630674813181,23548,202838,136263
1630674813191,23550,202779,136248
1630674813201,23541,202825,136260
1630674813211,23541,202818,136267
1630674813221,23531,202786,136247
1630674813231,23547,202815,136247
1630674813241,23535,202765,136233
1630674813251,23527,202795,136231
1630674813261,23521,202786,136243
1630674813271,23521,202783,136246
1630674813281,23514,202773,136245
1630674813291,23519,202777,136241
1630674813301,23508,202738,136240
1630674813311,23509,202771,136250
1630674813321,23509,202752,136248
1630674813331,23505,202745,136239
1630674813341,23503,202767,136236
1630674813351,23497,202746,136244
1630674813361,23496,202723,136254
1630674813371,23491,202752,136251
1630674813381,23493,202720,136234
1630674813391,23493,202718,136233
1630674813401,23499,202713,136237
1630674813411,23479,202733,136232
1630674813421,23495,202728,136222
1630674813431,23488,202730,136221
1630674813441,23485,202711,136226
1630674813451,23482,202734,136220
1630674813461,23482,202719,136250
1630674813471,23481,202713,136229
1630674813481,23480,202728,136255
1630674813491,23480,202689,136238
1630674813501,23481,202704,136229
1630674813511,23478,202725,136217
1630674813521,23480,202692,136227
1630674813531,23477,202721,136235
1630674813541,23479,202729,136235
1630674813551,23480,202718,136235
1630674813561,23478,202695,136217
1630674813571,23483,202717,136218
1630674813581,23481,202696,136227
1630674813591,23483,202709,136240
1630674813601,23482,202716,136223
1630674813611,23476,202703,136232
1630674813621,23480,202697,136232
1630674813631,23482,202712,136233
1630674813641,23486,202717,136227
1630674813651,23481,202719,136216
1630674813661,23481,202739,136225
1630674813671,23479,202713,136227
1630674813681,23489,202729,136229
1630674813691,23481,202735,136197
1630674813701,23484,202716,136224
1630674813711,23492,202723,136215
1630674813721,23491,202695,136218
1630674813731,23483,202721,136220
1630674813741,23479,202751,136204
1630674813751,23486,202705,136225
1630674813761,23492,202740,136244
1630674813771,23491,202761,136223
1630674813781,23491,202733,136235
1630674813791,23493,202728,136225
1630674813801,23495,202751,136212
1630674813811,23492,202749,136221
1630674813821,23497,202761,136213
1630674813831,23494,202734,136232
1630674813841,23500,202749,136215
1630674813851,23505,202728,136211
1630674813861,23500,202762,136210
1630674813871,23486,202747,136230
1630674813881,23510,202778,136226
1630674813891,23513,202755,136234
1630674813901,23502,202764,136234
1630674813911,23499,202756,136236
1630674813921,23506,202745,136250
1630674813931,23503,202722,136248
1630674813941,23495,202754,136260
1630674813951,23499,202698,136263
1630674813961,23493,202752,136270
1630674813971,23493,202709,136259
1630674813981,23488,202744,136261
1630674813991,23492,202733,136267
1630674814001,23485,202699,136269
1630674814011,23481,202711,136280
1630674814021,23479,202743,136267
1630674814031,23477,202705,136267
1630674814041,23482,202706,136279
1630674814051,23478,202713,136262
1630674814061,23480,202684,136281
1630674814071,23472,202691,136282
1630674814081,23466,202658,136274
1630674814091,23471,202694,136286
1630674814101,23462,202674,136288
1630674814111,23460,202671,136287
1630674814121,23452,202674,136275
1630674814131,23457,202665,136288
1630674814141,23457,202646,136281
1630674814151,23455,202656,136286
1630674814161,23454,202650,136278
1630674814171,23453,202660,136290
1630674814181,23448,202683,136275
1630674814191,23446,202686,136275
1630674814201,23440,202630,136276
1630674814211,23440,202621,136267
1630674814221,23445,202677,136256
1630674814231,23447,202684,136267
1630674814241,23436,202674,136262
1630674814251,23436,202651,136257
1630674814261,23447,202659,136271
1630674814271,23441,202644,136274
1630674814281,23439,202661,136275
1630674814291,23441,202663,136276
1630674814301,23444,202672,136274
1630674814311,23445,202631,136273
1630674814321,23442,202647,136278
1630674814331,23446,202618,136276
1630674814341,23443,202653,136269
1630674814351,23437,202690,136274
1630674814361,23450,202666,136278
1630674814371,23433,202658,136254
1630674814381,23450,202652,136252
1630674814391,23439,202658,136258
1630674814401,23433,202668,136267
1630674814411,23440,202668,136249
1630674814421,23441,202648,136252
1630674814431,23442,202683,136256
1630674814441,23446,202670,136246
1630674814451,23439,202680,136261
1630674814461,23452,202684,136261
1630674814471,23448,202670,136266
1630674814481,23448,202652,136249
1630674814491,23461,202703,136246
1630674814501,23453,202698,136267
1630674814511,23453,202676,136266
1630674814521,23454,202691,136254
1630674814531,23453,202683,136245
1630674814541,23468,202657,136235
1630674814551,23469,202696,136259
1630674814561,23463,202729,136245
1630674814571,23464,202675,136266
1630674814581,23466,202696,136244
1630674814591,23469,202708,136251
1630674814601,23473,202719,136255
1630674814611,23473,202671,136261
1630674814621,23475,202690,136241
1630674814631,23474,202685,136248
1630674814641,23477,202740,136262
1630674814651,23478,202760,136281
1630674814661,23483,202723,136269
1630674814671,23481,202725,136275
1630674814681,23477,202732,136248
1630674814691,23480,202724,136270
1630674814701,23485,202716,136263
1630674814711,23483,202718,136252
1630674814721,23483,202722,136273
1630674814731,23489,202749,136267
1630674814741,23490,202732,136268
1630674814751,23489,202741,136284
1630674814761,23484,202719,136280
1630674814771,23479,202706,136289
1630674814781,23481,202723,136290
1630674814791,23475,202709,136291
1630674814801,23471,202708,136272
1630674814811,23473,202681,136298
1630674814821,23468,202723,136270
1630674814831,23466,202712,136266
1630674814841,23463,202726,136269
1630674814851,23460,202665,136274
1630674814861,23456,202670,136282
1630674814871,23466,202687,136270
1630674814881,23466,202699,136299
1630674814891,23451,202700,136269
1630674814901,23456,202688,136286
1630674814911,23457,202685,136265
1630674814921,23457,202693,136259
1630674814931,23458,202681,136256
1630674814941,23450,202708,136273
1630674814951,23458,202691,136279
1630674814961,23459,202690,136274
1630674814971,23463,202696,136275
1630674814981,23454,202683,136269
1630674814991,23454,202678,136276
1630674815001,23458,202705,136264
1630674815011,23462,202713,136271
1630674815021,23456,202674,136288
1630674815031,23455,202682,136284
1630674815041,23452,202695,136270
1630674815051,23460,202690,136287
1630674815061,23454,202659,136260
1630674815071,23451,202703,136258
1630674815081,23455,202674,136272
1630674815091,23452,202713,136264
1630674815101,23450,202692,136263
1630674815111,23455,202719,136257
1630674815121,23454,202710,136240
1630674815131,23457,202704,136243
1630674815141,23453,202684,136247
1630674815151,23459,202736,136249
1630674815161,23459,202722,136250
1630674815171,23465,202723,136257
1630674815181,23459,202695,136247
1630674815191,23469,202686,136253
1630674815201,23456,202714,136254
1630674815211,23456,202706,136247
1630674815221,23465,202702,136244
1630674815231,23469,202705,136251
1630674815241,23468,202696,136246
1630674815251,23469,202746,136244
1630674815261,23468,202752,136245
1630674815271,23468,202704,136246
1630674815281,23474,202740,136242
1630674815291,23485,202746,136246
1630674815301,23481,202743,136251
1630674815311,23478,202746,136236
1630674815321,23482,202760,136249
1630674815331,23478,202763,136254
1630674815341,23490,202812,136221
1630674815351,23496,202747,136223
1630674815361,23489,202785,136253
1630674815371,23493,202754,136258
1630674815381,23494,202776,136258
1630674815391,23495,202772,136254
1630674815401,23502,202797,136260
1630674815411,23503,202805,136248
1630674815421,23509,202773,136251
1630674815431,23510,202835,136258
1630674815441,23511,202799,136252
1630674815451,23510,202813,136252
1630674815461,23515,202803,136251
1630674815471,23516,202788,136260
1630674815481,23515,202815,136244
1630674815491,23512,202822,136248
1630674815501,23507,202826,136261
1630674815511,23524,202804,136272
1630674815521,23524,202833,136280
1630674815531,23518,202824,136283
1630674815541,23521,202826,136283
1630674815551,23519,202800,136292
1630674815561,23522,202836,136286
1630674815571,23515,202810,136262
1630674815581,23514,202803,136280
1630674815591,23519,202805,136275
1630674815601,23520,202791,136276
1630674815611,23516,202803,136291
1630674815621,23514,202829,136288
1630674815631,23508,202811,136274
1630674815641,23512,202816,136291
1630674815651,23510,202796,136265
1630674815661,23499,202799,136282
1630674815671,23497,202826,136289
1630674815681,23505,202787,136270
1630674815691,23499,202755,136277
1630674815701,23516,202793,136280
1630674815711,23507,202776,136293
1630674815721,23502,202765,136269
1630674815731,23506,202790,136279
1630674815741,23506,202789,136274
1630674815751,23507,202768,136271
1630674815761,23502,202780,136272
1630674815771,23501,202791,136262
1630674815781,23505,202787,136293
1630674815791,23506,202804,136286
1630674815801,23503,202773,136271
1630674815811,23510,202785,136288
1630674815821,23513,202772,136280
1630674815831,23515,202794,136293
1630674815841,23515,202801,136291
1630674815851,23512,202798,136301
1630674815861,23520,202806,136288
1630674815871,23512,202789,136291
1630674815881,23510,202811,136291
1630674815891,23516,202799,136296
1630674815901,23512,202802,136301
1630674815911,23520,202827,136308
1630674815921,23519,202799,136303
1630674815931,23525,202830,136312
1630674815941,23526,202821,136312
1630674815951,23532,202794,136298
1630674815961,23529,202815,136306
1630674815971,23530,202841,136310
1630674815981,23526,202812,136318
1630674815991,23535,202854,136295
1630674816001,23536,202832,136324
1630674816011,23536,202853,136306
1630674816021,23537,202880,136330
1630674816031,23543,202838,136310
1630674816041,23548,202855,136329
1630674816051,23547,202846,136321
1630674816061,23552,202875,136340
1630674816071,23558,202876,136343
1630674816081,23563,202847,136362
1630674816091,23565,202880,136346
1630674816101,23568,202883,136359
1630674816111,23571,202889,136371
1630674816121,23573,202915,136361
1630674816131,23581,202877,136370
1630674816141,23591,202869,136373
1630674816151,23580,202897,136360
1630674816161,23584,202903,136373
1630674816171,23593,202904,136387
1630674816181,23597,202916,136378
1630674816191,23595,202932,136397
1630674816201,23601,202921,136407
1630674816211,23604,202929,136400
1630674816221,23605,202932,136387
1630674816231,23607,202944,136418
1630674816241,23612,202937,136405
1630674816251,23615,202931,136411
1630674816261,23614,202975,136417
1630674816271,23619,202962,136407
1630674816281,23626,202951,136430
1630674816291,23625,202950,136409
1630674816301,23620,202990,136422
1630674816311,23630,202950,136436
1630674816321,23631,202988,136445
1630674816331,23634,202950,136456
1630674816341,23638,202980,136458
1630674816351,23635,202975,136457
1630674816361,23635,202974,136458
1630674816371,23634,202985,136466
1630674816381,23634,202973,136456
1630674816391,23632,202979,136457
1630674816401,23636,202978,136458
1630674816411,23628,202996,136475
1630674816421,23624,202983,136451
1630674816431,23632,202956,136476
1630674816441,23635,202968,136461
1630674816451,23626,202937,136472
1630674816461,23632,202953,136473
1630674816471,23621,202937,136457
1630674816481,23616,202950,136479
1630674816491,23623,202935,136484
1630674816501,23626,202959,136458
1630674816511,23622,202945,136473
1630674816521,23621,202957,136475
1630674816531,23626,202946,136452
1630674816541,23623,202967,136466
1630674816551,23626,202963,136459
1630674816561,23625,202951,136489
1630674816571,23626,202979,136475
1630674816581,23623,202971,136460
1630674816591,23627,202955,136477
1630674816601,23628,202974,136474
1630674816611,23630,202950,136475
1630674816621,23633,202942,136484
1630674816631,23632,203005,136469
1630674816641,23628,202959,136463
1630674816651,23623,202960,136463
1630674816661,23629,202984,136483
1630674816671,23631,202952,136486
1630674816681,23636,202965,136484
1630674816691,23635,202947,136485
1630674816701,23637,202989,136483
1630674816711,23638,202972,136481
1630674816721,23639,202979,136480
1630674816731,23646,202971,136469
1630674816741,23643,202984,136467
1630674816751,23648,202980,136486
1630674816761,23646,202984,136476
1630674816771,23647,202995,136467
1630674816781,23645,203005,136467
1630674816791,23648,202992,136473
1630674816801,23641,203004,136447
1630674816811,23657,203006,136467
1630674816821,23641,203028,136473
1630674816831,23648,202994,136461
1630674816841,23651,203005,136469
1630674816851,23651,203003,136476
1630674816861,23656,203025,136460
