timestamp,green,ir,red
1630674781590,26397,289937,202876
1630674781600,26394,289956,202871
1630674781610,26395,289935,202884
1630674781620,26396,290010,202893
1630674781630,26403,289958,202877
1630674781640,26406,289981,202883
1630674781650,26404,289979,202870
1630674781660,26417,289979,202910
1630674781670,26426,289995,202897
1630674781680,26432,290028,202914
1630674781690,26442,289977,202905
1630674781700,26442,289970,202959
1630674781710,26431,289977,202975
1630674781720,26426,289983,202953
1630674781730,26434,289982,202954
1630674781740,26418,289968,202967
1630674781750,26411,289956,202938
1630674781760,26405,289898,202939
1630674781770,26394,289914,202958
1630674781780,26394,289909,202951
1630674781790,26385,289890,202958
1630674781800,26383,289889,202949
1630674781810,26381,289921,202945
1630674781820,26370,289862,202933
1630674781830,26367,289839,202952
1630674781840,26358,289883,202939
1630674781850,26353,289887,202960
1630674781860,26349,289836,202955
1630674781870,26337,289840,202930
1630674781880,26337,289786,202916
1630674781890,26327,289803,202912
1630674781900,26330,289830,202909
1630674781910,26333,289785,202893
1630674781920,26331,289822,202891
1630674781930,26330,289838,202917
1630674781940,26336,289821,202907
1630674781950,26336,289820,202910
1630674781960,26341,289807,202906
1630674781970,26332,289828,202914
1630674781980,26337,289833,202913
1630674781990,26336,289822,202946
1630674782000,26331,289773,202917
1630674782010,26337,289773,202915
1630674782020,26333,289786,202905
1630674782030,26337,289777,202916
1630674782040,26340,289801,202905
1630674782050,26340,289780,202908
1630674782060,26336,289807,202910
1630674782070,26354,289788,202887
1630674782080,26349,289780,202925
1630674782090,26343,289792,202896
1630674782100,26349,289812,202899
1630674782110,26349,289824,202890
1630674782120,26353,289822,202878
1630674782130,26355,289851,202889
1630674782140,26354,289836,202908
1630674782150,26360,289841,202903
1630674782160,26360,289824,202888
1630674782170,26364,289817,202907
1630674782180,26368,289836,202904
1630674782190,26376,289825,202896
1630674782200,26382,289823,202901
1630674782210,26390,289862,202901
1630674782220,26391,289851,202905
1630674782230,26389,289837,202922
1630674782240,26390,289858,202892
1630674782250,26397,289860,202910
1630674782260,26404,289858,202914
1630674782270,26405,289860,202919
1630674782280,26407,289839,202937
1630674782290,26410,289874,202917
1630674782300,26412,289878,202898
1630674782310,26419,289844,202902
1630674782320,26428,289874,202895
1630674782330,26425,289898,202938
1630674782340,26430,289920,202897
1630674782350,26435,289907,202923
1630674782360,26443,289895,202920
1630674782370,26448,289873,202923
1630674782380,26444,289938,202918
1630674782390,26444,289930,202922
1630674782400,26466,289919,202911
1630674782410,26461,289943,202918
1630674782420,26466,289952,202900
1630674782430,26480,289916,202937
1630674782440,26490,289914,202967
1630674782450,26494,289950,202964
1630674782460,26494,289992,202980
1630674782470,26501,289911,203009
1630674782480,26496,289886,203004
1630674782490,26496,289923,203012
1630674782500,26490,289904,203034
1630674782510,26487,289916,203008
1630674782520,26489,289900,202979
1630674782530,26478,289874,203021
1630674782540,26467,289877,203018
1630674782550,26476,289884,203020
1630674782560,26465,289853,203035
1630674782570,26463,289832,203010
1630674782580,26457,289837,203008
1630674782590,26451,289826,203026
1630674782600,26457,289825,203010
1630674782610,26448,289792,203023
1630674782620,26440,289785,203003
1630674782630,26434,289785,202993
1630674782640,26430,289754,203000
1630674782650,26430,289772,202975
1630674782660,26432,289769,203009
1630674782670,26425,289793,203021
1630674782680,26438,289752,203010
1630674782690,26433,289820,203024
1630674782700,26446,289809,203036
1630674782710,26436,289796,203018
1630674782720,26438,289819,203028
1630674782730,26436,289854,203026
1630674782740,26441,289813,203024
1630674782750,26438,289784,203040
1630674782760,26440,289809,203040
1630674782770,26448,289760,203038
1630674782780,26440,289788,203028
1630674782790,26442,289808,203027
1630674782800,26442,289790,203040
1630674782810,26445,289772,203011
1630674782820,26448,289817,203054
1630674782830,26451,289795,203030
1630674782840,26453,289815,203049
1630674782850,26455,289810,203052
1630674782860,26479,289819,203060
1630674782870,26473,289766,203050
1630674782880,26472,289791,203068
1630674782890,26463,289824,203069
1630674782900,26478,289811,203046
1630674782910,26480,289793,203063
1630674782920,26485,289818,203100
1630674782930,26495,289844,203082
1630674782940,26502,289822,203112
1630674782950,26503,289852,203101
1630674782960,26504,289845,203105
1630674782970,26514,289833,203120
1630674782980,26519,289822,203116
1630674782990,26524,289824,203118
1630674783000,26529,289881,203101
1630674783010,26537,289862,203128
1630674783020,26531,289854,203142
1630674783030,26554,289863,203142
1630674783040,26552,289857,203109
1630674783050,26556,289883,203147
1630674783060,26557,289909,203141
1630674783070,26556,289885,203139
1630674783080,26568,289871,203151
1630674783090,26573,289934,203150
1630674783100,26580,289885,203154
1630674783110,26580,289906,203173
1630674783120,26582,289938,203150
1630674783130,26580,289928,203173
1630674783140,26582,289928,203138
1630674783150,26587,289926,203156
1630674783160,26593,289924,203153
1630674783170,26600,289977,203171
1630674783180,26608,289944,203167
1630674783190,26610,289973,203183
1630674783200,26613,289970,203204
1630674783210,26629,289973,203208
1630674783220,26632,289942,203234
1630674783230,26632,289937,203261
1630674783240,26634,289987,203271
1630674783250,26636,289943,203285
1630674783260,26630,289953,203287
1630674783270,26624,289978,203262
1630674783280,26609,289931,203265
1630674783290,26605,289935,203246
1630674783300,26606,289905,203284
1630674783310,26606,289921,203279
1630674783320,26601,289911,203289
1630674783330,26601,289908,203306
1630674783340,26596,289889,203323
1630674783350,26602,289882,203298
1630674783360,26585,289862,203314
1630674783370,26600,289880,203309
1630674783380,26590,289837,203297
1630674783390,26584,289878,203296
1630674783400,26577,289859,203276
1630674783410,26575,289869,203308
1630674783420,26576,289820,203298
1630674783430,26578,289870,203281
1630674783440,26579,289852,203290
1630674783450,26580,289832,203312
1630674783460,26581,289842,203318
1630674783470,26587,289868,203333
1630674783480,26584,289848,203345
1630674783490,26594,289832,203326
1630674783500,26582,289872,203330
1630674783510,26588,289855,203359
1630674783520,26595,289856,203340
1630674783530,26590,289835,203345
1630674783540,26594,289847,203346
1630674783550,26600,289896,203373
1630674783560,26600,289859,203381
1630674783570,26596,289866,203383
1630674783580,26612,289865,203376
1630674783590,26607,289853,203365
1630674783600,26607,289867,203380
1630674783610,26605,289864,203367
1630674783620,26606,289853,203373
1630674783630,26606,289903,203362
1630674783640,26606,289872,203381
1630674783650,26605,289868,203369
1630674783660,26623,289860,203393
1630674783670,26616,289909,203386
1630674783680,26627,289880,203382
1630674783690,26620,289911,203400
1630674783700,26630,289899,203389
1630674783710,26625,289958,203388
1630674783720,26636,289896,203399
1630674783730,26637,289896,203410
1630674783740,26642,289926,203426
1630674783750,26643,289933,203394
1630674783760,26637,289873,203406
1630674783770,26642,289924,203417
1630674783780,26645,289924,203416
1630674783790,26649,289942,203379
1630674783800,26648,289901,203401
1630674783810,26663,289929,203408
1630674783820,26656,289915,203396
1630674783830,26659,289936,203418
1630674783840,26660,289931,203405
1630674783850,26654,289928,203414
1630674783860,26655,289939,203446
1630674783870,26660,289939,203426
1630674783880,26665,289934,203427
1630674783890,26662,289953,203405
1630674783900,26670,289953,203403
1630674783910,26670,289994,203430
1630674783920,26667,289973,203396
1630674783930,26678,290003,203405
1630674783940,26687,289970,203436
1630674783950,26689,290013,203444
1630674783960,26693,289964,203481
1630674783970,26693,289934,203476
1630674783980,26690,289958,203495
1630674783990,26686,289939,203486
1630674784000,26669,289957,203476
1630674784010,26659,289917,203462
1630674784020,26663,289925,203491
1630674784030,26656,289916,203483
1630674784040,26645,289900,203453
1630674784050,26642,289906,203466
1630674784060,26639,289880,203457
1630674784070,26626,289883,203462
1630674784080,26633,289832,203479
1630674784090,26616,289850,203460
1630674784100,26602,289850,203467
1630674784110,26596,289871,203451
1630674784120,26592,289832,203458
1630674784130,26581,289824,203452
1630674784140,26586,289816,203438
1630674784150,26575,289827,203451
1630674784160,26570,289821,203467
1630674784170,26567,289803,203446
1630674784180,26560,289782,203449
1630674784190,26557,289823,203438
1630674784200,26563,289778,203473
1630674784210,26561,289819,203467
1630674784220,26561,289779,203470
1630674784230,26559,289818,203484
1630674784240,26558,289818,203453
1630674784250,26559,289799,203466
1630674784260,26552,289800,203472
1630674784270,26548,289767,203457
1630674784280,26549,289811,203483
1630674784290,26547,289792,203481
1630674784300,26553,289792,203470
1630674784310,26537,289805,203495
1630674784320,26541,289838,203505
1630674784330,26553,289755,203482
1630674784340,26542,289783,203492
1630674784350,26548,289791,203500
1630674784360,26550,289825,203488
1630674784370,26544,289784,203497
1630674784380,26543,289756,203485
1630674784390,26550,289779,203515
1630674784400,26548,289795,203504
1630674784410,26547,289787,203518
1630674784420,26543,289792,203478
1630674784430,26555,289812,203508
1630674784440,26553,289826,203512
1630674784450,26551,289820,203490
1630674784460,26557,289854,203510
1630674784470,26550,289871,203490
1630674784480,26559,289793,203523
1630674784490,26568,289851,203495
1630674784500,26551,289863,203516
1630674784510,26568,289858,203477
1630674784520,26557,289810,203493
1630674784530,26559,289844,203487
1630674784540,26557,289860,203493
1630674784550,26566,289876,203492
1630674784560,26562,289852,203474
1630674784570,26559,289863,203462
1630674784580,26554,289860,203455
1630674784590,26558,289846,203474
1630674784600,26559,289886,203462
1630674784610,26557,289879,203471
1630674784620,26559,289882,203455
1630674784630,26565,289903,203465
1630674784640,26573,289890,203459
1630674784650,26566,289876,203452
1630674784660,26575,289890,203459
1630674784670,26571,289896,203455
1630674784680,26581,289927,203475
1630674784690,26588,289925,203493
1630674784700,26597,289943,203496
1630674784710,26596,289924,203527
1630674784720,26595,289930,203526
1630674784730,26590,289926,203540
1630674784740,26575,289891,203534
1630674784750,26568,289869,203538
1630674784760,26563,289856,203545
1630674784770,26552,289861,203524
1630674784780,26535,289849,203530
1630674784790,26538,289827,203523
1630674784800,26521,289814,203541
1630674784810,26523,289841,203533
1630674784820,26505,289807,203522
1630674784830,26501,289831,203508
1630674784840,26489,289785,203513
1630674784850,26477,289763,203528
1630674784860,26470,289749,203505
1630674784870,26452,289744,203513
1630674784880,26450,289736,203495
1630674784890,26437,289732,203487
1630674784900,26417,289715,203470
1630674784910,26404,289686,203475
1630674784920,26404,289667,203451
1630674784930,26399,289731,203433
1630674784940,26398,289705,203464
1630674784950,26405,289717,203446
1630674784960,26398,289686,203440
1630674784970,26382,289725,203426
1630674784980,26390,289701,203461
1630674784990,26380,289667,203447
1630674785000,26376,289699,203425
1630674785010,26372,289691,203414
1630674785020,26372,289669,203410
1630674785030,26359,289721,203410
1630674785040,26361,289686,203413
1630674785050,26357,289647,203426
1630674785060,26353,289639,203424
1630674785070,26354,289646,203424
1630674785080,26352,289663,203399
1630674785090,26345,289678,203401
1630674785100,26347,289702,203409
1630674785110,26345,289676,203406
1630674785120,26344,289682,203416
1630674785130,26351,289683,203390
1630674785140,26340,289708,203372
1630674785150,26337,289670,203373
1630674785160,26335,289688,203374
1630674785170,26326,289673,203345
1630674785180,26328,289690,203362
1630674785190,26328,289711,203361
1630674785200,26331,289661,203359
1630674785210,26327,289653,203375
1630674785220,26330,289708,203369
1630674785230,26328,289722,203359
1630674785240,26334,289735,203377
1630674785250,26336,289734,203380
1630674785260,26345,289748,203409
1630674785270,26349,289810,203432
1630674785280,26358,289767,203439
1630674785290,26355,289771,203449
1630674785300,26366,289845,203480
1630674785310,26367,289821,203491
1630674785320,26377,289797,203496
1630674785330,26380,289853,203506
1630674785340,26392,289846,203509
1630674785350,26405,289896,203549
1630674785360,26417,289892,203573
1630674785370,26431,289924,203597
1630674785380,26440,289926,203609
1630674785390,26448,289925,203616
1630674785400,26446,289939,203623
1630674785410,26444,289933,203604
1630674785420,26439,289906,203621
1630674785430,26429,289880,203565
1630674785440,26431,289859,203554
1630674785450,26415,289851,203543
1630674785460,26428,289874,203529
1630674785470,26434,289870,203529
1630674785480,26431,289875,203538
1630674785490,26443,289841,203531
1630674785500,26453,289840,203564
1630674785510,26459,289899,203575
1630674785520,26455,289895,203570
1630674785530,26461,289896,203609
1630674785540,26449,289889,203598
1630674785550,26440,289899,203593
1630674785560,26434,289873,203605
1630674785570,26424,289835,203598
1630674785580,26400,289793,203598
1630674785590,26390,289817,203604
1630674785600,26375,289791,203609
1630674785610,26375,289801,203597
1630674785620,26364,289795,203591
1630674785630,26351,289776,203604
1630674785640,26337,289819,203594
1630674785650,26325,289773,203561
1630674785660,26308,289775,203558
1630674785670,26286,289754,203562
1630674785680,26290,289772,203509
1630674785690,26261,289742,203528
1630674785700,26246,289735,203505
1630674785710,26229,289722,203474
1630674785720,26221,289729,203475
1630674785730,26202,289727,203433
1630674785740,26195,289739,203422
1630674785750,26197,289705,203416
1630674785760,26194,289633,203402
1630674785770,26183,289655,203385
1630674785780,26173,289688,203352
1630674785790,26181,289679,203366
1630674785800,26172,289683,203368
1630674785810,26173,289617,203347
1630674785820,26167,289670,203341
1630674785830,26170,289657,203317
1630674785840,26162,289659,203337
1630674785850,26158,289624,203307
1630674785860,26154,289632,203290
1630674785870,26156,289666,203291
1630674785880,26150,289638,203265
1630674785890,26145,289594,203264
1630674785900,26144,289594,203229
1630674785910,26136,289564,203248
1630674785920,26136,289612,203215
1630674785930,26125,289599,203187
1630674785940,26117,289532,203141
1630674785950,26109,289518,203123
1630674785960,26098,289511,203085
1630674785970,26098,289483,203057
1630674785980,26092,289483,203056
1630674785990,26078,289441,202999
1630674786000,26066,289443,202978
1630674786010,26055,289451,202959
1630674786020,26050,289400,202910
1630674786030,26042,289398,202891
1630674786040,26035,289382,202855
1630674786050,26030,289364,202826
1630674786060,26030,289328,202783
1630674786070,26029,289316,202802
1630674786080,26028,289343,202797
1630674786090,26020,289271,202742
1630674786100,26028,289277,202744
1630674786110,26019,289289,202735
1630674786120,26026,289339,202728
1630674786130,26028,289283,202705
1630674786140,26029,289305,202724
1630674786150,26033,289285,202713
1630674786160,26038,289295,202715
1630674786170,26039,289298,202717
1630674786180,26042,289298,202734
1630674786190,26043,289337,202726
1630674786200,26038,289341,202734
1630674786210,26051,289371,202725
1630674786220,26058,289356,202725
1630674786230,26065,289365,202722
1630674786240,26072,289364,202730
1630674786250,26079,289348,202747
1630674786260,26074,289385,202745
1630674786270,26076,289353,202738
1630674786280,26085,289398,202740
1630674786290,26082,289391,202741
1630674786300,26091,289412,202741
1630674786310,26095,289415,202777
1630674786320,26102,289430,202769
1630674786330,26110,289471,202801
1630674786340,26129,289451,202834
1630674786350,26132,289436,202850
1630674786360,26137,289444,202852
1630674786370,26141,289502,202878
1630674786380,26137,289468,202904
1630674786390,26135,289426,202896
1630674786400,26125,289428,202886
1630674786410,26127,289452,202887
1630674786420,26109,289440,202922
1630674786430,26109,289409,202922
1630674786440,26115,289402,202928
1630674786450,26105,289432,202950
1630674786460,26102,289402,202952
1630674786470,26104,289397,202948
1630674786480,26088,289405,202957
1630674786490,26092,289405,202994
1630674786500,26084,289372,202980
1630674786510,26081,289406,203006
1630674786520,26077,289404,202985
1630674786530,26070,289400,202978
1630674786540,26072,289369,202992
1630674786550,26063,289379,202983
1630674786560,26070,289361,202991
1630674786570,26066,289397,202999
1630674786580,26058,289407,202975
1630674786590,26068,289441,202996
1630674786600,26063,289381,203024
1630674786610,26075,289376,203019
1630674786620,26072,289410,203029
1630674786630,26075,289385,203048
1630674786640,26084,289439,203044
1630674786650,26086,289448,203056
1630674786660,26087,289384,203068
1630674786670,26086,289403,203085
1630674786680,26092,289397,203097
1630674786690,26098,289408,203112
1630674786700,26106,289428,203109
1630674786710,26112,289447,203129
1630674786720,26119,289447,203131
1630674786730,26127,289431,203131
1630674786740,26127,289477,203160
1630674786750,26140,289464,203165
1630674786760,26145,289496,203177
1630674786770,26146,289493,203181
1630674786780,26151,289501,203170
1630674786790,26158,289456,203209
1630674786800,26159,289475,203216
1630674786810,26169,289534,203209
1630674786820,26167,289505,203215
1630674786830,26175,289532,203227
1630674786840,26177,289489,203225
1630674786850,26179,289491,203226
1630674786860,26193,289506,203240
1630674786870,26196,289526,203223
1630674786880,26197,289536,203248
1630674786890,26210,289546,203264
1630674786900,26216,289527,203250
1630674786910,26230,289550,203263
1630674786920,26224,289536,203276
1630674786930,26226,289592,203262
1630674786940,26240,289571,203269
1630674786950,26235,289597,203271
1630674786960,26242,289591,203301
1630674786970,26254,289606,203298
1630674786980,26262,289646,203303
1630674786990,26264,289646,203302
1630674787000,26270,289628,203317
1630674787010,26282,289639,203302
1630674787020,26287,289674,203322
1630674787030,26295,289666,203307
1630674787040,26300,289665,203340
1630674787050,26314,289692,203338
1630674787060,26326,289690,203332
1630674787070,26336,289689,203359
1630674787080,26331,289729,203356
1630674787090,26341,289728,203374
1630674787100,26345,289714,203345
1630674787110,26347,289695,203365
1630674787120,26358,289713,203358
1630674787130,26361,289717,203376
1630674787140,26372,289783,203382
1630674787150,26375,289764,203369
1630674787160,26387,289800,203387
1630674787170,26390,289766,203411
1630674787180,26395,289757,203412
1630674787190,26402,289772,203460
1630674787200,26410,289770,203434
1630674787210,26408,289708,203468
1630674787220,26393,289752,203453
1630674787230,26395,289749,203464
1630674787240,26399,289674,203438
1630674787250,26386,289712,203413
1630674787260,26371,289711,203429
1630674787270,26368,289698,203410
1630674787280,26374,289706,203397
1630674787290,26370,289662,203420
1630674787300,26365,289689,203395
1630674787310,26359,289661,203377
1630674787320,26360,289643,203405
1630674787330,26356,289666,203402
1630674787340,26352,289634,203377
1630674787350,26352,289636,203370
1630674787360,26350,289654,203381
1630674787370,26343,289624,203355
1630674787380,26344,289631,203375
1630674787390,26343,289580,203371
1630674787400,26356,289626,203343
1630674787410,26357,289622,203351
1630674787420,26347,289612,203346
1630674787430,26358,289593,203355
1630674787440,26360,289618,203367
1630674787450,26357,289630,203343
1630674787460,26362,289600,203365
1630674787470,26365,289615,203369
1630674787480,26365,289626,203392
1630674787490,26367,289615,203390
1630674787500,26368,289602,203367
1630674787510,26370,289606,203373
1630674787520,26375,289664,203370
1630674787530,26383,289657,203334
1630674787540,26384,289651,203366
1630674787550,26400,289635,203385
1630674787560,26398,289593,203391
1630674787570,26396,289673,203360
1630674787580,26402,289665,203369
1630674787590,26403,289665,203371
1630674787600,26407,289681,203378
1630674787610,26416,289648,203369
1630674787620,26412,289696,203359
1630674787630,26421,289697,203386
1630674787640,26422,289721,203389
1630674787650,26428,289714,203386
1630674787660,26430,289685,203375
1630674787670,26435,289693,203381
1630674787680,26441,289691,203374
1630674787690,26443,289721,203366
1630674787700,26455,289697,203360
1630674787710,26459,289701,203369
1630674787720,26455,289744,203370
1630674787730,26456,289734,203343
1630674787740,26462,289734,203370
1630674787750,26467,289728,203385
1630674787760,26476,289754,203385
1630674787770,26477,289744,203383
1630674787780,26484,289782,203390
1630674787790,26481,289747,203365
1630674787800,26488,289774,203378
1630674787810,26495,289770,203386
1630674787820,26495,289784,203378
1630674787830,26505,289790,203369
1630674787840,26509,289778,203397
1630674787850,26513,289810,203385
1630674787860,26519,289845,203376
1630674787870,26527,289816,203368
1630674787880,26528,289833,203395
1630674787890,26539,289800,203362
1630674787900,26549,289816,203397
1630674787910,26542,289855,203370
1630674787920,26548,289839,203357
1630674787930,26555,289861,203349
1630674787940,26565,289897,203373
1630674787950,26565,289886,203368
1630674787960,26575,289883,203390
1630674787970,26593,289938,203402
1630674787980,26595,289890,203426
1630674787990,26603,289870,203456
1630674788000,26611,289879,203452
1630674788010,26615,289889,203476
1630674788020,26615,289872,203463
1630674788030,26604,289849,203481
1630674788040,26603,289853,203465
1630674788050,26606,289855,203482
1630674788060,26604,289864,203437
1630674788070,26599,289855,203471
1630674788080,26603,289816,203450
1630674788090,26602,289799,203438
1630674788100,26596,289798,203477
1630674788110,26593,289795,203467
1630674788120,26587,289797,203465
1630674788130,26582,289789,203460
1630674788140,26578,289804,203445
1630674788150,26582,289792,203455
1630674788160,26578,289782,203460
1630674788170,26570,289774,203461
1630674788180,26572,289778,203425
1630674788190,26575,289778,203424
1630674788200,26569,289785,203448
1630674788210,26573,289770,203432
1630674788220,26576,289785,203448
1630674788230,26575,289751,203437
1630674788240,26577,289791,203457
1630674788250,26583,289739,203443
1630674788260,26589,289801,203448
1630674788270,26581,289779,203451
1630674788280,26583,289804,203457
1630674788290,26587,289755,203447
1630674788300,26587,289766,203443
1630674788310,26588,289775,203439
1630674788320,26592,289786,203441
1630674788330,26594,289781,203450
1630674788340,26598,289769,203432
1630674788350,26607,289797,203444
1630674788360,26613,289805,203468
1630674788370,26620,289789,203454
1630674788380,26603,289809,203461
1630674788390,26621,289824,203434
1630674788400,26622,289819,203453
1630674788410,26624,289844,203437
1630674788420,26622,289805,203453
1630674788430,26625,289840,203441
1630674788440,26632,289833,203429
1630674788450,26629,289823,203464
1630674788460,26638,289866,203442
1630674788470,26640,289819,203418
1630674788480,26642,289820,203448
1630674788490,26649,289891,203433
1630674788500,26649,289861,203445
1630674788510,26657,289841,203428
1630674788520,26652,289897,203433
1630674788530,26656,289866,203427
1630674788540,26664,289872,203436
1630674788550,26676,289880,203431
1630674788560,26674,289847,203441
1630674788570,26676,289908,203425
1630674788580,26683,289896,203441
1630674788590,26687,289873,203409
1630674788600,26695,289881,203415
1630674788610,26695,289869,203454
1630674788620,26699,289904,203460
1630674788630,26701,289880,203440
1630674788640,26713,289941,203438
1630674788650,26710,289904,203442
1630674788660,26725,289943,203449
1630674788670,26723,289918,203431
1630674788680,26730,289953,203449
1630674788690,26736,289935,203462
1630674788700,26733,289903,203464
1630674788710,26744,289942,203447
1630674788720,26745,289905,203441
1630674788730,26750,289950,203463
1630674788740,26750,289974,203447
1630674788750,26761,289944,203441
1630674788760,26752,289991,203432
1630674788770,26766,289968,203451
1630674788780,26767,289985,203432
1630674788790,26784,290007,203458
1630674788800,26786,289997,203482
1630674788810,26794,290048,203515
1630674788820,26801,290058,203500
1630674788830,26812,289961,203536
1630674788840,26809,290039,203516
1630674788850,26812,289975,203545
1630674788860,26798,289989,203537
1630674788870,26798,289951,203503
1630674788880,26796,289973,203557
1630674788890,26795,289956,203535
1630674788900,26787,289956,203514
1630674788910,26788,289927,203518
1630674788920,26788,289953,203535
1630674788930,26791,289935,203530
1630674788940,26771,289949,203519
1630674788950,26781,289902,203526
1630674788960,26782,289959,203546
1630674788970,26770,289927,203540
1630674788980,26771,289918,203518
1630674788990,26763,289923,203523
1630674789000,26768,289921,203525
1630674789010,26756,289902,203518
1630674789020,26753,289922,203533
1630674789030,26750,289948,203524
1630674789040,26751,289889,203521
1630674789050,26754,289898,203504
1630674789060,26751,289882,203493
1630674789070,26746,289880,203512
1630674789080,26753,289928,203526
1630674789090,26749,289858,203500
1630674789100,26750,289871,203492
1630674789110,26752,289942,203501
1630674789120,26747,289920,203510
1630674789130,26748,289937,203493
1630674789140,26744,289898,203483
1630674789150,26738,289898,203481
1630674789160,26751,289885,203470
1630674789170,26733,289871,203459
1630674789180,26744,289870,203469
1630674789190,26736,289913,203459
1630674789200,26737,289890,203464
1630674789210,26742,289870,203471
1630674789220,26740,289915,203452
1630674789230,26744,289906,203434
1630674789240,26745,289926,203430
1630674789250,26743,289961,203451
1630674789260,26738,289914,203427
1630674789270,26739,289877,203432
1630674789280,26737,289875,203438
1630674789290,26748,289916,203429
1630674789300,26745,289892,203407
1630674789310,26743,289900,203450
1630674789320,26751,289911,203407
1630674789330,26751,289916,203409
1630674789340,26754,289907,203427
1630674789350,26743,289891,203432
1630674789360,26747,289920,203391
1630674789370,26753,289957,203407
1630674789380,26758,289926,203404
1630674789390,26758,289934,203401
1630674789400,26763,289948,203400
1630674789410,26761,289934,203404
1630674789420,26766,289961,203394
1630674789430,26762,289977,203386
1630674789440,26768,289945,203411
1630674789450,26764,289995,203382
1630674789460,26771,289991,203404
1630674789470,26770,289950,203405
1630674789480,26782,289966,203370
1630674789490,26772,289951,203352
1630674789500,26786,289980,203401
1630674789510,26781,289951,203397
1630674789520,26784,290016,203394
1630674789530,26787,290011,203378
1630674789540,26788,290019,203376
1630674789550,26790,289975,203390
1630674789560,26790,290039,203403
1630674789570,26789,290024,203382
1630674789580,26795,289999,203394
1630674789590,26801,290032,203376
1630674789600,26807,290052,203377
1630674789610,26803,290078,203378
1630674789620,26809,290075,203379
1630674789630,26816,290029,203396
1630674789640,26825,290050,203412
1630674789650,26830,290072,203436
1630674789660,26841,290058,203449
1630674789670,26841,290048,203474
1630674789680,26828,290033,203481
1630674789690,26822,290036,203486
1630674789700,26814,290055,203472
1630674789710,26806,290038,203471
1630674789720,26804,290010,203451
1630674789730,26789,289940,203431
1630674789740,26784,289983,203456
1630674789750,26780,290013,203465
1630674789760,26773,289988,203445
1630674789770,26761,289963,203446
1630674789780,26752,289972,203469
1630674789790,26746,289980,203470
1630674789800,26732,289951,203444
1630674789810,26739,289955,203448
1630674789820,26728,289915,203446
1630674789830,26710,289934,203415
1630674789840,26702,289933,203438
1630674789850,26699,289931,203402
1630674789860,26692,289924,203415
1630674789870,26693,289933,203397
1630674789880,26688,289879,203392
1630674789890,26681,289919,203386
1630674789900,26688,289912,203413
1630674789910,26676,289894,203410
1630674789920,26667,289903,203390
1630674789930,26668,289911,203393
1630674789940,26656,289923,203395
1630674789950,26653,289866,203390
1630674789960,26652,289859,203400
1630674789970,26636,289867,203396
1630674789980,26643,289874,203378
1630674789990,26640,289852,203364
1630674790000,26625,289882,203373
1630674790010,26632,289888,203383
1630674790020,26631,289850,203355
1630674790030,26631,289886,203376
1630674790040,26623,289887,203360
1630674790050,26625,289903,203349
1630674790060,26621,289883,203353
1630674790070,26616,289849,203354
1630674790080,26612,289874,203353
1630674790090,26615,289865,203329
1630674790100,26614,289861,203354
1630674790110,26610,289871,203347
1630674790120,26607,289915,203337
1630674790130,26617,289844,203334
1630674790140,26605,289854,203328
1630674790150,26604,289894,203336
1630674790160,26609,289897,203325
1630674790170,26607,289909,203321
1630674790180,26604,289877,203327
1630674790190,26602,289904,203337
1630674790200,26605,289906,203334
1630674790210,26604,289892,203314
1630674790220,26599,289878,203312
1630674790230,26601,289896,203306
1630674790240,26603,289898,203300
1630674790250,26602,289921,203305
1630674790260,26603,289901,203328
1630674790270,26598,289931,203316
1630674790280,26598,289953,203286
1630674790290,26603,289909,203288
1630674790300,26601,289921,203320
1630674790310,26603,289960,203302
1630674790320,26607,289932,203292
1630674790330,26599,289950,203283
1630674790340,26598,289935,203305
1630674790350,26600,289946,203282
1630674790360,26602,289935,203276
1630674790370,26603,289944,203256
1630674790380,26609,289972,203285
1630674790390,26603,289939,203262
1630674790400,26602,289965,203256
1630674790410,26604,289962,203282
1630674790420,26608,289988,203272
1630674790430,26609,289958,203286
1630674790440,26611,289960,203288
1630674790450,26615,289958,203280
1630674790460,26626,289959,203285
1630674790470,26618,289982,203315
1630674790480,26622,289939,203350
1630674790490,26610,289993,203342
1630674790500,26604,289965,203354
1630674790510,26597,289930,203323
1630674790520,26572,289917,203313
1630674790530,26566,289904,203324
1630674790540,26555,289865,203308
1630674790550,26543,289897,203342
1630674790560,26533,289888,203310
1630674790570,26522,289902,203305
1630674790580,26509,289842,203323
1630674790590,26503,289830,203308
1630674790600,26491,289801,203309
1630674790610,26463,289800,203284
1630674790620,26471,289800,203296
1630674790630,26459,289774,203299
1630674790640,26436,289801,203271
1630674790650,26429,289784,203269
1630674790660,26417,289787,203258
1630674790670,26408,289705,203248
1630674790680,26402,289729,203256
1630674790690,26393,289745,203239
1630674790700,26395,289730,203231
1630674790710,26391,289718,203244
1630674790720,26384,289750,203239
1630674790730,26379,289689,203238
1630674790740,26365,289740,203238
1630674790750,26365,289706,203231
1630674790760,26353,289677,203227
1630674790770,26348,289693,203194
1630674790780,26346,289730,203191
1630674790790,26337,289713,203214
1630674790800,26344,289725,203211
1630674790810,26332,289697,203201
1630674790820,26329,289677,203201
1630674790830,26325,289687,203212
1630674790840,26323,289693,203207
1630674790850,26318,289686,203194
1630674790860,26318,289676,203199
1630674790870,26315,289695,203207
1630674790880,26309,289740,203191
1630674790890,26315,289714,203212
1630674790900,26311,289688,203173
1630674790910,26306,289667,203197
1630674790920,26311,289691,203197
1630674790930,26306,289717,203185
1630674790940,26308,289685,203184
1630674790950,26294,289685,203203
1630674790960,26313,289714,203171
1630674790970,26310,289716,203176
1630674790980,26303,289716,203179
1630674790990,26300,289725,203186
1630674791000,26303,289711,203178
1630674791010,26311,289708,203187
1630674791020,26302,289755,203153
1630674791030,26308,289731,203192
1630674791040,26305,289702,203178
1630674791050,26301,289743,203198
1630674791060,26301,289713,203179
1630674791070,26302,289734,203195
1630674791080,26308,289710,203176
1630674791090,26317,289691,203125
1630674791100,26310,289724,203161
1630674791110,26302,289755,203147
1630674791120,26311,289775,203177
1630674791130,26317,289756,203151
1630674791140,26312,289735,203169
1630674791150,26320,289767,203148
1630674791160,26316,289736,203176
1630674791170,26317,289762,203159
1630674791180,26318,289747,203161
1630674791190,26318,289807,203133
1630674791200,26324,289804,203168
1630674791210,26327,289797,203143
1630674791220,26325,289779,203144
1630674791230,26327,289829,203148
1630674791240,26329,289801,203131
1630674791250,26331,289817,203147
1630674791260,26340,289797,203147
1630674791270,26339,289799,203160
1630674791280,26348,289827,203161
1630674791290,26347,289840,203184
1630674791300,26358,289839,203188
1630674791310,26358,289846,203209
1630674791320,26356,289827,203224
1630674791330,26355,289816,203235
1630674791340,26342,289801,203244
1630674791350,26329,289760,203239
1630674791360,26316,289734,203236
1630674791370,26302,289757,203235
1630674791380,26287,289731,203206
1630674791390,26281,289735,203199
1630674791400,26271,289708,203214
1630674791410,26254,289708,203218
1630674791420,26248,289716,203219
1630674791430,26246,289651,203200
1630674791440,26212,289667,203212
1630674791450,26215,289647,203199
1630674791460,26200,289645,203210
1630674791470,26195,289656,203211
1630674791480,26187,289620,203196
1630674791490,26170,289595,203206
1630674791500,26162,289540,203205
1630674791510,26149,289606,203169
1630674791520,26145,289600,203196
1630674791530,26137,289598,203154
1630674791540,26135,289576,203171
1630674791550,26131,289607,203192
1630674791560,26122,289553,203182
1630674791570,26122,289560,203172
1630674791580,26118,289579,203210
1630674791590,26130,289518,203181
1630674791600,26110,289539,203168
1630674791610,26107,289543,203193
1630674791620,26110,289542,203169
1630674791630,26101,289535,203170
1630674791640,26095,289512,203156
1630674791650,26094,289537,203153
1630674791660,26099,289548,203163
1630674791670,26090,289558,203175
1630674791680,26105,289498,203163
1630674791690,26087,289522,203175
1630674791700,26090,289545,203171
1630674791710,26091,289521,203164
1630674791720,26085,289543,203162
1630674791730,26087,289523,203168
1630674791740,26091,289552,203144
1630674791750,26095,289544,203163
1630674791760,26095,289512,203181
1630674791770,26099,289574,203164
1630674791780,26081,289520,203154
1630674791790,26090,289531,203182
1630674791800,26090,289578,203180
1630674791810,26095,289602,203162
1630674791820,26087,289547,203184
1630674791830,26094,289541,203164
1630674791840,26095,289549,203144
1630674791850,26101,289550,203153
1630674791860,26102,289619,203174
1630674791870,26096,289622,203161
1630674791880,26101,289549,203149
1630674791890,26106,289543,203175
1630674791900,26115,289593,203176
1630674791910,26113,289551,203173
1630674791920,26110,289553,203159
1630674791930,26122,289573,203182
1630674791940,26119,289594,203168
1630674791950,26126,289618,203185
1630674791960,26132,289597,203142
1630674791970,26130,289597,203178
1630674791980,26131,289646,203200
1630674791990,26140,289612,203184
1630674792000,26140,289613,203173
1630674792010,26140,289625,203174
1630674792020,26144,289658,203176
1630674792030,26147,289659,203203
1630674792040,26152,289657,203169
1630674792050,26157,289645,203183
1630674792060,26157,289632,203180
1630674792070,26170,289647,203188
1630674792080,26180,289704,203179
1630674792090,26169,289660,203203
1630674792100,26183,289660,203193
1630674792110,26178,289697,203195
1630674792120,26189,289678,203162
1630674792130,26193,289731,203176
1630674792140,26200,289727,203191
1630674792150,26201,289709,203214
1630674792160,26216,289730,203235
1630674792170,26223,289727,203234
1630674792180,26221,289719,203254
1630674792190,26222,289732,203253
1630674792200,26222,289690,203275
1630674792210,26216,289685,203286
1630674792220,26205,289716,203279
1630674792230,26195,289653,203283
1630674792240,26186,289664,203274
1630674792250,26180,289607,203261
1630674792260,26180,289634,203267
1630674792270,26177,289613,203256
1630674792280,26164,289626,203269
1630674792290,26157,289610,203261
1630674792300,26143,289581,203274
1630674792310,26142,289565,203277
1630674792320,26136,289578,203268
1630674792330,26122,289563,203271
1630674792340,26129,289562,203265
1630674792350,26111,289515,203248
1630674792360,26105,289514,203248
1630674792370,26097,289524,203236
1630674792380,26092,289496,203229
1630674792390,26096,289494,203232
1630674792400,26098,289494,203234
1630674792410,26081,289509,203224
1630674792420,26088,289488,203230
1630674792430,26089,289522,203259
1630674792440,26085,289508,203253
1630674792450,26096,289477,203241
1630674792460,26091,289513,203250
1630674792470,26097,289519,203249
1630674792480,26101,289492,203239
1630674792490,26092,289515,203241
1630674792500,26087,289501,203252
1630674792510,26084,289474,203231
1630674792520,26088,289501,203241
1630674792530,26092,289512,203251
1630674792540,26093,289491,203245
1630674792550,26103,289495,203264
1630674792560,26098,289527,203244
1630674792570,26106,289531,203240
1630674792580,26115,289508,203253
1630674792590,26115,289525,203251
1630674792600,26116,289536,203258
1630674792610,26122,289534,203274
1630674792620,26126,289514,203272
1630674792630,26128,289583,203275
1630674792640,26129,289543,203262
1630674792650,26129,289547,203261
1630674792660,26137,289545,203276
1630674792670,26139,289580,203273
1630674792680,26142,289519,203283
1630674792690,26144,289566,203290
1630674792700,26153,289554,203262
1630674792710,26153,289580,203283
1630674792720,26153,289589,203291
1630674792730,26166,289604,203283
1630674792740,26169,289601,203267
1630674792750,26187,289579,203285
1630674792760,26175,289654,203294
1630674792770,26182,289603,203285
1630674792780,26186,289626,203296
1630674792790,26193,289613,203305
1630674792800,26201,289612,203284
1630674792810,26202,289627,203293
1630674792820,26204,289624,203302
1630674792830,26209,289622,203294
1630674792840,26212,289654,203317
1630674792850,26228,289687,203288
1630674792860,26228,289653,203302
1630674792870,26229,289665,203323
1630674792880,26243,289682,203333
1630674792890,26246,289652,203307
1630674792900,26253,289703,203331
1630674792910,26262,289675,203336
1630674792920,26267,289689,203332
1630674792930,26270,289675,203354
1630674792940,26273,289723,203338
1630674792950,26281,289727,203355
1630674792960,26288,289743,203358
1630674792970,26286,289733,203364
1630674792980,26299,289737,203360
1630674792990,26308,289801,203357
1630674793000,26309,289745,203367
1630674793010,26317,289764,203366
1630674793020,26325,289760,203378
1630674793030,26329,289791,203374
1630674793040,26349,289758,203408
1630674793050,26336,289740,203415
1630674793060,26344,289748,203401
1630674793070,26332,289709,203423
1630674793080,26330,289684,203427
1630674793090,26323,289653,203430
1630674793100,26315,289665,203394
1630674793110,26312,289671,203379
1630674793120,26319,289654,203402
1630674793130,26316,289643,203379
1630674793140,26317,289664,203392
1630674793150,26309,289695,203401
1630674793160,26304,289636,203410
1630674793170,26301,289595,203404
1630674793180,26297,289626,203408
1630674793190,26305,289600,203396
1630674793200,26299,289619,203394
1630674793210,26294,289603,203405
1630674793220,26284,289555,203403
1630674793230,26290,289589,203410
1630674793240,26295,289561,203396
1630674793250,26298,289597,203396
1630674793260,26294,289604,203404
1630674793270,26303,289615,203399
1630674793280,26311,289582,203411
1630674793290,26306,289607,203372
1630674793300,26306,289604,203399
1630674793310,26308,289618,203411
1630674793320,26305,289616,203407
1630674793330,26311,289585,203406
1630674793340,26313,289588,203421
1630674793350,26315,289604,203401
1630674793360,26319,289606,203417
1630674793370,26326,289613,203396
1630674793380,26317,289619,203433
1630674793390,26332,289585,203412
1630674793400,26329,289609,203413
1630674793410,26335,289627,203419
1630674793420,26336,289622,203412
1630674793430,26344,289625,203415
1630674793440,26343,289686,203403
1630674793450,26353,289626,203423
1630674793460,26347,289625,203410
1630674793470,26351,289641,203403
1630674793480,26356,289673,203402
1630674793490,26356,289657,203406
1630674793500,26365,289622,203395
1630674793510,26364,289638,203415
1630674793520,26377,289652,203408
1630674793530,26382,289666,203404
1630674793540,26388,289667,203432
1630674793550,26379,289665,203418
1630674793560,26391,289669,203419
1630674793570,26393,289704,203406
1630674793580,26405,289695,203402
1630674793590,26397,289687,203410
1630674793600,26412,289685,203400
1630674793610,26409,289702,203409
1630674793620,26411,289661,203390
1630674793630,26419,289690,203399
1630674793640,26424,289717,203405
1630674793650,26430,289690,203385
1630674793660,26428,289726,203402
1630674793670,26441,289717,203385
1630674793680,26443,289774,203415
1630674793690,26451,289748,203387
1630674793700,26462,289773,203377
1630674793710,26464,289773,203392
1630674793720,26464,289749,203403
1630674793730,26466,289796,203396
1630674793740,26476,289747,203388
1630674793750,26473,289777,203384
1630674793760,26480,289807,203382
1630674793770,26477,289810,203367
1630674793780,26484,289790,203389
1630674793790,26490,289819,203376
1630674793800,26497,289826,203368
1630674793810,26499,289823,203379
1630674793820,26506,289806,203414
1630674793830,26514,289850,203392
1630674793840,26527,289831,203411
1630674793850,26538,289868,203409
1630674793860,26544,289861,203436
1630674793870,26544,289870,203439
1630674793880,26555,289897,203494
1630674793890,26557,289837,203490
1630674793900,26557,289838,203469
1630674793910,26553,289826,203510
1630674793920,26554,289826,203500
1630674793930,26554,289779,203475
1630674793940,26548,289775,203471
1630674793950,26541,289811,203481
1630674793960,26546,289781,203491
1630674793970,26543,289742,203474
1630674793980,26538,289775,203480
1630674793990,26541,289772,203481
1630674794000,26539,289736,203497
1630674794010,26539,289737,203513
1630674794020,26530,289731,203450
1630674794030,26524,289725,203483
1630674794040,26528,289708,203489
1630674794050,26530,289712,203473
1630674794060,26521,289725,203459
1630674794070,26527,289699,203466
1630674794080,26525,289709,203474
1630674794090,26521,289712,203453
1630674794100,26530,289724,203466
1630674794110,26526,289702,203439
1630674794120,26528,289729,203466
1630674794130,26536,289692,203459
1630674794140,26532,289708,203460
1630674794150,26534,289685,203454
1630674794160,26534,289692,203457
1630674794170,26535,289692,203468
1630674794180,26535,289747,203468
1630674794190,26549,289730,203456
1630674794200,26545,289700,203466
1630674794210,26550,289730,203442
1630674794220,26545,289694,203452
1630674794230,26544,289708,203434
1630674794240,26551,289678,203442
1630674794250,26554,289734,203457
1630674794260,26555,289728,203461
1630674794270,26555,289724,203467
1630674794280,26553,289699,203431
1630674794290,26555,289747,203442
1630674794300,26561,289712,203446
1630674794310,26563,289707,203440
1630674794320,26572,289764,203449
1630674794330,26576,289706,203443
1630674794340,26575,289770,203439
1630674794350,26583,289739,203443
1630674794360,26582,289746,203423
1630674794370,26584,289723,203456
1630674794380,26589,289782,203438
1630674794390,26587,289744,203414
1630674794400,26591,289766,203440
1630674794410,26597,289802,203411
1630674794420,26597,289743,203414
1630674794430,26595,289805,203407
1630674794440,26607,289775,203417
1630674794450,26610,289751,203413
1630674794460,26614,289789,203445
1630674794470,26617,289775,203435
1630674794480,26617,289801,203416
1630674794490,26628,289761,203405
1630674794500,26622,289817,203419
1630674794510,26640,289823,203422
1630674794520,26641,289818,203420
1630674794530,26631,289830,203433
1630674794540,26646,289801,203424
1630674794550,26643,289834,203410
1630674794560,26652,289833,203409
1630674794570,26650,289861,203440
1630674794580,26657,289812,203443
1630674794590,26659,289860,203416
1630674794600,26662,289858,203414
1630674794610,26669,289893,203394
1630674794620,26675,289837,203386
1630674794630,26684,289888,203400
1630674794640,26688,289880,203415
1630674794650,26691,289879,203423
1630674794660,26704,289928,203437
1630674794670,26717,289925,203475
1630674794680,26709,289931,203454
1630674794690,26724,289937,203500
1630674794700,26718,289902,203477
1630674794710,26733,289917,203528
1630674794720,26729,289864,203526
1630674794730,26724,289852,203537
1630674794740,26720,289870,203535
1630674794750,26720,289835,203488
1630674794760,26710,289848,203492
1630674794770,26711,289823,203516
1630674794780,26707,289833,203506
1630674794790,26699,289838,203539
1630674794800,26696,289835,203509
1630674794810,26692,289827,203517
1630674794820,26683,289814,203533
1630674794830,26680,289781,203497
1630674794840,26670,289781,203502
1630674794850,26671,289775,203494
1630674794860,26669,289760,203506
1630674794870,26669,289802,203471
1630674794880,26651,289730,203495
1630674794890,26651,289755,203482
1630674794900,26644,289765,203474
1630674794910,26639,289723,203480
1630674794920,26644,289737,203481
1630674794930,26638,289717,203486
1630674794940,26641,289738,203452
1630674794950,26633,289730,203481
1630674794960,26629,289708,203481
1630674794970,26635,289769,203482
1630674794980,26624,289701,203488
1630674794990,26626,289705,203474
1630674795000,26619,289753,203470
1630674795010,26620,289740,203485
1630674795020,26617,289669,203471
1630674795030,26615,289709,203466
1630674795040,26619,289693,203458
1630674795050,26617,289704,203457
1630674795060,26618,289708,203448
1630674795070,26620,289711,203460
1630674795080,26616,289740,203436
1630674795090,26624,289726,203455
1630674795100,26618,289688,203477
1630674795110,26627,289725,203441
1630674795120,26618,289726,203456
1630674795130,26615,289732,203440
1630674795140,26627,289759,203464
1630674795150,26622,289772,203442
1630674795160,26620,289736,203475
1630674795170,26617,289768,203434
1630674795180,26620,289751,203445
1630674795190,26616,289740,203421
1630674795200,26619,289765,203436
1630674795210,26617,289744,203435
1630674795220,26616,289763,203410
1630674795230,26620,289737,203420
1630674795240,26619,289763,203414
1630674795250,26619,289755,203428
1630674795260,26614,289744,203402
1630674795270,26620,289742,203422
1630674795280,26622,289717,203409
1630674795290,26627,289756,203399
1630674795300,26629,289789,203395
1630674795310,26630,289744,203392
1630674795320,26631,289774,203393
1630674795330,26621,289796,203381
1630674795340,26628,289784,203367
1630674795350,26633,289794,203375
1630674795360,26632,289737,203383
1630674795370,26628,289763,203393
1630674795380,26635,289770,203362
1630674795390,26636,289747,203370
1630674795400,26635,289784,203390
1630674795410,26630,289782,203353
1630674795420,26639,289753,203360
1630674795430,26634,289797,203372
1630674795440,26637,289752,203367
1630674795450,26650,289790,203358
1630674795460,26639,289833,203363
1630674795470,26648,289788,203375
1630674795480,26657,289840,203387
1630674795490,26662,289792,203395
1630674795500,26663,289825,203425
1630674795510,26676,289801,203428
1630674795520,26660,289801,203446
1630674795530,26662,289795,203449
1630674795540,26653,289757,203411
1630674795550,26638,289693,203434
1630674795560,26631,289736,203429
1630674795570,26617,289690,203431
1630674795580,26611,289726,203425
1630674795590,26601,289733,203410
1630674795600,26593,289716,203421
1630674795610,26588,289677,203408
1630674795620,26577,289657,203418
1630674795630,26575,289649,203402
1630674795640,26565,289684,203414
1630674795650,26540,289602,203398
1630674795660,26545,289610,203389
1630674795670,26534,289602,203403
1630674795680,26519,289590,203380
1630674795690,26512,289582,203365
1630674795700,26504,289613,203366
1630674795710,26495,289597,203378
1630674795720,26488,289624,203373
1630674795730,26484,289591,203372
1630674795740,26480,289588,203339
1630674795750,26471,289583,203356
1630674795760,26469,289544,203349
1630674795770,26467,289558,203368
1630674795780,26465,289621,203337
1630674795790,26462,289533,203339
1630674795800,26449,289560,203326
1630674795810,26444,289563,203337
1630674795820,26440,289541,203351
1630674795830,26444,289498,203338
1630674795840,26434,289553,203303
1630674795850,26431,289535,203332
1630674795860,26427,289529,203304
1630674795870,26425,289482,203314
1630674795880,26420,289521,203294
1630674795890,26422,289531,203295
1630674795900,26416,289529,203302
1630674795910,26420,289471,203300
1630674795920,26412,289544,203290
1630674795930,26403,289558,203269
1630674795940,26410,289513,203289
1630674795950,26413,289506,203300
1630674795960,26404,289500,203290
1630674795970,26401,289521,203263
1630674795980,26399,289528,203292
1630674795990,26403,289533,203283
1630674796000,26401,289531,203267
1630674796010,26404,289520,203261
1630674796020,26402,289537,203285
1630674796030,26394,289570,203268
1630674796040,26401,289548,203271
1630674796050,26406,289556,203278
1630674796060,26396,289539,203276
1630674796070,26399,289530,203268
1630674796080,26418,289552,203266
1630674796090,26398,289528,203260
1630674796100,26397,289606,203267
1630674796110,26400,289500,203233
1630674796120,26402,289600,203245
1630674796130,26401,289546,203228
1630674796140,26406,289572,203238
1630674796150,26401,289519,203240
1630674796160,26396,289544,203234
1630674796170,26404,289547,203213
1630674796180,26402,289531,203240
1630674796190,26404,289545,203233
1630674796200,26401,289525,203209
1630674796210,26402,289572,203219
1630674796220,26398,289568,203205
1630674796230,26399,289551,203198
1630674796240,26397,289594,203190
1630674796250,26401,289524,203194
1630674796260,26401,289550,203166
1630674796270,26414,289547,203159
1630674796280,26417,289575,203172
1630674796290,26414,289506,203192
1630674796300,26409,289527,203201
1630674796310,26417,289515,203173
1630674796320,26401,289483,203204
1630674796330,26395,289479,203201
1630674796340,26373,289437,203192
1630674796350,26361,289433,203170
1630674796360,26350,289406,203167
1630674796370,26341,289322,203183
1630674796380,26328,289374,203151
1630674796390,26313,289331,203136
1630674796400,26300,289287,203118
1630674796410,26290,289280,203118
1630674796420,26281,289255,203106
1630674796430,26265,289246,203089
1630674796440,26251,289184,203059
1630674796450,26234,289128,203041
1630674796460,26214,289142,203030
1630674796470,26203,289102,202989
1630674796480,26191,289068,202967
1630674796490,26176,289072,202932
1630674796500,26156,289038,202928
1630674796510,26147,289027,202913
1630674796520,26135,289029,202885
1630674796530,26123,288997,202875
1630674796540,26119,288969,202857
1630674796550,26109,288967,202855
1630674796560,26099,288983,202820
1630674796570,26092,288942,202818
1630674796580,26085,288928,202807
1630674796590,26076,288925,202787
1630674796600,26069,288929,202798
1630674796610,26068,288871,202756
1630674796620,26046,288864,202770
1630674796630,26046,288869,202756
1630674796640,26045,288822,202739
1630674796650,26036,288828,202714
1630674796660,26033,288830,202743
1630674796670,26029,288840,202713
1630674796680,26022,288865,202739
1630674796690,26025,288867,202731
1630674796700,26021,288862,202703
1630674796710,26024,288825,202741
1630674796720,26018,288817,202723
1630674796730,26018,288836,202717
1630674796740,26018,288876,202729
1630674796750,26016,288862,202718
1630674796760,26017,288843,202728
1630674796770,26017,288817,202728
1630674796780,26016,288861,202738
1630674796790,26009,288831,202718
1630674796800,26011,288853,202712
1630674796810,26019,288861,202757
1630674796820,26018,288850,202733
1630674796830,26018,288880,202739
1630674796840,26026,288891,202756
1630674796850,26032,288869,202781
1630674796860,26027,288878,202762
1630674796870,26027,288882,202792
1630674796880,26030,288922,202776
1630674796890,26036,288909,202798
1630674796900,26041,288913,202796
1630674796910,26046,288949,202802
1630674796920,26052,288935,202816
1630674796930,26051,288942,202816
1630674796940,26049,288936,202787
1630674796950,26059,288937,202830
1630674796960,26056,288948,202830
1630674796970,26053,288929,202821
1630674796980,26060,288949,202841
1630674796990,26066,288939,202803
1630674797000,26062,288947,202832
1630674797010,26070,288924,202845
1630674797020,26070,288997,202876
1630674797030,26076,288961,202856
1630674797040,26076,288995,202850
1630674797050,26077,288981,202866
1630674797060,26085,289002,202874
1630674797070,26088,288998,202899
1630674797080,26094,288998,202911
1630674797090,26094,289018,202933
1630674797100,26078,289007,202936
1630674797110,26078,288963,202928
1630674797120,26070,288963,202927
1630674797130,26046,288917,202932
1630674797140,26032,288895,202927
1630674797150,26015,288870,202921
1630674797160,26006,288853,202906
1630674797170,25987,288878,202876
1630674797180,25984,288823,202898
1630674797190,25978,288831,202879
1630674797200,25969,288797,202880
1630674797210,25948,288789,202870
1630674797220,25936,288808,202848
1630674797230,25926,288741,202851
1630674797240,25927,288772,202887
1630674797250,25909,288748,202864
1630674797260,25891,288719,202845
1630674797270,25895,288716,202855
1630674797280,25887,288731,202820
1630674797290,25876,288708,202817
1630674797300,25873,288684,202808
1630674797310,25870,288691,202799
1630674797320,25860,288681,202810
1630674797330,25860,288696,202810
1630674797340,25860,288686,202788
1630674797350,25848,288655,202784
1630674797360,25845,288661,202798
1630674797370,25839,288666,202775
1630674797380,25833,288628,202769
1630674797390,25827,288641,202782
1630674797400,25829,288666,202787
1630674797410,25828,288625,202773
1630674797420,25825,288648,202743
1630674797430,25814,288633,202756
1630674797440,25824,288618,202736
1630674797450,25814,288637,202756
1630674797460,25812,288637,202745
1630674797470,25814,288611,202719
1630674797480,25815,288603,202724
1630674797490,25808,288616,202715
1630674797500,25814,288585,202711
1630674797510,25808,288608,202709
1630674797520,25814,288616,202695
1630674797530,25811,288609,202686
1630674797540,25811,288575,202681
1630674797550,25811,288612,202675
1630674797560,25810,288593,202677
1630674797570,25817,288606,202673
1630674797580,25809,288599,202661
1630674797590,25812,288576,202653
1630674797600,25815,288595,202664
1630674797610,25817,288632,202654
1630674797620,25820,288645,202653
1630674797630,25827,288577,202662
1630674797640,25824,288625,202639
1630674797650,25827,288613,202646
1630674797660,25840,288638,202658
1630674797670,25838,288618,202634
1630674797680,25846,288632,202670
1630674797690,25851,288623,202643
1630674797700,25857,288641,202671
1630674797710,25860,288673,202680
1630674797720,25856,288661,202645
1630674797730,25870,288663,202628
1630674797740,25870,288679,202648
1630674797750,25878,288673,202637
1630674797760,25871,288643,202651
1630674797770,25876,288635,202656
1630674797780,25874,288623,202595
1630674797790,25881,288626,202566
1630674797800,25886,288656,202574
1630674797810,25884,288673,202587
1630674797820,25889,288633,202572
1630674797830,25891,288651,202581
1630674797840,25901,288657,202587
1630674797850,25898,288649,202610
1630674797860,25894,288629,202622
1630674797870,25891,288621,202597
1630674797880,25883,288565,202633
1630674797890,25876,288575,202606
1630674797900,25869,288558,202595
1630674797910,25861,288534,202596
1630674797920,25847,288526,202587
1630674797930,25848,288521,202571
1630674797940,25835,288553,202582
1630674797950,25825,288506,202579
1630674797960,25828,288501,202596
1630674797970,25823,288463,202597
1630674797980,25822,288434,202555
1630674797990,25810,288500,202595
1630674798000,25802,288475,202561
1630674798010,25797,288468,202586
1630674798020,25793,288490,202576
1630674798030,25778,288455,202580
1630674798040,25778,288412,202582
1630674798050,25778,288452,202564
1630674798060,25787,288448,202560
1630674798070,25791,288449,202578
1630674798080,25783,288437,202578
1630674798090,25786,288434,202565
1630674798100,25776,288436,202573
1630674798110,25794,288472,202582
1630674798120,25790,288423,202588
1630674798130,25785,288448,202593
1630674798140,25790,288431,202598
1630674798150,25782,288486,202585
1630674798160,25783,288456,202576
1630674798170,25789,288438,202586
1630674798180,25796,288430,202576
1630674798190,25794,288457,202577
1630674798200,25802,288430,202578
1630674798210,25805,288463,202566
1630674798220,25808,288510,202589
1630674798230,25808,288479,202610
1630674798240,25818,288481,202605
1630674798250,25824,288508,202613
1630674798260,25817,288493,202596
1630674798270,25825,288483,202600
1630674798280,25833,288472,202605
1630674798290,25831,288502,202611
1630674798300,25846,288521,202602
1630674798310,25850,288479,202603
1630674798320,25847,288524,202587
1630674798330,25854,288508,202593
1630674798340,25857,288536,202588
1630674798350,25862,288565,202594
1630674798360,25869,288537,202607
1630674798370,25869,288575,202605
1630674798380,25868,288542,202597
1630674798390,25888,288550,202607
1630674798400,25889,288587,202604
1630674798410,25899,288583,202592
1630674798420,25905,288577,202619
1630674798430,25905,288558,202613
1630674798440,25911,288632,202601
1630674798450,25919,288616,202603
1630674798460,25926,288612,202598
1630674798470,25933,288645,202606
1630674798480,25933,288649,202635
1630674798490,25941,288634,202582
1630674798500,25946,288646,202601
1630674798510,25955,288644,202601
1630674798520,25959,288637,202609
1630674798530,25964,288679,202598
1630674798540,25976,288683,202615
1630674798550,25976,288704,202619
1630674798560,25984,288690,202575
1630674798570,25993,288711,202618
1630674798580,26003,288730,202595
1630674798590,26001,288745,202626
1630674798600,26018,288764,202636
1630674798610,26033,288709,202639
1630674798620,26043,288759,202654
1630674798630,26043,288731,202688
1630674798640,26043,288784,202701
1630674798650,26048,288730,202699
1630674798660,26038,288704,202715
1630674798670,26041,288713,202704
1630674798680,26040,288752,202686
1630674798690,26040,288718,202702
1630674798700,26032,288669,202688
1630674798710,26032,288685,202742
1630674798720,26042,288707,202726
1630674798730,26050,288711,202706
1630674798740,26041,288683,202710
1630674798750,26045,288693,202710
1630674798760,26044,288681,202716
1630674798770,26039,288703,202737
1630674798780,26033,288690,202715
1630674798790,26031,288670,202712
1630674798800,26029,288677,202729
1630674798810,26024,288698,202734
1630674798820,26023,288698,202711
1630674798830,26025,288659,202726
1630674798840,26032,288685,202718
1630674798850,26031,288621,202712
1630674798860,26038,288666,202688
1630674798870,26035,288654,202702
1630674798880,26054,288688,202709
1630674798890,26047,288711,202717
1630674798900,26048,288676,202735
1630674798910,26059,288654,202733
1630674798920,26048,288677,202720
1630674798930,26062,288674,202711
1630674798940,26063,288712,202692
1630674798950,26068,288694,202706
1630674798960,26071,288654,202710
1630674798970,26063,288710,202708
1630674798980,26070,288711,202702
1630674798990,26077,288724,202722
1630674799000,26080,288697,202710
1630674799010,26082,288729,202708
1630674799020,26096,288721,202712
1630674799030,26101,288681,202728
1630674799040,26104,288774,202735
1630674799050,26109,288715,202725
1630674799060,26112,288741,202717
1630674799070,26117,288734,202735
1630674799080,26123,288761,202720
1630674799090,26130,288764,202730
1630674799100,26135,288789,202714
1630674799110,26140,288821,202720
1630674799120,26151,288817,202726
1630674799130,26156,288814,202729
1630674799140,26160,288790,202733
1630674799150,26165,288805,202731
1630674799160,26170,288859,202737
1630674799170,26178,288835,202745
1630674799180,26178,288898,202749
1630674799190,26191,288855,202717
1630674799200,26202,288852,202758
1630674799210,26204,288894,202741
1630674799220,26214,288889,202740
1630674799230,26216,288867,202757
1630674799240,26227,288896,202754
1630674799250,26232,288884,202755
1630674799260,26242,288931,202770
1630674799270,26245,288948,202769
1630674799280,26258,288907,202761
1630674799290,26258,288964,202759
1630674799300,26268,288964,202741
1630674799310,26274,288993,202754
1630674799320,26280,288948,202751
1630674799330,26283,288968,202766
1630674799340,26294,288986,202734
1630674799350,26297,288990,202754
1630674799360,26311,288987,202770
1630674799370,26309,289013,202787
1630674799380,26309,289012,202781
1630674799390,26327,289038,202813
1630674799400,26341,289082,202852
1630674799410,26350,289055,202845
1630674799420,26356,289044,202870
1630674799430,26358,289042,202883
1630674799440,26366,289057,202909
1630674799450,26365,289034,202930
1630674799460,26376,289048,202919
1630674799470,26367,289037,202917
1630674799480,26365,289053,202923
1630674799490,26373,289073,202947
1630674799500,26375,289062,202941
1630674799510,26366,289074,202962
1630674799520,26383,289038,202967
1630674799530,26386,289067,202971
1630674799540,26384,289036,202980
1630674799550,26389,289086,202985
1630674799560,26393,289111,203013
1630674799570,26395,289056,202991
1630674799580,26394,289056,203006
1630674799590,26401,289103,203019
1630674799600,26402,289126,203053
1630674799610,26402,289154,203043
1630674799620,26412,289116,203065
1630674799630,26416,289127,203088
1630674799640,26427,289170,203085
1630674799650,26427,289191,203097
1630674799660,26433,289162,203110
1630674799670,26433,289214,203150
1630674799680,26438,289157,203112
1630674799690,26444,289187,203113
1630674799700,26446,289165,203128
1630674799710,26443,289179,203121
1630674799720,26450,289217,203131
1630674799730,26460,289189,203124
1630674799740,26459,289181,203126
1630674799750,26467,289216,203124
1630674799760,26471,289209,203116
1630674799770,26471,289237,203136
1630674799780,26480,289222,203151
1630674799790,26479,289214,203134
1630674799800,26485,289235,203140
1630674799810,26485,289251,203149
1630674799820,26490,289250,203153
1630674799830,26493,289285,203164
1630674799840,26493,289275,203137
1630674799850,26502,289259,203172
1630674799860,26505,289273,203164
1630674799870,26515,289324,203159
1630674799880,26513,289289,203161
1630674799890,26517,289315,203199
1630674799900,26529,289319,203178
1630674799910,26531,289355,203165
1630674799920,26538,289353,203179
1630674799930,26541,289343,203186
1630674799940,26551,289347,203193
1630674799950,26552,289335,203200
1630674799960,26564,289394,203211
1630674799970,26562,289419,203220
1630674799980,26574,289420,203224
1630674799990,26589,289442,203250
1630674800000,26576,289435,203253
1630674800010,26593,289515,203265
1630674800020,26602,289488,203254
1630674800030,26601,289535,203307
1630674800040,26615,289463,203312
1630674800050,26621,289510,203319
1630674800060,26625,289535,203301
1630674800070,26630,289569,203317
1630674800080,26644,289577,203315
1630674800090,26639,289544,203332
1630674800100,26643,289601,203316
1630674800110,26647,289568,203338
1630674800120,26658,289572,203370
1630674800130,26661,289593,203333
1630674800140,26668,289594,203371
1630674800150,26683,289626,203392
1630674800160,26692,289647,203408
1630674800170,26701,289630,203439
1630674800180,26700,289659,203462
1630674800190,26713,289668,203473
1630674800200,26717,289690,203499
1630674800210,26712,289678,203505
1630674800220,26714,289633,203497
1630674800230,26707,289634,203502
1630674800240,26713,289632,203494
1630674800250,26712,289673,203507
1630674800260,26711,289695,203531
1630674800270,26707,289632,203522
1630674800280,26713,289678,203542
1630674800290,26712,289644,203532
1630674800300,26718,289643,203539
1630674800310,26715,289650,203571
1630674800320,26715,289686,203550
1630674800330,26714,289676,203554
1630674800340,26715,289678,203560
1630674800350,26700,289679,203575
1630674800360,26703,289648,203564
1630674800370,26696,289649,203565
1630674800380,26694,289663,203542
1630674800390,26703,289671,203568
1630674800400,26704,289712,203579
1630674800410,26707,289721,203564
1630674800420,26708,289715,203574
1630674800430,26710,289704,203570
1630674800440,26714,289699,203576
1630674800450,26706,289751,203577
1630674800460,26711,289712,203552
1630674800470,26710,289725,203597
1630674800480,26704,289704,203549
1630674800490,26705,289737,203556
1630674800500,26706,289687,203530
1630674800510,26711,289739,203569
1630674800520,26693,289707,203520
1630674800530,26702,289718,203534
1630674800540,26697,289734,203522
1630674800550,26701,289702,203526
1630674800560,26696,289742,203530
1630674800570,26697,289764,203514
1630674800580,26697,289782,203507
1630674800590,26694,289713,203476
1630674800600,26693,289729,203478
1630674800610,26692,289736,203490
1630674800620,26697,289732,203487
1630674800630,26697,289770,203490
1630674800640,26695,289769,203465
1630674800650,26714,289740,203483
1630674800660,26699,289763,203458
1630674800670,26696,289743,203460
1630674800680,26706,289762,203449
1630674800690,26702,289758,203472
1630674800700,26708,289761,203455
1630674800710,26711,289726,203444
1630674800720,26709,289809,203477
1630674800730,26713,289790,203464
1630674800740,26714,289762,203458
1630674800750,26710,289754,203441
1630674800760,26720,289777,203448
1630674800770,26713,289782,203446
1630674800780,26722,289784,203444
1630674800790,26722,289820,203421
1630674800800,26725,289821,203432
1630674800810,26718,289801,203429
1630674800820,26718,289855,203408
1630674800830,26721,289786,203414
1630674800840,26731,289753,203415
1630674800850,26724,289811,203412
1630674800860,26731,289777,203405
1630674800870,26735,289802,203393
1630674800880,26725,289834,203382
1630674800890,26725,289828,203371
1630674800900,26725,289760,203366
1630674800910,26727,289763,203333
1630674800920,26722,289765,203340
1630674800930,26724,289747,203323
1630674800940,26730,289755,203341
1630674800950,26726,289721,203317
1630674800960,26726,289668,203337
1630674800970,26715,289702,203300
1630674800980,26720,289651,203310
1630674800990,26709,289665,203297
1630674801000,26694,289635,203277
1630674801010,26687,289653,203268
1630674801020,26682,289610,203263
1630674801030,26669,289609,203237
1630674801040,26667,289583,203227
1630674801050,26655,289567,203231
1630674801060,26648,289538,203209
1630674801070,26636,289531,203188
1630674801080,26624,289530,203190
1630674801090,26616,289498,203163
1630674801100,26610,289480,203180
1630674801110,26597,289453,203157
1630674801120,26584,289482,203162
1630674801130,26579,289465,203136
1630674801140,26578,289504,203150
1630674801150,26564,289440,203137
1630674801160,26561,289478,203144
1630674801170,26559,289459,203122
1630674801180,26566,289471,203132
1630674801190,26561,289494,203157
1630674801200,26556,289463,203175
1630674801210,26562,289482,203168
1630674801220,26561,289518,203193
1630674801230,26560,289518,203184
1630674801240,26556,289493,203177
1630674801250,26553,289513,203196
1630674801260,26559,289517,203202
1630674801270,26552,289507,203202
1630674801280,26553,289546,203224
1630674801290,26564,289544,203238
1630674801300,26566,289523,203230
1630674801310,26559,289529,203255
1630674801320,26563,289509,203266
1630674801330,26560,289556,203233
1630674801340,26553,289525,203250
1630674801350,26552,289543,203244
1630674801360,26556,289539,203264
1630674801370,26555,289547,203252
1630674801380,26552,289641,203249
1630674801390,26548,289592,203265
1630674801400,26552,289590,203254
1630674801410,26551,289567,203247
1630674801420,26550,289607,203232
1630674801430,26549,289550,203245
1630674801440,26553,289591,203232
1630674801450,26556,289597,203240
1630674801460,26541,289599,203245
1630674801470,26554,289595,203242
1630674801480,26555,289595,203248
1630674801490,26542,289619,203251
1630674801500,26553,289601,203250
1630674801510,26557,289651,203235
1630674801520,26554,289641,203240
1630674801530,26563,289653,203252
1630674801540,26561,289599,203225
1630674801550,26551,289612,203237
1630674801560,26562,289630,203246
1630674801570,26561,289653,203222
1630674801580,26564,289613,203248
1630674801590,26563,289639,203269
1630674801600,26566,289628,203259
1630674801610,26562,289663,203249
1630674801620,26564,289659,203244
1630674801630,26572,289661,203243
1630674801640,26583,289647,203244
1630674801650,26575,289689,203246
1630674801660,26582,289661,203246
1630674801670,26577,289676,203259
1630674801680,26578,289691,203245
1630674801690,26572,289644,203242
1630674801700,26584,289685,203241
1630674801710,26578,289675,203251
1630674801720,26586,289700,203271
1630674801730,26587,289717,203300
1630674801740,26593,289751,203295
1630674801750,26594,289705,203309
1630674801760,26597,289724,203312
1630674801770,26594,289683,203338
1630674801780,26583,289688,203332
1630674801790,26570,289628,203358
1630674801800,26571,289604,203307
1630674801810,26551,289643,203318
1630674801820,26543,289624,203328
1630674801830,26527,289607,203304
1630674801840,26518,289619,203331
1630674801850,26509,289566,203316
1630674801860,26506,289583,203291
1630674801870,26492,289574,203334
1630674801880,26480,289532,203307
1630674801890,26467,289570,203318
1630674801900,26461,289528,203326
1630674801910,26443,289546,203335
1630674801920,26437,289508,203321
1630674801930,26426,289490,203285
1630674801940,26413,289480,203286
1630674801950,26397,289456,203263
1630674801960,26393,289418,203279
1630674801970,26389,289483,203268
1630674801980,26385,289443,203302
1630674801990,26380,289465,203288
1630674802000,26373,289434,203269
1630674802010,26375,289464,203290
1630674802020,26375,289460,203285
1630674802030,26363,289397,203267
1630674802040,26349,289416,203276
1630674802050,26348,289437,203271
1630674802060,26338,289390,203237
1630674802070,26339,289388,203244
1630674802080,26331,289389,203261
1630674802090,26328,289429,203264
1630674802100,26324,289393,203252
1630674802110,26329,289407,203245
1630674802120,26323,289401,203251
1630674802130,26312,289430,203240
1630674802140,26318,289407,203239
1630674802150,26309,289418,203238
1630674802160,26309,289374,203224
1630674802170,26306,289375,203256
1630674802180,26299,289396,203229
1630674802190,26299,289413,203234
1630674802200,26296,289411,203217
1630674802210,26298,289424,203244
1630674802220,26293,289379,203230
1630674802230,26292,289387,203242
1630674802240,26296,289380,203219
1630674802250,26294,289410,203229
1630674802260,26301,289438,203219
1630674802270,26296,289411,203234
1630674802280,26301,289430,203225
1630674802290,26291,289416,203221
1630674802300,26295,289432,203213
1630674802310,26292,289459,203224
1630674802320,26290,289408,203224
1630674802330,26286,289431,203208
1630674802340,26296,289407,203219
1630674802350,26290,289404,203197
1630674802360,26292,289428,203206
1630674802370,26285,289402,203219
1630674802380,26286,289445,203226
1630674802390,26284,289432,203222
1630674802400,26289,289446,203205
1630674802410,26291,289401,203209
1630674802420,26292,289412,203211
1630674802430,26296,289439,203203
1630674802440,26302,289439,203214
1630674802450,26286,289444,203206
1630674802460,26297,289436,203203
1630674802470,26290,289458,203208
1630674802480,26298,289473,203188
1630674802490,26300,289448,203205
1630674802500,26297,289461,203167
1630674802510,26297,289478,203171
1630674802520,26294,289444,203172
1630674802530,26296,289461,203192
1630674802540,26299,289462,203213
1630674802550,26298,289435,203228
1630674802560,26294,289401,203243
1630674802570,26283,289397,203235
1630674802580,26273,289389,203230
1630674802590,26253,289374,203211
1630674802600,26230,289381,203223
1630674802610,26221,289355,203188
1630674802620,26199,289329,203178
1630674802630,26184,289292,203202
1630674802640,26181,289297,203168
1630674802650,26170,289219,203202
1630674802660,26154,289293,203192
1630674802670,26147,289268,203191
1630674802680,26133,289254,203203
1630674802690,26121,289242,203184
1630674802700,26106,289255,203194
1630674802710,26096,289202,203169
1630674802720,26084,289209,203195
1630674802730,26071,289183,203156
1630674802740,26061,289198,203164
1630674802750,26058,289184,203186
1630674802760,26049,289166,203171
1630674802770,26059,289142,203160
1630674802780,26049,289162,203154
1630674802790,26038,289146,203163
1630674802800,26033,289184,203158
1630674802810,26034,289169,203179
1630674802820,26016,289131,203160
1630674802830,26016,289146,203146
1630674802840,26019,289157,203164
1630674802850,26005,289155,203169
1630674802860,25998,289142,203149
1630674802870,25999,289116,203187
1630674802880,25995,289158,203160
1630674802890,25993,289138,203147
1630674802900,25989,289084,203162
1630674802910,25980,289137,203134
1630674802920,25988,289118,203168
1630674802930,25984,289104,203136
1630674802940,25986,289128,203150
1630674802950,25986,289103,203155
1630674802960,25981,289113,203150
1630674802970,25982,289107,203174
1630674802980,25980,289124,203156
1630674802990,25978,289113,203148
1630674803000,25983,289122,203149
1630674803010,25982,289117,203169
1630674803020,25979,289161,203147
1630674803030,25976,289167,203147
1630674803040,25975,289133,203149
1630674803050,25979,289114,203145
1630674803060,25978,289142,203168
1630674803070,25984,289161,203157
1630674803080,25988,289183,203143
1630674803090,25978,289148,203143
1630674803100,25986,289185,203143
1630674803110,25980,289160,203150
1630674803120,25990,289162,203141
1630674803130,25989,289158,203147
1630674803140,26000,289200,203149
1630674803150,25991,289178,203147
1630674803160,26000,289190,203147
1630674803170,25995,289186,203163
1630674803180,26004,289231,203148
1630674803190,26004,289212,203168
1630674803200,26008,289206,203160
1630674803210,26009,289227,203160
1630674803220,26009,289218,203145
1630674803230,26012,289246,203158
1630674803240,26025,289225,203152
1630674803250,26019,289185,203160
1630674803260,26016,289272,203139
1630674803270,26029,289236,203149
1630674803280,26040,289225,203161
1630674803290,26039,289252,203159
1630674803300,26048,289241,203171
1630674803310,26051,289254,203168
1630674803320,26057,289291,203199
1630674803330,26063,289264,203194
1630674803340,26066,289312,203225
1630674803350,26065,289284,203232
1630674803360,26061,289257,203232
1630674803370,26046,289208,203234
1630674803380,26035,289236,203237
1630674803390,26026,289222,203218
1630674803400,26018,289195,203233
1630674803410,26001,289185,203224
1630674803420,25983,289182,203246
1630674803430,25993,289123,203220
1630674803440,25976,289144,203210
1630674803450,25966,289153,203202
1630674803460,25958,289076,203220
1630674803470,25951,289109,203204
1630674803480,25940,289053,203214
1630674803490,25933,289119,203209
1630674803500,25926,289052,203191
1630674803510,25914,289067,203196
1630674803520,25906,289045,203212
1630674803530,25899,289011,203191
1630674803540,25899,289047,203191
1630674803550,25896,289032,203188
1630674803560,25905,289051,203194
1630674803570,25899,289036,203164
1630674803580,25892,289023,203193
1630674803590,25913,289053,203194
1630674803600,25887,289075,203215
1630674803610,25897,289041,203204
1630674803620,25902,289071,203215
1630674803630,25894,289023,203210
1630674803640,25901,289052,203210
1630674803650,25898,289030,203197
1630674803660,25900,289033,203232
1630674803670,25900,289022,203245
1630674803680,25915,289029,203223
1630674803690,25905,289025,203226
1630674803700,25906,289022,203235
1630674803710,25905,289048,203226
1630674803720,25912,289038,203213
1630674803730,25911,289046,203218
1630674803740,25911,289021,203220
1630674803750,25917,289062,203210
1630674803760,25909,289077,203192
1630674803770,25919,289012,203185
1630674803780,25919,289032,203176
1630674803790,25924,289048,203179
1630674803800,25913,289069,203181
1630674803810,25917,289053,203184
1630674803820,25919,289034,203184
1630674803830,25924,289053,203177
1630674803840,25930,289098,203177
1630674803850,25934,289128,203180
1630674803860,25944,289085,203186
1630674803870,25945,289093,203184
1630674803880,25957,289119,203171
1630674803890,25955,289100,203205
1630674803900,25967,289088,203193
1630674803910,25979,289114,203186
1630674803920,25978,289119,203179
1630674803930,25981,289113,203197
1630674803940,25991,289165,203222
1630674803950,25990,289139,203237
1630674803960,26003,289153,203239
1630674803970,26011,289156,203222
1630674803980,26015,289178,203237
1630674803990,26023,289194,203252
1630674804000,26030,289193,203240
1630674804010,26036,289237,203239
1630674804020,26046,289215,203234
1630674804030,26048,289244,203263
1630674804040,26059,289180,203224
1630674804050,26074,289249,203260
1630674804060,26065,289275,203249
1630674804070,26086,289321,203264
1630674804080,26092,289266,203256
1630674804090,26094,289278,203284
1630674804100,26095,289356,203272
1630674804110,26110,289327,203290
1630674804120,26123,289336,203285
1630674804130,26136,289327,203328
1630674804140,26139,289298,203334
1630674804150,26150,289379,203361
1630674804160,26153,289365,203381
1630674804170,26158,289322,203394
1630674804180,26153,289326,203388
1630674804190,26154,289270,203396
1630674804200,26140,289300,203402
1630674804210,26140,289295,203387
1630674804220,26146,289290,203395
1630674804230,26137,289281,203397
1630674804240,26138,289288,203413
1630674804250,26138,289292,203413
1630674804260,26138,289267,203410
1630674804270,26125,289268,203389
1630674804280,26131,289278,203410
1630674804290,26125,289234,203420
1630674804300,26129,289262,203419
1630674804310,26127,289249,203411
1630674804320,26123,289256,203408
1630674804330,26117,289216,203386
1630674804340,26115,289244,203391
1630674804350,26116,289251,203380
1630674804360,26124,289283,203383
1630674804370,26125,289237,203397
1630674804380,26122,289232,203380
1630674804390,26135,289267,203400
1630674804400,26138,289239,203409
1630674804410,26137,289255,203388
1630674804420,26144,289244,203418
1630674804430,26140,289245,203396
1630674804440,26147,289237,203390
1630674804450,26139,289271,203422
1630674804460,26149,289258,203402
1630674804470,26151,289264,203416
1630674804480,26156,289259,203404
1630674804490,26160,289263,203423
1630674804500,26161,289311,203412
1630674804510,26167,289264,203404
1630674804520,26170,289260,203400
1630674804530,26172,289243,203384
1630674804540,26178,289272,203412
1630674804550,26191,289299,203406
1630674804560,26188,289299,203390
1630674804570,26198,289310,203398
1630674804580,26205,289337,203399
1630674804590,26208,289336,203399
1630674804600,26210,289319,203406
1630674804610,26219,289356,203426
1630674804620,26225,289379,203414
1630674804630,26232,289312,203418
1630674804640,26241,289360,203402
1630674804650,26243,289369,203430
1630674804660,26249,289357,203421
1630674804670,26256,289378,203431
1630674804680,26259,289382,203413
1630674804690,26263,289408,203387
1630674804700,26278,289413,203432
1630674804710,26279,289419,203428
1630674804720,26280,289430,203432
1630674804730,26294,289405,203433
1630674804740,26302,289372,203445
1630674804750,26309,289427,203452
1630674804760,26314,289451,203428
1630674804770,26316,289434,203460
1630674804780,26325,289438,203467
1630674804790,26334,289486,203454
1630674804800,26343,289466,203436
1630674804810,26349,289477,203436
1630674804820,26356,289521,203445
1630674804830,26359,289528,203478
1630674804840,26366,289539,203465
1630674804850,26375,289512,203484
1630674804860,26385,289551,203471
1630674804870,26396,289534,203476
1630674804880,26401,289571,203512
1630674804890,26410,289594,203521
1630674804900,26433,289615,203522
1630674804910,26441,289636,203505
1630674804920,26441,289613,203523
1630674804930,26451,289599,203520
1630674804940,26444,289646,203521
1630674804950,26455,289650,203548
1630674804960,26469,289632,203581
1630674804970,26482,289683,203635
1630674804980,26498,289702,203658
1630674804990,26502,289686,203669
1630674805000,26503,289679,203675
1630674805010,26506,289671,203674
1630674805020,26511,289651,203666
1630674805030,26514,289643,203665
1630674805040,26513,289694,203680
1630674805050,26520,289634,203674
1630674805060,26521,289631,203680
1630674805070,26517,289621,203660
1630674805080,26526,289629,203682
1630674805090,26524,289604,203692
1630674805100,26523,289634,203684
1630674805110,26527,289669,203696
1630674805120,26533,289606,203677
1630674805130,26524,289624,203700
1630674805140,26526,289615,203660
1630674805150,26527,289616,203678
1630674805160,26527,289614,203656
1630674805170,26529,289585,203662
1630674805180,26528,289621,203662
1630674805190,26533,289645,203659
1630674805200,26537,289660,203643
1630674805210,26544,289659,203664
1630674805220,26537,289662,203663
1630674805230,26544,289660,203667
1630674805240,26551,289633,203674
1630674805250,26553,289668,203662
1630674805260,26554,289660,203664
1630674805270,26549,289669,203676
1630674805280,26551,289647,203635
1630674805290,26563,289670,203646
1630674805300,26560,289649,203644
1630674805310,26563,289635,203656
1630674805320,26577,289653,203663
1630674805330,26576,289652,203646
1630674805340,26581,289667,203624
1630674805350,26583,289689,203618
1630674805360,26587,289644,203634
1630674805370,26586,289693,203635
1630674805380,26592,289669,203633
1630674805390,26598,289721,203652
1630674805400,26598,289751,203636
1630674805410,26605,289729,203638
1630674805420,26611,289765,203614
1630674805430,26616,289697,203626
1630674805440,26616,289726,203627
1630674805450,26620,289725,203635
1630674805460,26624,289752,203636
1630674805470,26633,289746,203622
1630674805480,26635,289740,203643
1630674805490,26642,289758,203634
1630674805500,26643,289739,203626
1630674805510,26657,289780,203627
1630674805520,26666,289777,203624
1630674805530,26663,289787,203657
1630674805540,26669,289777,203652
1630674805550,26678,289783,203629
1630674805560,26678,289832,203640
1630674805570,26678,289804,203630
1630674805580,26685,289830,203645
1630674805590,26690,289816,203640
1630674805600,26693,289839,203619
1630674805610,26699,289814,203631
1630674805620,26708,289853,203644
1630674805630,26706,289862,203622
1630674805640,26716,289913,203639
1630674805650,26721,289904,203627
1630674805660,26739,289887,203616
1630674805670,26743,289895,203640
1630674805680,26733,289875,203653
1630674805690,26753,289859,203653
1630674805700,26745,289900,203642
1630674805710,26750,289892,203641
1630674805720,26758,289893,203637
1630674805730,26763,289945,203622
1630674805740,26770,289910,203637
1630674805750,26774,289935,203631
1630674805760,26770,289947,203650
1630674805770,26782,289963,203651
1630674805780,26796,289939,203667
1630674805790,26798,289918,203686
1630674805800,26807,289932,203697
1630674805810,26816,289933,203725
1630674805820,26814,289948,203714
1630674805830,26799,289887,203704
1630674805840,26811,289901,203715
1630674805850,26804,289914,203701
1630674805860,26801,289856,203676
1630674805870,26802,289871,203686
1630674805880,26802,289857,203698
1630674805890,26808,289877,203691
1630674805900,26803,289838,203666
1630674805910,26802,289854,203673
1630674805920,26801,289894,203689
1630674805930,26805,289892,203680
1630674805940,26800,289882,203669
1630674805950,26800,289889,203663
1630674805960,26796,289855,203677
1630674805970,26796,289849,203679
1630674805980,26792,289873,203669
1630674805990,26790,289833,203650
1630674806000,26792,289864,203652
1630674806010,26792,289881,203665
1630674806020,26800,289866,203641
1630674806030,26799,289893,203663
1630674806040,26800,289859,203644
1630674806050,26803,289881,203648
1630674806060,26801,289878,203666
1630674806070,26799,289854,203645
1630674806080,26811,289875,203628
1630674806090,26800,289866,203622
1630674806100,26798,289833,203640
1630674806110,26804,289880,203633
1630674806120,26805,289927,203639
1630674806130,26800,289866,203635
1630674806140,26815,289892,203639
1630674806150,26804,289894,203633
1630674806160,26807,289871,203636
1630674806170,26804,289926,203605
1630674806180,26808,289876,203622
1630674806190,26812,289890,203624
1630674806200,26814,289876,203603
1630674806210,26822,289920,203614
1630674806220,26816,289902,203618
1630674806230,26822,289865,203594
1630674806240,26821,289923,203605
1630674806250,26828,289939,203631
1630674806260,26820,289908,203601
1630674806270,26827,289911,203613
1630674806280,26829,289949,203594
1630674806290,26829,289967,203583
1630674806300,26831,289976,203576
1630674806310,26841,289949,203595
1630674806320,26837,289948,203586
1630674806330,26839,289978,203576
1630674806340,26838,289951,203584
1630674806350,26842,289943,203577
1630674806360,26850,289992,203583
1630674806370,26849,289974,203579
1630674806380,26850,290005,203581
1630674806390,26850,289958,203558
1630674806400,26861,289982,203560
1630674806410,26855,289994,203567
1630674806420,26859,290004,203578
1630674806430,26865,290014,203563
1630674806440,26869,290023,203554
1630674806450,26877,289985,203575
1630674806460,26876,290020,203524
1630674806470,26868,290011,203563
1630674806480,26882,290035,203562
1630674806490,26880,289993,203548
1630674806500,26885,290057,203551
1630674806510,26881,290029,203532
1630674806520,26888,290044,203550
1630674806530,26891,290028,203522
1630674806540,26897,290092,203544
1630674806550,26896,290062,203573
1630674806560,26908,290108,203550
1630674806570,26916,290074,203605
1630674806580,26920,290065,203605
1630674806590,26923,290048,203630
1630674806600,26926,290098,203611
1630674806610,26923,290047,203634
1630674806620,26916,290105,203630
1630674806630,26901,289995,203624
1630674806640,26890,290029,203615
1630674806650,26888,290031,203626
1630674806660,26900,289972,203594
1630674806670,26885,289996,203621
1630674806680,26886,289986,203590
1630674806690,26876,289978,203602
1630674806700,26872,289955,203587
1630674806710,26866,289958,203600
1630674806720,26856,289983,203568
1630674806730,26855,289985,203585
1630674806740,26839,289930,203581
1630674806750,26835,289948,203581
1630674806760,26824,289933,203560
1630674806770,26822,289922,203560
1630674806780,26808,289883,203550
1630674806790,26803,289940,203530
1630674806800,26800,289890,203537
1630674806810,26801,289938,203513
1630674806820,26806,289917,203513
1630674806830,26798,289900,203549
1630674806840,26793,289920,203508
1630674806850,26788,289909,203500
1630674806860,26782,289892,203512
1630674806870,26782,289886,203497
1630674806880,26785,289939,203476
1630674806890,26777,289894,203495
1630674806900,26770,289841,203483
1630674806910,26763,289877,203483
1630674806920,26764,289840,203478
1630674806930,26757,289840,203470
1630674806940,26757,289877,203463
1630674806950,26768,289905,203458
1630674806960,26756,289863,203461
1630674806970,26755,289851,203454
1630674806980,26750,289886,203458
1630674806990,26750,289903,203454
1630674807000,26742,289864,203469
1630674807010,26742,289885,203450
1630674807020,26745,289869,203457
1630674807030,26740,289872,203439
1630674807040,26745,289889,203455
1630674807050,26739,289857,203450
1630674807060,26740,289884,203447
1630674807070,26735,289918,203443
1630674807080,26738,289864,203432
1630674807090,26743,289907,203435
1630674807100,26741,289915,203412
1630674807110,26741,289896,203392
1630674807120,26733,289859,203418
1630674807130,26739,289925,203430
1630674807140,26748,289889,203394
1630674807150,26736,289946,203416
1630674807160,26743,289900,203390
1630674807170,26741,289925,203377
1630674807180,26746,289899,203394
1630674807190,26740,289871,203416
1630674807200,26739,289954,203381
1630674807210,26736,289900,203412
1630674807220,26737,289933,203390
1630674807230,26742,289919,203389
1630674807240,26736,289885,203381
1630674807250,26738,289961,203388
1630674807260,26740,289896,203362
1630674807270,26736,289912,203365
1630674807280,26744,289968,203392
1630674807290,26744,289954,203344
1630674807300,26744,289945,203361
1630674807310,26748,289954,203370
1630674807320,26744,289970,203351
1630674807330,26747,289964,203350
1630674807340,26752,289925,203368
1630674807350,26755,289960,203356
1630674807360,26759,289963,203384
1630674807370,26756,290019,203416
1630674807380,26763,289966,203420
1630674807390,26760,289951,203432
1630674807400,26757,289969,203417
1630674807410,26745,289934,203420
1630674807420,26736,289932,203407
1630674807430,26723,289868,203402
1630674807440,26713,289890,203393
1630674807450,26695,289826,203372
1630674807460,26700,289896,203385
1630674807470,26665,289864,203354
1630674807480,26664,289864,203348
1630674807490,26648,289789,203352
1630674807500,26639,289780,203330
1630674807510,26627,289766,203331
1630674807520,26608,289756,203311
1630674807530,26600,289758,203319
1630674807540,26582,289699,203311
1630674807550,26571,289707,203287
1630674807560,26557,289749,203250
1630674807570,26543,289723,203256
1630674807580,26537,289722,203253
1630674807590,26536,289689,203259
1630674807600,26524,289646,203273
1630674807610,26523,289634,203240
1630674807620,26519,289670,203248
1630674807630,26511,289656,203238
1630674807640,26499,289642,203278
1630674807650,26506,289644,203258
1630674807660,26493,289648,203258
1630674807670,26486,289663,203252
1630674807680,26487,289638,203228
1630674807690,26477,289621,203250
1630674807700,26474,289628,203214
1630674807710,26463,289629,203216
1630674807720,26456,289618,203216
1630674807730,26451,289633,203220
1630674807740,26451,289650,203234
1630674807750,26443,289650,203217
1630674807760,26455,289656,203218
1630674807770,26442,289601,203183
1630674807780,26430,289661,203211
1630674807790,26431,289629,203217
1630674807800,26432,289619,203202
1630674807810,26426,289654,203227
1630674807820,26427,289670,203213
1630674807830,26426,289656,203198
1630674807840,26427,289659,203222
1630674807850,26423,289606,203188
1630674807860,26423,289650,203204
1630674807870,26416,289662,203202
1630674807880,26420,289632,203215
1630674807890,26422,289716,203232
1630674807900,26422,289664,203231
1630674807910,26420,289702,203215
1630674807920,26419,289672,203220
1630674807930,26415,289704,203207
1630674807940,26426,289643,203204
1630674807950,26427,289665,203213
1630674807960,26416,289668,203203
1630674807970,26416,289699,203217
1630674807980,26417,289662,203193
1630674807990,26414,289670,203224
1630674808000,26422,289689,203214
1630674808010,26415,289708,203209
1630674808020,26418,289698,203224
1630674808030,26421,289721,203237
1630674808040,26417,289724,203192
1630674808050,26413,289723,203210
1630674808060,26420,289724,203215
1630674808070,26417,289689,203189
1630674808080,26413,289698,203215
1630674808090,26423,289694,203180
1630674808100,26420,289689,203210
1630674808110,26412,289727,203184
1630674808120,26414,289717,203188
1630674808130,26416,289702,203190
1630674808140,26420,289738,203197
1630674808150,26425,289767,203213
1630674808160,26427,289773,203219
1630674808170,26433,289740,203246
1630674808180,26433,289729,203238
1630674808190,26426,289783,203240
1630674808200,26432,289724,203275
1630674808210,26409,289692,203259
1630674808220,26396,289661,203252
1630674808230,26379,289664,203247
1630674808240,26358,289613,203235
1630674808250,26349,289606,203230
1630674808260,26334,289604,203246
1630674808270,26325,289599,203213
1630674808280,26306,289562,203240
1630674808290,26293,289591,203242
1630674808300,26288,289572,203212
1630674808310,26278,289566,203236
1630674808320,26262,289513,203203
1630674808330,26248,289504,203222
1630674808340,26240,289508,203222
1630674808350,26227,289491,203215
1630674808360,26210,289467,203200
1630674808370,26204,289489,203207
1630674808380,26191,289455,203177
1630674808390,26184,289449,203200
1630674808400,26173,289476,203175
1630674808410,26170,289480,203189
1630674808420,26170,289452,203183
1630674808430,26163,289479,203182
1630674808440,26152,289446,203178
1630674808450,26151,289395,203174
1630674808460,26133,289424,203179
1630674808470,26132,289403,203201
1630674808480,26132,289393,203182
1630674808490,26117,289403,203175
1630674808500,26104,289425,203151
1630674808510,26100,289383,203172
1630674808520,26098,289376,203150
1630674808530,26099,289372,203168
1630674808540,26085,289387,203162
1630674808550,26085,289364,203145
1630674808560,26081,289385,203150
1630674808570,26084,289382,203148
1630674808580,26077,289412,203159
1630674808590,26082,289397,203159
1630674808600,26068,289354,203175
1630674808610,26069,289402,203143
1630674808620,26073,289372,203155
1630674808630,26071,289356,203128
1630674808640,26069,289393,203149
1630674808650,26066,289407,203125
1630674808660,26064,289405,203147
1630674808670,26068,289415,203143
1630674808680,26061,289371,203138
1630674808690,26063,289388,203153
1630674808700,26062,289394,203141
1630674808710,26061,289396,203134
1630674808720,26062,289405,203121
1630674808730,26056,289354,203143
1630674808740,26075,289416,203142
1630674808750,26065,289384,203139
1630674808760,26061,289405,203137
1630674808770,26064,289395,203139
1630674808780,26058,289389,203126
1630674808790,26057,289420,203135
1630674808800,26071,289432,203135
1630674808810,26067,289385,203122
1630674808820,26066,289392,203154
1630674808830,26067,289423,203142
1630674808840,26069,289437,203136
1630674808850,26070,289421,203133
1630674808860,26069,289455,203122
1630674808870,26067,289439,203134
1630674808880,26075,289429,203130
1630674808890,26078,289449,203134
1630674808900,26079,289454,203151
1630674808910,26076,289432,203133
1630674808920,26096,289447,203141
1630674808930,26081,289422,203144
1630674808940,26095,289466,203123
1630674808950,26096,289505,203152
1630674808960,26113,289489,203170
1630674808970,26104,289476,203175
1630674808980,26118,289459,203198
1630674808990,26106,289421,203221
1630674809000,26102,289431,203230
1630674809010,26085,289416,203230
1630674809020,26069,289427,203224
1630674809030,26054,289366,203226
1630674809040,26042,289376,203164
1630674809050,26029,289364,203192
1630674809060,26024,289336,203197
1630674809070,26011,289304,203209
1630674809080,26003,289317,203194
1630674809090,25997,289273,203182
1630674809100,25979,289339,203214
1630674809110,25975,289297,203192
1630674809120,25960,289255,203202
1630674809130,25948,289291,203186
1630674809140,25936,289274,203204
1630674809150,25926,289251,203170
1630674809160,25923,289260,203174
1630674809170,25912,289207,203186
1630674809180,25905,289241,203166
1630674809190,25903,289207,203156
1630674809200,25904,289202,203174
1630674809210,25903,289235,203164
1630674809220,25904,289225,203182
1630674809230,25904,289245,203190
1630674809240,25900,289208,203167
1630674809250,25887,289214,203184
1630674809260,25898,289173,203174
1630674809270,25887,289179,203181
1630674809280,25899,289183,203179
1630674809290,25884,289189,203194
1630674809300,25878,289211,203175
1630674809310,25882,289198,203161
1630674809320,25879,289151,203180
1630674809330,25871,289201,203183
1630674809340,25873,289192,203184
1630674809350,25875,289199,203205
1630674809360,25877,289173,203176
1630674809370,25879,289200,203193
1630674809380,25881,289184,203165
1630674809390,25885,289210,203178
1630674809400,25875,289231,203170
1630674809410,25886,289192,203173
1630674809420,25883,289225,203175
1630674809430,25891,289263,203188
1630674809440,25897,289237,203181
1630674809450,25898,289225,203211
1630674809460,25903,289234,203213
1630674809470,25901,289240,203192
1630674809480,25909,289253,203175
1630674809490,25910,289245,203201
1630674809500,25913,289239,203213
1630674809510,25913,289266,203198
1630674809520,25921,289256,203201
1630674809530,25922,289254,203172
1630674809540,25926,289277,203145
1630674809550,25936,289275,203157
1630674809560,25932,289285,203162
1630674809570,25933,289296,203148
1630674809580,25943,289310,203124
1630674809590,25943,289271,203105
1630674809600,25932,289290,203108
1630674809610,25925,289278,203078
1630674809620,25934,289287,203083
1630674809630,25930,289297,203085
1630674809640,25929,289271,203078
1630674809650,25938,289288,203076
1630674809660,25946,289264,203108
1630674809670,25949,289288,203098
1630674809680,25952,289307,203094
1630674809690,25964,289326,203131
1630674809700,25970,289331,203102
1630674809710,25962,289286,203119
1630674809720,25988,289358,203142
1630674809730,25988,289347,203119
1630674809740,26003,289362,203138
1630674809750,26015,289421,203175
1630674809760,26023,289387,203205
1630674809770,26042,289394,203223
1630674809780,26039,289371,203242
1630674809790,26035,289360,203235
1630674809800,26036,289355,203254
1630674809810,26032,289331,203248
1630674809820,26021,289308,203243
1630674809830,26013,289317,203269
1630674809840,26003,289282,203242
1630674809850,26003,289271,203248
1630674809860,25998,289288,203250
1630674809870,26000,289244,203257
1630674809880,25998,289267,203236
1630674809890,25995,289293,203263
1630674809900,25995,289234,203252
1630674809910,25991,289221,203253
1630674809920,25988,289231,203266
1630674809930,25978,289257,203255
1630674809940,25981,289217,203262
1630674809950,25980,289230,203289
1630674809960,25975,289230,203260
1630674809970,25971,289210,203248
1630674809980,25974,289216,203244
1630674809990,25978,289246,203260
1630674810000,25976,289211,203247
1630674810010,25980,289246,203255
1630674810020,25987,289272,203240
1630674810030,25991,289218,203294
1630674810040,25989,289252,203286
1630674810050,25995,289225,203261
1630674810060,26011,289252,203276
1630674810070,26002,289251,203278
1630674810080,26018,289245,203275
1630674810090,26010,289263,203271
1630674810100,26013,289243,203281
1630674810110,26011,289251,203275
1630674810120,26021,289278,203275
1630674810130,26022,289241,203284
1630674810140,26030,289250,203286
1630674810150,26034,289280,203284
1630674810160,26035,289276,203286
1630674810170,26047,289281,203261
1630674810180,26048,289294,203270
1630674810190,26058,289299,203300
1630674810200,26063,289249,203288
1630674810210,26066,289295,203284
1630674810220,26072,289281,203295
1630674810230,26073,289307,203304
1630674810240,26082,289311,203297
1630674810250,26085,289356,203295
1630674810260,26091,289343,203299
1630674810270,26093,289312,203315
1630674810280,26109,289374,203304
1630674810290,26115,289341,203301
1630674810300,26118,289381,203315
1630674810310,26123,289339,203305
1630674810320,26129,289373,203318
1630674810330,26136,289421,203312
1630674810340,26144,289387,203296
1630674810350,26139,289437,203307
1630674810360,26155,289383,203316
1630674810370,26159,289387,203305
1630674810380,26172,289409,203320
1630674810390,26181,289422,203340
1630674810400,26182,289443,203313
1630674810410,26190,289435,203334
1630674810420,26199,289448,203307
1630674810430,26199,289492,203310
1630674810440,26207,289423,203286
1630674810450,26213,289453,203322
1630674810460,26218,289492,203311
1630674810470,26220,289510,203310
1630674810480,26223,289517,203330
1630674810490,26240,289497,203337
1630674810500,26238,289504,203316
1630674810510,26253,289511,203318
1630674810520,26254,289514,203316
1630674810530,26265,289533,203327
1630674810540,26279,289570,203326
1630674810550,26293,289580,203358
1630674810560,26300,289585,203371
1630674810570,26309,289580,203402
1630674810580,26324,289550,203408
1630674810590,26324,289590,203425
1630674810600,26326,289552,203427
1630674810610,26320,289580,203426
1630674810620,26328,289536,203438
1630674810630,26320,289561,203419
1630674810640,26319,289524,203439
1630674810650,26322,289510,203439
1630674810660,26320,289518,203438
1630674810670,26321,289519,203430
1630674810680,26320,289527,203458
1630674810690,26328,289534,203469
1630674810700,26324,289534,203457
1630674810710,26317,289524,203454
1630674810720,26317,289454,203453
1630674810730,26325,289504,203456
1630674810740,26323,289518,203438
1630674810750,26324,289488,203420
1630674810760,26326,289504,203424
1630674810770,26331,289486,203435
1630674810780,26326,289498,203430
1630674810790,26327,289516,203434
1630674810800,26325,289474,203411
1630674810810,26332,289513,203393
1630674810820,26342,289538,203449
1630674810830,26346,289507,203434
1630674810840,26355,289482,203440
1630674810850,26346,289536,203455
1630674810860,26357,289508,203425
1630674810870,26357,289567,203418
1630674810880,26366,289541,203415
1630674810890,26360,289557,203450
1630674810900,26367,289591,203450
1630674810910,26376,289511,203432
1630674810920,26382,289543,203426
1630674810930,26384,289540,203429
1630674810940,26393,289547,203424
1630674810950,26390,289586,203424
1630674810960,26397,289601,203449
1630674810970,26402,289594,203433
1630674810980,26402,289584,203432
1630674810990,26416,289597,203435
1630674811000,26414,289609,203445
1630674811010,26431,289595,203447
1630674811020,26438,289610,203419
1630674811030,26435,289565,203457
1630674811040,26449,289642,203434
1630674811050,26444,289589,203450
1630674811060,26459,289663,203456
1630674811070,26459,289627,203479
1630674811080,26467,289689,203460
1630674811090,26472,289656,203453
1630674811100,26474,289649,203462
1630674811110,26482,289635,203482
1630674811120,26482,289678,203450
1630674811130,26491,289663,203451
1630674811140,26493,289740,203442
1630674811150,26496,289687,203463
1630674811160,26506,289728,203463
1630674811170,26499,289733,203447
1630674811180,26525,289739,203457
1630674811190,26519,289719,203475
1630674811200,26534,289759,203459
1630674811210,26538,289761,203461
1630674811220,26546,289767,203448
1630674811230,26548,289730,203450
1630674811240,26557,289777,203445
1630674811250,26552,289791,203476
1630674811260,26559,289760,203458
1630674811270,26569,289790,203479
1630674811280,26571,289814,203450
1630674811290,26578,289792,203450
1630674811300,26584,289792,203477
1630674811310,26590,289855,203467
1630674811320,26600,289816,203469
1630674811330,26606,289824,203449
1630674811340,26608,289826,203475
1630674811350,26630,289859,203510
1630674811360,26635,289859,203552
1630674811370,26651,289895,203514
1630674811380,26653,289863,203594
1630674811390,26664,289878,203573
1630674811400,26665,289829,203566
1630674811410,26661,289866,203599
1630674811420,26665,289859,203573
1630674811430,26654,289860,203582
1630674811440,26655,289852,203582
1630674811450,26658,289813,203582
1630674811460,26660,289836,203569
1630674811470,26656,289835,203583
1630674811480,26664,289848,203606
1630674811490,26664,289806,203581
1630674811500,26664,289808,203585
1630674811510,26652,289811,203583
1630674811520,26666,289812,203573
1630674811530,26663,289848,203565
1630674811540,26667,289792,203573
1630674811550,26659,289834,203568
1630674811560,26657,289815,203560
1630674811570,26659,289795,203556
1630674811580,26664,289812,203551
1630674811590,26660,289837,203560
1630674811600,26663,289812,203569
1630674811610,26666,289791,203579
1630674811620,26665,289817,203567
1630674811630,26670,289828,203572
1630674811640,26683,289795,203593
1630674811650,26683,289846,203549
1630674811660,26675,289845,203571
1630674811670,26676,289805,203561
1630674811680,26683,289835,203563
1630674811690,26679,289823,203535
1630674811700,26675,289837,203536
1630674811710,26684,289823,203522
1630674811720,26692,289870,203564
1630674811730,26691,289826,203541
1630674811740,26696,289837,203538
1630674811750,26692,289817,203543
1630674811760,26700,289870,203529
1630674811770,26701,289845,203534
1630674811780,26707,289848,203529
1630674811790,26705,289863,203501
1630674811800,26709,289820,203538
1630674811810,26699,289827,203495
1630674811820,26712,289849,203481
1630674811830,26723,289819,203488
1630674811840,26716,289855,203482
1630674811850,26709,289827,203461
1630674811860,26710,289843,203482
1630674811870,26717,289814,203464
1630674811880,26722,289812,203465
1630674811890,26722,289825,203461
1630674811900,26724,289844,203450
1630674811910,26729,289826,203448
1630674811920,26735,289838,203446
1630674811930,26733,289858,203449
1630674811940,26736,289886,203449
1630674811950,26739,289849,203444
1630674811960,26743,289803,203426
1630674811970,26754,289854,203444
1630674811980,26757,289872,203445
1630674811990,26756,289874,203441
1630674812000,26754,289878,203428
1630674812010,26762,289897,203466
1630674812020,26763,289876,203432
1630674812030,26771,289901,203444
1630674812040,26777,289886,203443
1630674812050,26768,289903,203451
1630674812060,26774,289892,203421
1630674812070,26780,289917,203433
1630674812080,26787,289925,203431
1630674812090,26784,289916,203437
1630674812100,26785,289926,203437
1630674812110,26795,289916,203473
1630674812120,26801,289934,203462
1630674812130,26813,289918,203475
1630674812140,26813,289887,203470
1630674812150,26808,289874,203453
1630674812160,26802,289902,203475
1630674812170,26796,289845,203492
1630674812180,26799,289898,203448
1630674812190,26790,289848,203455
1630674812200,26786,289826,203454
1630674812210,26782,289847,203440
1630674812220,26779,289866,203443
1630674812230,26767,289809,203460
1630674812240,26771,289844,203441
1630674812250,26761,289881,203435
1630674812260,26754,289797,203422
1630674812270,26753,289810,203435
1630674812280,26743,289771,203442
1630674812290,26744,289798,203409
1630674812300,26728,289784,203423
1630674812310,26728,289774,203373
1630674812320,26710,289736,203377
1630674812330,26712,289757,203362
1630674812340,26709,289788,203359
1630674812350,26704,289755,203374
1630674812360,26707,289749,203346
1630674812370,26704,289770,203363
1630674812380,26703,289762,203345
1630674812390,26708,289720,203370
1630674812400,26697,289798,203357
1630674812410,26700,289762,203364
1630674812420,26696,289742,203362
1630674812430,26694,289759,203329
1630674812440,26690,289785,203344
1630674812450,26704,289777,203348
1630674812460,26684,289760,203313
1630674812470,26700,289758,203332
1630674812480,26682,289751,203339
1630674812490,26683,289782,203326
1630674812500,26692,289754,203323
1630674812510,26683,289771,203297
1630674812520,26682,289756,203322
1630674812530,26683,289749,203306
1630674812540,26680,289790,203297
1630674812550,26688,289786,203309
1630674812560,26681,289763,203303
1630674812570,26684,289762,203301
1630674812580,26684,289753,203272
1630674812590,26680,289754,203296
1630674812600,26681,289753,203277
1630674812610,26694,289727,203273
1630674812620,26677,289801,203302
1630674812630,26681,289787,203285
1630674812640,26691,289789,203322
1630674812650,26690,289785,203271
1630674812660,26689,289778,203270
1630674812670,26696,289815,203275
1630674812680,26695,289843,203267
1630674812690,26697,289783,203281
1630674812700,26700,289830,203306
1630674812710,26702,289819,203307
1630674812720,26705,289824,203311
1630674812730,26704,289827,203306
1630674812740,26711,289861,203298
1630674812750,26710,289841,203302
1630674812760,26711,289870,203326
1630674812770,26716,289842,203334
1630674812780,26718,289860,203314
1630674812790,26713,289870,203326
1630674812800,26716,289872,203334
1630674812810,26721,289886,203319
1630674812820,26720,289860,203304
1630674812830,26721,289856,203335
1630674812840,26734,289871,203338
1630674812850,26732,289891,203333
1630674812860,26738,289930,203336
1630674812870,26751,289921,203377
1630674812880,26745,289908,203379
1630674812890,26750,289930,203400
1630674812900,26747,289908,203388
1630674812910,26748,289889,203401
1630674812920,26741,289862,203436
1630674812930,26727,289878,203400
1630674812940,26719,289839,203394
1630674812950,26715,289859,203414
1630674812960,26692,289816,203389
1630674812970,26707,289789,203407
1630674812980,26677,289801,203400
1630674812990,26677,289771,203402
1630674813000,26668,289794,203392
1630674813010,26657,289811,203395
1630674813020,26650,289782,203403
1630674813030,26629,289761,203374
1630674813040,26627,289743,203374
1630674813050,26611,289725,203376
1630674813060,26603,289749,203375
1630674813070,26590,289695,203364
1630674813080,26579,289704,203367
1630674813090,26571,289691,203349
1630674813100,26568,289691,203343
1630674813110,26567,289696,203330
1630674813120,26557,289716,203320
1630674813130,26549,289728,203324
1630674813140,26552,289718,203332
1630674813150,26546,289668,203344
1630674813160,26540,289697,203328
1630674813170,26532,289661,203311
1630674813180,26522,289673,203302
1630674813190,26524,289666,203302
1630674813200,26515,289628,203318
1630674813210,26513,289645,203289
1630674813220,26499,289673,203308
1630674813230,26495,289630,203284
1630674813240,26490,289646,203321
1630674813250,26488,289694,203270
1630674813260,26498,289623,203273
1630674813270,26491,289652,203308
1630674813280,26481,289666,203272
1630674813290,26487,289625,203280
1630674813300,26475,289646,203268
1630674813310,26480,289663,203259
1630674813320,26467,289663,203291
1630674813330,26474,289664,203264
1630674813340,26479,289648,203261
1630674813350,26468,289599,203258
1630674813360,26474,289618,203278
1630674813370,26471,289645,203275
1630674813380,26470,289679,203271
1630674813390,26469,289664,203260
1630674813400,26466,289660,203240
1630674813410,26466,289666,203242
1630674813420,26470,289687,203228
1630674813430,26466,289655,203227
1630674813440,26457,289659,203256
1630674813450,26461,289686,203255
1630674813460,26475,289698,203235
1630674813470,26465,289634,203247
1630674813480,26466,289695,203243
1630674813490,26478,289699,203250
1630674813500,26475,289683,203249
1630674813510,26468,289692,203229
1630674813520,26476,289726,203252
1630674813530,26466,289675,203241
1630674813540,26469,289686,203255
1630674813550,26472,289708,203252
1630674813560,26470,289704,203219
1630674813570,26476,289659,203225
1630674813580,26488,289695,203221
1630674813590,26487,289733,203248
1630674813600,26475,289738,203244
1630674813610,26489,289704,203237
1630674813620,26478,289714,203258
1630674813630,26486,289769,203261
1630674813640,26490,289738,203240
1630674813650,26499,289768,203266
1630674813660,26503,289757,203287
1630674813670,26496,289747,203286
1630674813680,26498,289734,203325
1630674813690,26484,289711,203317
1630674813700,26475,289711,203337
1630674813710,26460,289661,203302
1630674813720,26443,289687,203301
1630674813730,26430,289701,203306
1630674813740,26417,289655,203299
1630674813750,26421,289633,203321
1630674813760,26413,289609,203289
1630674813770,26391,289608,203310
1630674813780,26380,289603,203305
1630674813790,26378,289595,203328
1630674813800,26355,289568,203333
1630674813810,26357,289552,203299
1630674813820,26344,289546,203328
1630674813830,26334,289541,203299
1630674813840,26320,289525,203285
1630674813850,26306,289525,203308
1630674813860,26297,289505,203270
1630674813870,26289,289499,203296
1630674813880,26280,289530,203259
1630674813890,26276,289494,203290
1630674813900,26270,289493,203276
1630674813910,26267,289522,203292
1630674813920,26264,289472,203273
1630674813930,26244,289509,203277
1630674813940,26253,289446,203254
1630674813950,26232,289481,203278
1630674813960,26232,289466,203261
1630674813970,26227,289462,203244
1630674813980,26223,289488,203235
1630674813990,26222,289487,203250
1630674814000,26218,289485,203253
1630674814010,26216,289467,203233
1630674814020,26208,289442,203247
1630674814030,26203,289409,203244
1630674814040,26203,289456,203234
1630674814050,26196,289444,203242
1630674814060,26199,289440,203245
1630674814070,26206,289436,203212
1630674814080,26203,289451,203229
1630674814090,26191,289475,203218
1630674814100,26190,289449,203234
1630674814110,26186,289460,203240
1630674814120,26188,289401,203238
1630674814130,26198,289437,203261
1630674814140,26195,289458,203236
1630674814150,26187,289455,203253
1630674814160,26197,289450,203249
1630674814170,26191,289460,203236
1630674814180,26192,289480,203245
1630674814190,26189,289462,203248
1630674814200,26189,289475,203244
1630674814210,26193,289480,203235
1630674814220,26188,289480,203247
1630674814230,26185,289509,203254
1630674814240,26191,289468,203256
1630674814250,26199,289518,203246
1630674814260,26207,289467,203236
1630674814270,26196,289493,203255
1630674814280,26194,289492,203243
1630674814290,26201,289523,203244
1630674814300,26203,289523,203249
1630674814310,26211,289505,203240
1630674814320,26204,289493,203253
1630674814330,26207,289487,203255
1630674814340,26205,289526,203250
1630674814350,26206,289538,203248
1630674814360,26209,289532,203253
1630674814370,26211,289523,203255
1630674814380,26214,289539,203257
1630674814390,26213,289567,203253
1630674814400,26225,289576,203225
1630674814410,26222,289540,203246
1630674814420,26235,289582,203265
1630674814430,26224,289555,203258
1630674814440,26229,289544,203268
1630674814450,26239,289619,203278
1630674814460,26249,289581,203310
1630674814470,26250,289580,203323
1630674814480,26250,289595,203332
1630674814490,26251,289613,203336
1630674814500,26244,289554,203365
1630674814510,26234,289548,203356
1630674814520,26221,289580,203348
1630674814530,26212,289527,203335
1630674814540,26195,289521,203338
1630674814550,26190,289498,203341
1630674814560,26186,289481,203320
1630674814570,26174,289513,203350
1630674814580,26172,289500,203336
1630674814590,26160,289499,203360
1630674814600,26156,289464,203357
1630674814610,26153,289500,203364
1630674814620,26145,289382,203368
1630674814630,26137,289417,203369
1630674814640,26129,289468,203356
1630674814650,26122,289402,203360
1630674814660,26113,289414,203362
1630674814670,26102,289374,203367
1630674814680,26103,289390,203351
1630674814690,26099,289383,203371
1630674814700,26102,289415,203369
1630674814710,26100,289386,203371
1630674814720,26101,289417,203375
1630674814730,26097,289404,203413
1630674814740,26087,289386,203391
1630674814750,26098,289375,203423
1630674814760,26109,289353,203396
1630674814770,26094,289407,203426
1630674814780,26096,289411,203427
1630674814790,26098,289393,203409
1630674814800,26095,289387,203419
1630674814810,26094,289406,203421
1630674814820,26100,289417,203402
1630674814830,26090,289394,203404
1630674814840,26095,289378,203424
1630674814850,26097,289367,203417
1630674814860,26098,289392,203415
1630674814870,26096,289413,203411
1630674814880,26098,289393,203408
1630674814890,26099,289400,203429
1630674814900,26112,289424,203428
1630674814910,26097,289439,203397
1630674814920,26111,289424,203432
1630674814930,26107,289423,203416
1630674814940,26110,289419,203437
1630674814950,26116,289452,203422
1630674814960,26118,289406,203425
1630674814970,26116,289440,203434
1630674814980,26118,289433,203434
1630674814990,26132,289424,203420
1630674815000,26129,289448,203422
1630674815010,26133,289438,203409
1630674815020,26138,289467,203418
1630674815030,26133,289475,203442
1630674815040,26141,289454,203448
1630674815050,26139,289475,203439
1630674815060,26140,289452,203438
1630674815070,26159,289466,203425
1630674815080,26159,289479,203427
1630674815090,26168,289462,203438
1630674815100,26160,289511,203440
1630674815110,26162,289453,203444
1630674815120,26163,289458,203450
1630674815130,26176,289502,203451
1630674815140,26180,289504,203440
1630674815150,26182,289474,203449
1630674815160,26187,289497,203458
1630674815170,26193,289502,203460
1630674815180,26196,289555,203463
1630674815190,26197,289533,203476
1630674815200,26203,289488,203472
1630674815210,26207,289538,203464
1630674815220,26216,289561,203459
1630674815230,26210,289550,203466
1630674815240,26220,289560,203469
1630674815250,26233,289575,203502
1630674815260,26240,289606,203509
1630674815270,26242,289584,203538
1630674815280,26253,289600,203544
1630674815290,26259,289569,203543
1630674815300,26248,289559,203542
1630674815310,26239,289552,203547
1630674815320,26231,289520,203538
1630674815330,26228,289506,203528
1630674815340,26221,289503,203534
1630674815350,26216,289485,203550
1630674815360,26215,289477,203542
1630674815370,26211,289486,203551
1630674815380,26216,289476,203540
1630674815390,26209,289458,203548
1630674815400,26206,289483,203532
1630674815410,26191,289444,203537
1630674815420,26187,289448,203542
1630674815430,26193,289421,203541
1630674815440,26187,289424,203553
1630674815450,26181,289370,203560
1630674815460,26180,289389,203520
1630674815470,26178,289424,203545
1630674815480,26181,289416,203554
1630674815490,26183,289443,203524
1630674815500,26186,289417,203541
1630674815510,26186,289417,203551
1630674815520,26186,289435,203559
1630674815530,26197,289409,203554
1630674815540,26195,289437,203550
1630674815550,26201,289450,203557
1630674815560,26204,289394,203562
1630674815570,26204,289451,203555
1630674815580,26199,289394,203573
1630674815590,26200,289409,203577
1630674815600,26210,289447,203572
1630674815610,26212,289461,203577
1630674815620,26214,289441,203554
1630674815630,26228,289485,203545
1630674815640,26225,289494,203585
1630674815650,26228,289478,203582
1630674815660,26233,289448,203565
1630674815670,26237,289452,203581
1630674815680,26240,289461,203575
1630674815690,26256,289467,203576
1630674815700,26253,289477,203561
1630674815710,26265,289491,203590
1630674815720,26268,289477,203565
1630674815730,26275,289502,203597
1630674815740,26284,289516,203578
1630674815750,26279,289464,203601
1630674815760,26287,289520,203601
1630674815770,26302,289541,203617
1630674815780,26298,289531,203609
1630674815790,26313,289557,203612
1630674815800,26311,289521,203605
1630674815810,26320,289567,203601
1630674815820,26326,289554,203606
1630674815830,26327,289550,203618
1630674815840,26343,289543,203650
1630674815850,26347,289572,203626
1630674815860,26350,289607,203634
1630674815870,26362,289629,203606
1630674815880,26380,289583,203627
1630674815890,26372,289591,203663
1630674815900,26398,289626,203621
1630674815910,26390,289622,203618
1630674815920,26394,289613,203632
1630674815930,26405,289658,203640
1630674815940,26413,289645,203653
1630674815950,26416,289651,203635
1630674815960,26417,289664,203649
1630674815970,26431,289640,203657
1630674815980,26438,289705,203673
1630674815990,26436,289688,203662
1630674816000,26445,289678,203654
1630674816010,26449,289689,203670
1630674816020,26462,289737,203691
1630674816030,26467,289727,203685
1630674816040,26481,289756,203696
1630674816050,26494,289696,203699
1630674816060,26505,289773,203738
1630674816070,26500,289767,203757
1630674816080,26514,289751,203770
1630674816090,26523,289757,203786
1630674816100,26535,289763,203787
1630674816110,26527,289738,203771
1630674816120,26523,289718,203772
1630674816130,26517,289717,203767
1630674816140,26514,289699,203795
1630674816150,26514,289740,203782
1630674816160,26518,289700,203802
1630674816170,26514,289680,203797
1630674816180,26524,289733,203805
1630674816190,26527,289680,203810
1630674816200,26511,289685,203814
1630674816210,26516,289683,203806
1630674816220,26531,289680,203807
1630674816230,26519,289671,203816
1630674816240,26509,289697,203814
1630674816250,26512,289674,203806
1630674816260,26515,289650,203818
1630674816270,26507,289620,203787
1630674816280,26516,289665,203795
1630674816290,26510,289649,203810
1630674816300,26515,289610,203790
1630674816310,26516,289625,203804
1630674816320,26519,289634,203817
1630674816330,26524,289695,203825
1630674816340,26522,289649,203804
1630674816350,26528,289652,203819
1630674816360,26538,289689,203815
1630674816370,26536,289724,203816
1630674816380,26539,289696,203800
1630674816390,26539,289665,203836
1630674816400,26544,289665,203815
1630674816410,26551,289705,203791
1630674816420,26548,289665,203799
1630674816430,26553,289667,203793
1630674816440,26552,289678,203818
1630674816450,26559,289693,203788
1630674816460,26566,289708,203810
1630674816470,26568,289711,203819
1630674816480,26575,289719,203803
1630674816490,26575,289767,203818
1630674816500,26587,289755,203833
1630674816510,26580,289725,203814
1630674816520,26594,289721,203807
1630674816530,26600,289739,203806
1630674816540,26610,289765,203804
1630674816550,26597,289739,203817
1630674816560,26608,289764,203790
1630674816570,26611,289757,203803
1630674816580,26618,289784,203811
1630674816590,26625,289790,203807
1630674816600,26625,289796,203818
1630674816610,26630,289767,203811
1630674816620,26635,289812,203779
1630674816630,26641,289758,203812
1630674816640,26641,289834,203804
1630674816650,26655,289826,203827
1630674816660,26656,289792,203811
1630674816670,26659,289831,203807
1630674816680,26662,289828,203800
1630674816690,26672,289812,203786
1630674816700,26677,289854,203815
1630674816710,26682,289812,203794
1630674816720,26686,289849,203820
1630674816730,26694,289856,203819
1630674816740,26694,289837,203812
1630674816750,26709,289856,203801
1630674816760,26708,289856,203828
1630674816770,26716,289905,203828
1630674816780,26724,289848,203820
1630674816790,26724,289932,203797
1630674816800,26736,289905,203826
1630674816810,26731,289898,203827
1630674816820,26739,289953,203842
1630674816830,26747,289905,203826
1630674816840,26755,289966,203827
1630674816850,26761,289960,203822
1630674816860,26784,289970,203850
