timestamp,ecg_waveform
1630932113002,2036
1630932113006,2036
1630932113010,2037
1630932113014,2038
1630932113018,2038
1630932113022,2037
1630932113026,2037
1630932113030,2037
1630932113034,2037
1630932113038,2037
1630932113042,2039
1630932113046,2039
1630932113050,2040
1630932113054,2040
1630932113058,2040
1630932113062,2040
1630932113066,2041
1630932113070,2041
1630932113074,2042
1630932113078,2042
1630932113082,2043
1630932113086,2042
1630932113090,2042
1630932113094,2041
1630932113098,2041
1630932113102,2041
1630932113106,2041
1630932113110,2042
1630932113114,2042
1630932113118,2042
1630932113122,2042
1630932113126,2041
1630932113130,2042
1630932113134,2042
1630932113138,2042
1630932113142,2043
1630932113146,2043
1630932113150,2043
1630932113154,2042
1630932113158,2042
1630932113162,2041
1630932113166,2041
1630932113170,2041
1630932113174,2042
1630932113178,2042
1630932113182,2043
1630932113186,2043
1630932113190,2043
1630932113194,2042
1630932113198,2042
1630932113202,2042
1630932113206,2042
1630932113210,2042
1630932113214,2042
1630932113218,2043
1630932113222,2043
1630932113226,2044
1630932113230,2044
1630932113234,2044
1630932113238,2043
1630932113242,2042
1630932113246,2041
1630932113250,2041
1630932113254,2042
1630932113258,2042
1630932113262,2043
1630932113266,2044
1630932113270,2044
1630932113274,2043
1630932113278,2043
1630932113282,2043
1630932113286,2044
1630932113290,2045
1630932113294,2045
1630932113298,2046
1630932113302,2046
1630932113306,2046
1630932113310,2047
1630932113314,2047
1630932113318,2048
1630932113322,2048
1630932113326,2048
1630932113330,2047
1630932113334,2047
1630932113338,2046
1630932113342,2046
1630932113346,2046
1630932113350,2046
1630932113354,2044
1630932113358,2043
1630932113362,2042
1630932113366,2041
1630932113370,2041
1630932113374,2041
1630932113378,2042
1630932113382,2041
1630932113386,2040
1630932113390,2040
1630932113394,2039
1630932113398,2039
1630932113402,2039
1630932113406,2039
1630932113410,2039
1630932113414,2039
1630932113418,2038
1630932113422,2039
1630932113426,2041
1630932113430,2045
1630932113434,2053
1630932113438,2066
1630932113442,2083
1630932113446,2100
1630932113450,2112
1630932113454,2111
1630932113458,2098
1630932113462,2076
1630932113466,2050
1630932113470,2030
1630932113474,2018
1630932113478,2015
1630932113482,2018
1630932113486,2024
1630932113490,2030
1630932113494,2034
1630932113498,2036
1630932113502,2037
1630932113506,2037
1630932113510,2037
1630932113514,2037
1630932113518,2037
1630932113522,2038
1630932113526,2038
1630932113530,2039
1630932113534,2040
1630932113538,2040
1630932113542,2040
1630932113546,2041
1630932113550,2042
1630932113554,2042
1630932113558,2042
1630932113562,2043
1630932113566,2043
1630932113570,2044
1630932113574,2045
1630932113578,2046
1630932113582,2046
1630932113586,2047
1630932113590,2048
1630932113594,2048
1630932113598,2048
1630932113602,2048
1630932113606,2048
1630932113610,2049
1630932113614,2050
1630932113618,2052
1630932113622,2054
1630932113626,2055
1630932113630,2055
1630932113634,2055
1630932113638,2055
1630932113642,2056
1630932113646,2058
1630932113650,2059
1630932113654,2061
1630932113658,2063
1630932113662,2064
1630932113666,2066
1630932113670,2067
1630932113674,2068
1630932113678,2068
1630932113682,2068
1630932113686,2068
1630932113690,2069
1630932113694,2070
1630932113698,2070
1630932113702,2070
1630932113706,2070
1630932113710,2068
1630932113714,2066
1630932113718,2064
1630932113722,2062
1630932113726,2060
1630932113730,2058
1630932113734,2057
1630932113738,2056
1630932113742,2055
1630932113746,2054
1630932113750,2052
1630932113754,2050
1630932113758,2049
1630932113762,2048
1630932113766,2047
1630932113770,2047
1630932113774,2047
1630932113778,2047
1630932113782,2047
1630932113786,2047
1630932113790,2047
1630932113794,2046
1630932113798,2045
1630932113802,2044
1630932113806,2044
1630932113810,2044
1630932113814,2044
1630932113818,2044
1630932113822,2044
1630932113826,2044
1630932113830,2044
1630932113834,2044
1630932113838,2044
1630932113842,2044
1630932113846,2043
1630932113850,2043
1630932113854,2044
1630932113858,2044
1630932113862,2045
1630932113866,2045
1630932113870,2046
1630932113874,2046
1630932113878,2045
1630932113882,2045
1630932113886,2044
1630932113890,2044
1630932113894,2045
1630932113898,2045
1630932113902,2046
1630932113906,2046
1630932113910,2046
1630932113914,2045
1630932113918,2045
1630932113922,2045
1630932113926,2045
1630932113930,2045
1630932113934,2046
1630932113938,2046
1630932113942,2046
1630932113946,2046
1630932113950,2046
1630932113954,2045
1630932113958,2045
1630932113962,2044
1630932113966,2043
1630932113970,2043
1630932113974,2043
1630932113978,2044
1630932113982,2044
1630932113986,2044
1630932113990,2043
1630932113994,2042
1630932113998,2041
1630932114002,2041
1630932114006,2042
1630932114010,2043
1630932114014,2044
1630932114018,2045
1630932114022,2045
1630932114026,2044
1630932114030,2044
1630932114034,2044
1630932114038,2043
1630932114042,2043
1630932114046,2043
1630932114050,2043
1630932114054,2043
1630932114058,2044
1630932114062,2044
1630932114066,2043
1630932114070,2043
1630932114074,2043
1630932114078,2042
1630932114082,2042
1630932114086,2042
1630932114090,2043
1630932114094,2043
1630932114098,2044
1630932114102,2044
1630932114106,2044
1630932114110,2043
1630932114114,2043
1630932114118,2042
1630932114122,2042
1630932114126,2043
1630932114130,2044
1630932114134,2044
1630932114138,2044
1630932114142,2044
1630932114146,2044
1630932114150,2044
1630932114154,2044
1630932114158,2044
1630932114162,2043
1630932114166,2043
1630932114170,2043
1630932114174,2043
1630932114178,2044
1630932114182,2044
1630932114186,2044
1630932114190,2044
1630932114194,2044
1630932114198,2043
1630932114202,2043
1630932114206,2044
1630932114210,2044
1630932114214,2045
1630932114218,2045
1630932114222,2046
1630932114226,2046
1630932114230,2046
1630932114234,2046
1630932114238,2045
1630932114242,2045
1630932114246,2044
1630932114250,2044
1630932114254,2044
1630932114258,2044
1630932114262,2045
1630932114266,2045
1630932114270,2045
1630932114274,2044
1630932114278,2044
1630932114282,2045
1630932114286,2046
1630932114290,2046
1630932114294,2047
1630932114298,2047
1630932114302,2047
1630932114306,2046
1630932114310,2047
1630932114314,2047
1630932114318,2048
1630932114322,2048
1630932114326,2049
1630932114330,2049
1630932114334,2048
1630932114338,2048
1630932114342,2048
1630932114346,2048
1630932114350,2048
1630932114354,2048
1630932114358,2048
1630932114362,2047
1630932114366,2046
1630932114370,2045
1630932114374,2045
1630932114378,2045
1630932114382,2045
1630932114386,2045
1630932114390,2045
1630932114394,2044
1630932114398,2043
1630932114402,2043
1630932114406,2042
1630932114410,2042
1630932114414,2043
1630932114418,2043
1630932114422,2043
1630932114426,2042
1630932114430,2042
1630932114434,2042
1630932114438,2044
1630932114442,2048
1630932114446,2059
1630932114450,2074
1630932114454,2091
1630932114458,2107
1630932114462,2115
1630932114466,2112
1630932114470,2096
1630932114474,2073
1630932114478,2048
1630932114482,2030
1630932114486,2020
1630932114490,2019
1630932114494,2023
1630932114498,2029
1630932114502,2034
1630932114506,2037
1630932114510,2040
1630932114514,2041
1630932114518,2042
1630932114522,2042
1630932114526,2042
1630932114530,2043
1630932114534,2044
1630932114538,2046
1630932114542,2047
1630932114546,2048
1630932114550,2048
1630932114554,2049
1630932114558,2048
1630932114562,2048
1630932114566,2048
1630932114570,2049
1630932114574,2050
1630932114578,2051
1630932114582,2053
1630932114586,2054
1630932114590,2054
1630932114594,2054
1630932114598,2054
1630932114602,2055
1630932114606,2056
1630932114610,2057
1630932114614,2057
1630932114618,2058
1630932114622,2058
1630932114626,2059
1630932114630,2060
1630932114634,2061
1630932114638,2062
1630932114642,2063
1630932114646,2064
1630932114650,2065
1630932114654,2066
1630932114658,2068
1630932114662,2069
1630932114666,2071
1630932114670,2073
1630932114674,2074
1630932114678,2075
1630932114682,2076
1630932114686,2077
1630932114690,2077
1630932114694,2078
1630932114698,2079
1630932114702,2080
1630932114706,2081
1630932114710,2082
1630932114714,2082
1630932114718,2081
1630932114722,2081
1630932114726,2080
1630932114730,2079
1630932114734,2078
1630932114738,2077
1630932114742,2076
1630932114746,2075
1630932114750,2075
1630932114754,2075
1630932114758,2075
1630932114762,2076
1630932114766,2078
1630932114770,2079
1630932114774,2081
1630932114778,2082
1630932114782,2084
1630932114786,2085
1630932114790,2086
1630932114794,2087
1630932114798,2089
1630932114802,2091
1630932114806,2094
1630932114810,2096
1630932114814,2099
1630932114818,2102
1630932114822,2104
1630932114826,2106
1630932114830,2108
1630932114834,2110
1630932114838,2111
1630932114842,2111
1630932114846,2111
1630932114850,2112
1630932114854,2113
1630932114858,2113
1630932114862,2113
1630932114866,2113
1630932114870,2112
1630932114874,2111
1630932114878,2110
1630932114882,2110
1630932114886,2110
1630932114890,2110
1630932114894,2110
1630932114898,2110
1630932114902,2110
1630932114906,2110
1630932114910,2111
1630932114914,2111
1630932114918,2111
1630932114922,2112
1630932114926,2113
1630932114930,2114
1630932114934,2116
1630932114938,2117
1630932114942,2118
1630932114946,2120
1630932114950,2122
1630932114954,2123
1630932114958,2124
1630932114962,2125
1630932114966,2128
1630932114970,2130
1630932114974,2134
1630932114978,2136
1630932114982,2138
1630932114986,2139
1630932114990,2140
1630932114994,2140
1630932114998,2141
1630932115002,2141
1630932115006,2141
1630932115010,2142
1630932115014,2143
1630932115018,2143
1630932115022,2144
1630932115026,2144
1630932115030,2144
1630932115034,2143
1630932115038,2143
1630932115042,2143
1630932115046,2143
1630932115050,2142
1630932115054,2142
1630932115058,2141
1630932115062,2140
1630932115066,2140
1630932115070,2139
1630932115074,2138
1630932115078,2137
1630932115082,2136
1630932115086,2135
1630932115090,2135
1630932115094,2135
1630932115098,2134
1630932115102,2134
1630932115106,2134
1630932115110,2133
1630932115114,2132
1630932115118,2131
1630932115122,2130
1630932115126,2130
1630932115130,2129
1630932115134,2129
1630932115138,2128
1630932115142,2128
1630932115146,2127
1630932115150,2126
1630932115154,2126
1630932115158,2125
1630932115162,2124
1630932115166,2124
1630932115170,2124
1630932115174,2124
1630932115178,2124
1630932115182,2123
1630932115186,2122
1630932115190,2121
1630932115194,2121
1630932115198,2120
1630932115202,2120
1630932115206,2120
1630932115210,2120
1630932115214,2119
1630932115218,2118
1630932115222,2118
1630932115226,2117
1630932115230,2116
1630932115234,2115
1630932115238,2113
1630932115242,2112
1630932115246,2111
1630932115250,2110
1630932115254,2110
1630932115258,2110
1630932115262,2110
1630932115266,2110
1630932115270,2110
1630932115274,2110
1630932115278,2110
1630932115282,2110
1630932115286,2109
1630932115290,2109
1630932115294,2108
1630932115298,2107
1630932115302,2106
1630932115306,2105
1630932115310,2105
1630932115314,2104
1630932115318,2103
1630932115322,2102
1630932115326,2100
1630932115330,2099
1630932115334,2098
1630932115338,2098
1630932115342,2098
1630932115346,2097
1630932115350,2097
1630932115354,2096
1630932115358,2095
1630932115362,2094
1630932115366,2094
1630932115370,2094
1630932115374,2094
1630932115378,2094
1630932115382,2093
1630932115386,2093
1630932115390,2096
1630932115394,2102
1630932115398,2113
1630932115402,2129
1630932115406,2146
1630932115410,2161
1630932115414,2165
1630932115418,2157
1630932115422,2137
1630932115426,2111
1630932115430,2086
1630932115434,2070
1630932115438,2064
1630932115442,2065
1630932115446,2070
1630932115450,2076
1630932115454,2080
1630932115458,2084
1630932115462,2086
1630932115466,2087
1630932115470,2087
1630932115474,2086
1630932115478,2086
1630932115482,2085
1630932115486,2085
1630932115490,2085
1630932115494,2086
1630932115498,2086
1630932115502,2087
1630932115506,2087
1630932115510,2087
1630932115514,2086
1630932115518,2085
1630932115522,2085
1630932115526,2085
1630932115530,2085
1630932115534,2086
1630932115538,2087
1630932115542,2087
1630932115546,2087
1630932115550,2087
1630932115554,2087
1630932115558,2087
1630932115562,2088
1630932115566,2089
1630932115570,2090
1630932115574,2091
1630932115578,2091
1630932115582,2092
1630932115586,2093
1630932115590,2094
1630932115594,2095
1630932115598,2095
1630932115602,2096
1630932115606,2096
1630932115610,2097
1630932115614,2099
1630932115618,2100
1630932115622,2102
1630932115626,2103
1630932115630,2103
1630932115634,2103
1630932115638,2104
1630932115642,2105
1630932115646,2105
1630932115650,2105
1630932115654,2105
1630932115658,2105
1630932115662,2104
1630932115666,2103
1630932115670,2102
1630932115674,2101
1630932115678,2100
1630932115682,2099
1630932115686,2097
1630932115690,2095
1630932115694,2093
1630932115698,2091
1630932115702,2090
1630932115706,2088
1630932115710,2087
1630932115714,2085
1630932115718,2083
1630932115722,2082
1630932115726,2082
1630932115730,2083
1630932115734,2084
1630932115738,2084
1630932115742,2083
1630932115746,2082
1630932115750,2081
1630932115754,2081
1630932115758,2081
1630932115762,2081
1630932115766,2081
1630932115770,2081
1630932115774,2081
1630932115778,2081
1630932115782,2081
1630932115786,2080
1630932115790,2079
1630932115794,2079
1630932115798,2079
1630932115802,2079
1630932115806,2080
1630932115810,2081
1630932115814,2081
1630932115818,2081
1630932115822,2080
1630932115826,2080
1630932115830,2079
1630932115834,2078
1630932115838,2077
1630932115842,2076
1630932115846,2076
1630932115850,2076
1630932115854,2077
1630932115858,2077
1630932115862,2076
1630932115866,2076
1630932115870,2075
1630932115874,2075
1630932115878,2075
1630932115882,2075
1630932115886,2075
1630932115890,2074
1630932115894,2074
1630932115898,2073
1630932115902,2073
1630932115906,2073
1630932115910,2073
1630932115914,2072
1630932115918,2072
1630932115922,2072
1630932115926,2072
1630932115930,2073
1630932115934,2073
1630932115938,2073
1630932115942,2073
1630932115946,2073
1630932115950,2074
1630932115954,2075
1630932115958,2075
1630932115962,2076
1630932115966,2077
1630932115970,2078
1630932115974,2079
1630932115978,2079
1630932115982,2080
1630932115986,2080
1630932115990,2079
1630932115994,2079
1630932115998,2079
1630932116002,2079
1630932116006,2079
1630932116010,2079
1630932116014,2079
1630932116018,2080
1630932116022,2080
1630932116026,2080
1630932116030,2081
1630932116034,2081
1630932116038,2081
1630932116042,2081
1630932116046,2082
1630932116050,2082
1630932116054,2083
1630932116058,2083
1630932116062,2083
1630932116066,2083
1630932116070,2083
1630932116074,2082
1630932116078,2082
1630932116082,2082
1630932116086,2081
1630932116090,2081
1630932116094,2080
1630932116098,2081
1630932116102,2081
1630932116106,2082
1630932116110,2082
1630932116114,2082
1630932116118,2082
1630932116122,2082
1630932116126,2081
1630932116130,2082
1630932116134,2082
1630932116138,2081
1630932116142,2081
1630932116146,2081
1630932116150,2080
1630932116154,2078
1630932116158,2076
1630932116162,2073
1630932116166,2072
1630932116170,2071
1630932116174,2071
1630932116178,2071
1630932116182,2071
1630932116186,2071
1630932116190,2070
1630932116194,2070
1630932116198,2069
1630932116202,2068
1630932116206,2068
1630932116210,2067
1630932116214,2066
1630932116218,2065
1630932116222,2065
1630932116226,2065
1630932116230,2068
1630932116234,2075
1630932116238,2087
1630932116242,2104
1630932116246,2121
1630932116250,2133
1630932116254,2133
1630932116258,2119
1630932116262,2096
1630932116266,2069
1630932116270,2048
1630932116274,2036
1630932116278,2034
1630932116282,2038
1630932116286,2043
1630932116290,2048
1630932116294,2050
1630932116298,2053
1630932116302,2054
1630932116306,2055
1630932116310,2055
1630932116314,2054
1630932116318,2053
1630932116322,2052
1630932116326,2052
1630932116330,2052
1630932116334,2053
1630932116338,2054
1630932116342,2054
1630932116346,2053
1630932116350,2053
1630932116354,2052
1630932116358,2052
1630932116362,2053
1630932116366,2053
1630932116370,2053
1630932116374,2054
1630932116378,2054
1630932116382,2054
1630932116386,2054
1630932116390,2054
1630932116394,2054
1630932116398,2054
1630932116402,2054
1630932116406,2055
1630932116410,2057
1630932116414,2058
1630932116418,2058
1630932116422,2059
1630932116426,2060
1630932116430,2061
1630932116434,2062
1630932116438,2063
1630932116442,2064
1630932116446,2065
1630932116450,2066
1630932116454,2067
1630932116458,2068
1630932116462,2070
1630932116466,2071
1630932116470,2071
1630932116474,2071
1630932116478,2070
1630932116482,2070
1630932116486,2071
1630932116490,2072
1630932116494,2072
1630932116498,2073
1630932116502,2072
1630932116506,2071
1630932116510,2070
1630932116514,2068
1630932116518,2065
1630932116522,2063
1630932116526,2061
1630932116530,2060
1630932116534,2058
1630932116538,2056
1630932116542,2055
1630932116546,2053
1630932116550,2052
1630932116554,2050
1630932116558,2048
1630932116562,2048
1630932116566,2048
1630932116570,2048
1630932116574,2048
1630932116578,2048
1630932116582,2047
1630932116586,2047
1630932116590,2046
1630932116594,2046
1630932116598,2045
1630932116602,2045
1630932116606,2044
1630932116610,2044
1630932116614,2045
1630932116618,2045
1630932116622,2046
1630932116626,2046
1630932116630,2046
1630932116634,2045
1630932116638,2045
1630932116642,2045
1630932116646,2046
1630932116650,2046
1630932116654,2047
1630932116658,2047
1630932116662,2047
1630932116666,2047
1630932116670,2047
1630932116674,2046
1630932116678,2046
1630932116682,2046
1630932116686,2046
1630932116690,2046
1630932116694,2046
1630932116698,2047
1630932116702,2047
1630932116706,2047
1630932116710,2047
1630932116714,2046
1630932116718,2045
1630932116722,2045
1630932116726,2045
1630932116730,2045
1630932116734,2045
1630932116738,2045
1630932116742,2045
1630932116746,2044
1630932116750,2044
1630932116754,2043
1630932116758,2043
1630932116762,2042
1630932116766,2042
1630932116770,2042
1630932116774,2042
1630932116778,2043
1630932116782,2043
1630932116786,2043
1630932116790,2042
1630932116794,2042
1630932116798,2042
1630932116802,2042
1630932116806,2042
1630932116810,2043
1630932116814,2043
1630932116818,2042
1630932116822,2041
1630932116826,2041
1630932116830,2040
1630932116834,2039
1630932116838,2038
1630932116842,2038
1630932116846,2038
1630932116850,2039
1630932116854,2040
1630932116858,2040
1630932116862,2040
1630932116866,2040
1630932116870,2040
1630932116874,2041
1630932116878,2041
1630932116882,2042
1630932116886,2042
1630932116890,2042
1630932116894,2042
1630932116898,2042
1630932116902,2042
1630932116906,2042
1630932116910,2042
1630932116914,2042
1630932116918,2041
1630932116922,2041
1630932116926,2042
1630932116930,2042
1630932116934,2043
1630932116938,2044
1630932116942,2045
1630932116946,2046
1630932116950,2046
1630932116954,2046
1630932116958,2046
1630932116962,2047
1630932116966,2047
1630932116970,2048
1630932116974,2048
1630932116978,2048
1630932116982,2048
1630932116986,2048
1630932116990,2048
1630932116994,2047
1630932116998,2046
1630932117002,2045
1630932117006,2044
1630932117010,2044
1630932117014,2044
1630932117018,2045
1630932117022,2045
1630932117026,2046
1630932117030,2047
1630932117034,2046
1630932117038,2046
1630932117042,2046
1630932117046,2046
1630932117050,2046
1630932117054,2045
1630932117058,2045
1630932117062,2046
1630932117066,2048
1630932117070,2055
1630932117074,2067
1630932117078,2084
1630932117082,2103
1630932117086,2117
1630932117090,2123
1630932117094,2115
1630932117098,2095
1630932117102,2068
1630932117106,2045
1630932117110,2028
1630932117114,2021
1630932117118,2022
1630932117122,2028
1630932117126,2034
1630932117130,2039
1630932117134,2042
1630932117138,2044
1630932117142,2045
1630932117146,2046
1630932117150,2046
1630932117154,2046
1630932117158,2045
1630932117162,2045
1630932117166,2044
1630932117170,2045
1630932117174,2046
1630932117178,2047
1630932117182,2048
1630932117186,2048
1630932117190,2048
1630932117194,2048
1630932117198,2048
1630932117202,2048
1630932117206,2048
1630932117210,2048
1630932117214,2048
1630932117218,2048
1630932117222,2049
1630932117226,2049
1630932117230,2050
1630932117234,2051
1630932117238,2052
1630932117242,2053
1630932117246,2053
1630932117250,2054
1630932117254,2055
1630932117258,2055
1630932117262,2056
1630932117266,2056
1630932117270,2057
1630932117274,2056
1630932117278,2057
1630932117282,2058
1630932117286,2058
1630932117290,2059
1630932117294,2061
1630932117298,2061
1630932117302,2062
1630932117306,2063
1630932117310,2064
1630932117314,2063
1630932117318,2063
1630932117322,2063
1630932117326,2063
1630932117330,2063
1630932117334,2063
1630932117338,2063
1630932117342,2063
1630932117346,2062
1630932117350,2061
1630932117354,2059
1630932117358,2057
1630932117362,2055
1630932117366,2053
1630932117370,2052
1630932117374,2050
1630932117378,2048
1630932117382,2048
1630932117386,2046
1630932117390,2044
1630932117394,2043
1630932117398,2042
1630932117402,2041
1630932117406,2040
1630932117410,2040
1630932117414,2040
1630932117418,2040
1630932117422,2039
1630932117426,2039
1630932117430,2038
1630932117434,2038
1630932117438,2038
1630932117442,2038
1630932117446,2039
1630932117450,2039
1630932117454,2040
1630932117458,2040
1630932117462,2041
1630932117466,2042
1630932117470,2042
1630932117474,2041
1630932117478,2040
1630932117482,2039
1630932117486,2039
1630932117490,2040
1630932117494,2041
1630932117498,2042
1630932117502,2042
1630932117506,2042
1630932117510,2041
1630932117514,2041
1630932117518,2042
1630932117522,2043
1630932117526,2043
1630932117530,2043
1630932117534,2042
1630932117538,2042
1630932117542,2041
1630932117546,2040
1630932117550,2039
1630932117554,2039
1630932117558,2038
1630932117562,2037
1630932117566,2037
1630932117570,2036
1630932117574,2036
1630932117578,2036
1630932117582,2036
1630932117586,2036
1630932117590,2035
1630932117594,2034
1630932117598,2033
1630932117602,2032
1630932117606,2031
1630932117610,2031
1630932117614,2031
1630932117618,2031
1630932117622,2031
1630932117626,2032
1630932117630,2032
1630932117634,2032
1630932117638,2032
1630932117642,2032
1630932117646,2031
1630932117650,2031
1630932117654,2032
1630932117658,2032
1630932117662,2032
1630932117666,2033
1630932117670,2033
1630932117674,2034
1630932117678,2033
1630932117682,2033
1630932117686,2031
1630932117690,2030
1630932117694,2030
1630932117698,2030
1630932117702,2030
1630932117706,2030
1630932117710,2029
1630932117714,2028
1630932117718,2027
1630932117722,2026
1630932117726,2025
1630932117730,2024
1630932117734,2025
1630932117738,2025
1630932117742,2025
1630932117746,2026
1630932117750,2026
1630932117754,2026
1630932117758,2025
1630932117762,2024
1630932117766,2023
1630932117770,2022
1630932117774,2020
1630932117778,2019
1630932117782,2019
1630932117786,2018
1630932117790,2018
1630932117794,2018
1630932117798,2018
1630932117802,2019
1630932117806,2019
1630932117810,2021
1630932117814,2022
1630932117818,2023
1630932117822,2023
1630932117826,2023
1630932117830,2023
1630932117834,2022
1630932117838,2021
1630932117842,2021
1630932117846,2021
1630932117850,2021
1630932117854,2022
1630932117858,2022
1630932117862,2022
1630932117866,2021
1630932117870,2021
1630932117874,2020
1630932117878,2020
1630932117882,2019
1630932117886,2020
1630932117890,2021
1630932117894,2021
1630932117898,2021
1630932117902,2021
1630932117906,2020
1630932117910,2020
1630932117914,2019
1630932117918,2018
1630932117922,2019
1630932117926,2022
1630932117930,2029
1630932117934,2042
1630932117938,2059
1630932117942,2077
1630932117946,2089
1630932117950,2091
1630932117954,2080
1630932117958,2058
1630932117962,2033
1630932117966,2011
1630932117970,1998
1630932117974,1995
1630932117978,1998
1630932117982,2005
1630932117986,2011
1630932117990,2014
1630932117994,2017
1630932117998,2018
1630932118002,2019
1630932118006,2020
1630932118010,2021
1630932118014,2022
1630932118018,2023
1630932118022,2024
1630932118026,2024
1630932118030,2024
1630932118034,2024
1630932118038,2023
1630932118042,2023
1630932118046,2024
1630932118050,2025
1630932118054,2027
1630932118058,2028
1630932118062,2029
1630932118066,2029
1630932118070,2029
1630932118074,2029
1630932118078,2029
1630932118082,2029
1630932118086,2029
1630932118090,2030
1630932118094,2031
1630932118098,2032
1630932118102,2033
1630932118106,2034
1630932118110,2034
1630932118114,2034
1630932118118,2034
1630932118122,2035
1630932118126,2036
1630932118130,2038
1630932118134,2040
1630932118138,2042
1630932118142,2044
1630932118146,2044
1630932118150,2045
1630932118154,2045
1630932118158,2045
1630932118162,2045
1630932118166,2046
1630932118170,2047
1630932118174,2047
1630932118178,2048
1630932118182,2048
1630932118186,2048
1630932118190,2048
1630932118194,2048
1630932118198,2048
1630932118202,2048
1630932118206,2047
1630932118210,2046
1630932118214,2045
1630932118218,2043
1630932118222,2042
1630932118226,2040
1630932118230,2039
1630932118234,2037
1630932118238,2035
1630932118242,2034
1630932118246,2032
1630932118250,2031
1630932118254,2031
1630932118258,2031
1630932118262,2030
1630932118266,2030
1630932118270,2029
1630932118274,2029
1630932118278,2028
1630932118282,2027
1630932118286,2027
1630932118290,2027
1630932118294,2027
1630932118298,2027
1630932118302,2028
1630932118306,2029
1630932118310,2029
1630932118314,2029
1630932118318,2029
1630932118322,2029
1630932118326,2029
1630932118330,2030
1630932118334,2031
1630932118338,2032
1630932118342,2032
1630932118346,2032
1630932118350,2032
1630932118354,2031
1630932118358,2031
1630932118362,2031
1630932118366,2031
1630932118370,2032
1630932118374,2032
1630932118378,2032
1630932118382,2033
1630932118386,2033
1630932118390,2033
1630932118394,2033
1630932118398,2033
1630932118402,2033
1630932118406,2033
1630932118410,2034
1630932118414,2034
1630932118418,2034
1630932118422,2035
1630932118426,2035
1630932118430,2035
1630932118434,2035
1630932118438,2034
1630932118442,2034
1630932118446,2034
1630932118450,2034
1630932118454,2034
1630932118458,2035
1630932118462,2035
1630932118466,2035
1630932118470,2035
1630932118474,2035
1630932118478,2035
1630932118482,2035
1630932118486,2035
1630932118490,2036
1630932118494,2037
1630932118498,2037
1630932118502,2038
1630932118506,2038
1630932118510,2038
1630932118514,2038
1630932118518,2038
1630932118522,2038
1630932118526,2038
1630932118530,2038
1630932118534,2038
1630932118538,2038
1630932118542,2038
1630932118546,2038
1630932118550,2038
1630932118554,2038
1630932118558,2038
1630932118562,2040
1630932118566,2041
1630932118570,2042
1630932118574,2042
1630932118578,2042
1630932118582,2043
1630932118586,2043
1630932118590,2044
1630932118594,2044
1630932118598,2043
1630932118602,2042
1630932118606,2041
1630932118610,2040
1630932118614,2041
1630932118618,2042
1630932118622,2042
1630932118626,2043
1630932118630,2043
1630932118634,2043
1630932118638,2043
1630932118642,2042
1630932118646,2042
1630932118650,2043
1630932118654,2044
1630932118658,2045
1630932118662,2047
1630932118666,2048
1630932118670,2048
1630932118674,2048
1630932118678,2048
1630932118682,2048
1630932118686,2049
1630932118690,2051
1630932118694,2052
1630932118698,2053
1630932118702,2053
1630932118706,2052
1630932118710,2051
1630932118714,2050
1630932118718,2048
1630932118722,2048
1630932118726,2048
1630932118730,2048
1630932118734,2048
1630932118738,2048
1630932118742,2048
1630932118746,2048
1630932118750,2047
1630932118754,2046
1630932118758,2045
1630932118762,2045
1630932118766,2046
1630932118770,2047
1630932118774,2047
1630932118778,2047
1630932118782,2046
1630932118786,2046
1630932118790,2046
1630932118794,2048
1630932118798,2054
1630932118802,2065
1630932118806,2081
1630932118810,2098
1630932118814,2112
1630932118818,2117
1630932118822,2110
1630932118826,2092
1630932118830,2068
1630932118834,2045
1630932118838,2029
1630932118842,2022
1630932118846,2023
1630932118850,2029
1630932118854,2036
1630932118858,2041
1630932118862,2045
1630932118866,2047
1630932118870,2048
1630932118874,2048
1630932118878,2048
1630932118882,2048
1630932118886,2048
1630932118890,2048
1630932118894,2049
1630932118898,2049
1630932118902,2049
1630932118906,2050
1630932118910,2051
1630932118914,2051
1630932118918,2052
1630932118922,2051
1630932118926,2051
1630932118930,2052
1630932118934,2053
1630932118938,2054
1630932118942,2054
1630932118946,2055
1630932118950,2055
1630932118954,2055
1630932118958,2055
1630932118962,2056
1630932118966,2057
1630932118970,2057
1630932118974,2058
1630932118978,2059
1630932118982,2060
1630932118986,2060
1630932118990,2061
1630932118994,2061
1630932118998,2061
1630932119002,2062
1630932119006,2063
1630932119010,2065
1630932119014,2067
1630932119018,2068
1630932119022,2069
1630932119026,2070
1630932119030,2071
1630932119034,2072
1630932119038,2073
1630932119042,2073
1630932119046,2074
1630932119050,2074
1630932119054,2074
1630932119058,2074
1630932119062,2075
1630932119066,2076
1630932119070,2075
1630932119074,2074
1630932119078,2073
1630932119082,2072
1630932119086,2071
1630932119090,2071
1630932119094,2071
1630932119098,2070
1630932119102,2067
1630932119106,2064
1630932119110,2061
1630932119114,2058
1630932119118,2055
1630932119122,2053
1630932119126,2053
1630932119130,2052
1630932119134,2052
1630932119138,2052
1630932119142,2052
1630932119146,2053
1630932119150,2053
1630932119154,2053
1630932119158,2054
1630932119162,2054
1630932119166,2054
1630932119170,2054
1630932119174,2053
1630932119178,2053
1630932119182,2052
1630932119186,2053
1630932119190,2054
1630932119194,2056
1630932119198,2058
1630932119202,2060
1630932119206,2060
1630932119210,2059
1630932119214,2059
1630932119218,2061
1630932119222,2063
1630932119226,2066
1630932119230,2068
1630932119234,2069
1630932119238,2070
1630932119242,2071
1630932119246,2072
1630932119250,2073
1630932119254,2075
1630932119258,2076
1630932119262,2076
1630932119266,2076
1630932119270,2076
1630932119274,2075
1630932119278,2075
1630932119282,2075
1630932119286,2076
1630932119290,2077
1630932119294,2078
1630932119298,2079
1630932119302,2081
1630932119306,2083
1630932119310,2085
1630932119314,2086
1630932119318,2087
1630932119322,2087
1630932119326,2087
1630932119330,2087
1630932119334,2087
1630932119338,2088
1630932119342,2090
1630932119346,2092
1630932119350,2093
1630932119354,2093
1630932119358,2092
1630932119362,2091
1630932119366,2090
1630932119370,2090
1630932119374,2090
1630932119378,2091
1630932119382,2091
1630932119386,2091
1630932119390,2091
1630932119394,2090
1630932119398,2090
1630932119402,2089
1630932119406,2089
1630932119410,2090
1630932119414,2091
1630932119418,2091
1630932119422,2091
1630932119426,2090
1630932119430,2089
1630932119434,2088
1630932119438,2087
1630932119442,2088
1630932119446,2088
1630932119450,2088
1630932119454,2088
1630932119458,2088
1630932119462,2089
1630932119466,2090
1630932119470,2093
1630932119474,2095
1630932119478,2097
1630932119482,2098
1630932119486,2099
1630932119490,2100
1630932119494,2100
1630932119498,2100
1630932119502,2100
1630932119506,2099
1630932119510,2098
1630932119514,2098
1630932119518,2098
1630932119522,2098
1630932119526,2098
1630932119530,2098
1630932119534,2099
1630932119538,2099
1630932119542,2100
1630932119546,2100
1630932119550,2099
1630932119554,2098
1630932119558,2097
1630932119562,2097
1630932119566,2097
1630932119570,2097
1630932119574,2096
1630932119578,2096
1630932119582,2095
1630932119586,2094
1630932119590,2093
1630932119594,2091
1630932119598,2089
1630932119602,2087
1630932119606,2086
1630932119610,2086
1630932119614,2088
1630932119618,2090
1630932119622,2091
1630932119626,2091
1630932119630,2089
1630932119634,2088
1630932119638,2087
1630932119642,2087
1630932119646,2088
1630932119650,2088
1630932119654,2089
1630932119658,2090
1630932119662,2093
1630932119666,2098
1630932119670,2107
1630932119674,2122
1630932119678,2140
1630932119682,2154
1630932119686,2160
1630932119690,2154
1630932119694,2136
1630932119698,2111
1630932119702,2087
1630932119706,2070
1630932119710,2062
1630932119714,2061
1630932119718,2066
1630932119722,2071
1630932119726,2075
1630932119730,2079
1630932119734,2082
1630932119738,2083
1630932119742,2084
1630932119746,2084
1630932119750,2083
1630932119754,2082
1630932119758,2082
1630932119762,2082
1630932119766,2083
1630932119770,2083
1630932119774,2083
1630932119778,2082
1630932119782,2082
1630932119786,2082
1630932119790,2082
1630932119794,2083
1630932119798,2083
1630932119802,2082
1630932119806,2082
1630932119810,2082
1630932119814,2083
1630932119818,2084
1630932119822,2085
1630932119826,2086
1630932119830,2085
1630932119834,2084
1630932119838,2083
1630932119842,2083
1630932119846,2084
1630932119850,2085
1630932119854,2087
1630932119858,2088
1630932119862,2089
1630932119866,2089
1630932119870,2088
1630932119874,2088
1630932119878,2088
1630932119882,2089
1630932119886,2090
1630932119890,2092
1630932119894,2094
1630932119898,2095
1630932119902,2095
1630932119906,2096
1630932119910,2095
1630932119914,2095
1630932119918,2095
1630932119922,2095
1630932119926,2095
1630932119930,2094
1630932119934,2093
1630932119938,2092
1630932119942,2091
1630932119946,2089
1630932119950,2088
1630932119954,2086
1630932119958,2083
1630932119962,2080
1630932119966,2077
1630932119970,2075
1630932119974,2075
1630932119978,2074
1630932119982,2074
1630932119986,2072
1630932119990,2070
1630932119994,2067
1630932119998,2064
1630932120002,2062
1630932120006,2062
1630932120010,2062
1630932120014,2063
1630932120018,2063
1630932120022,2062
1630932120026,2061
1630932120030,2060
1630932120034,2057
1630932120038,2057
1630932120042,2056
1630932120046,2057
1630932120050,2058
1630932120054,2059
1630932120058,2060
1630932120062,2061
1630932120066,2061
1630932120070,2060
1630932120074,2059
1630932120078,2059
1630932120082,2059
1630932120086,2060
1630932120090,2061
1630932120094,2064
1630932120098,2066
1630932120102,2067
1630932120106,2068
1630932120110,2067
1630932120114,2066
1630932120118,2066
1630932120122,2066
1630932120126,2067
1630932120130,2069
1630932120134,2070
1630932120138,2071
1630932120142,2070
1630932120146,2069
1630932120150,2068
1630932120154,2068
1630932120158,2068
1630932120162,2068
1630932120166,2067
1630932120170,2066
1630932120174,2065
1630932120178,2064
1630932120182,2065
1630932120186,2065
1630932120190,2066
1630932120194,2066
1630932120198,2065
1630932120202,2064
1630932120206,2063
1630932120210,2063
1630932120214,2063
1630932120218,2063
1630932120222,2064
1630932120226,2064
1630932120230,2064
1630932120234,2063
1630932120238,2062
1630932120242,2062
1630932120246,2061
1630932120250,2062
1630932120254,2063
1630932120258,2063
1630932120262,2063
1630932120266,2062
1630932120270,2062
1630932120274,2062
1630932120278,2063
1630932120282,2064
1630932120286,2064
1630932120290,2065
1630932120294,2065
1630932120298,2065
1630932120302,2065
1630932120306,2066
1630932120310,2067
1630932120314,2067
1630932120318,2068
1630932120322,2069
1630932120326,2070
1630932120330,2072
1630932120334,2075
1630932120338,2077
1630932120342,2079
1630932120346,2081
1630932120350,2082
1630932120354,2082
1630932120358,2083
1630932120362,2084
1630932120366,2085
1630932120370,2086
1630932120374,2087
1630932120378,2086
1630932120382,2085
1630932120386,2085
1630932120390,2084
1630932120394,2084
1630932120398,2084
1630932120402,2084
1630932120406,2084
1630932120410,2084
1630932120414,2083
1630932120418,2083
1630932120422,2083
1630932120426,2083
1630932120430,2083
1630932120434,2083
1630932120438,2082
1630932120442,2080
1630932120446,2079
1630932120450,2079
1630932120454,2078
1630932120458,2081
1630932120462,2086
1630932120466,2097
1630932120470,2114
1630932120474,2133
1630932120478,2148
1630932120482,2153
1630932120486,2145
1630932120490,2125
1630932120494,2100
1630932120498,2076
1630932120502,2060
1630932120506,2054
1630932120510,2056
1630932120514,2062
1630932120518,2069
1630932120522,2073
1630932120526,2076
1630932120530,2077
1630932120534,2079
1630932120538,2080
1630932120542,2082
1630932120546,2084
1630932120550,2085
1630932120554,2084
1630932120558,2083
1630932120562,2082
1630932120566,2081
1630932120570,2082
1630932120574,2084
1630932120578,2085
1630932120582,2085
1630932120586,2084
1630932120590,2083
1630932120594,2083
1630932120598,2084
1630932120602,2085
1630932120606,2085
1630932120610,2084
1630932120614,2083
1630932120618,2082
1630932120622,2082
1630932120626,2083
1630932120630,2084
1630932120634,2084
1630932120638,2084
1630932120642,2084
1630932120646,2084
1630932120650,2085
1630932120654,2087
1630932120658,2088
1630932120662,2089
1630932120666,2089
1630932120670,2089
1630932120674,2090
1630932120678,2090
1630932120682,2093
1630932120686,2096
1630932120690,2099
1630932120694,2101
1630932120698,2102
1630932120702,2101
1630932120706,2099
1630932120710,2097
1630932120714,2096
1630932120718,2096
1630932120722,2097
1630932120726,2097
1630932120730,2097
1630932120734,2095
1630932120738,2092
1630932120742,2089
1630932120746,2086
1630932120750,2083
1630932120754,2081
1630932120758,2080
1630932120762,2078
1630932120766,2076
1630932120770,2074
1630932120774,2072
1630932120778,2071
1630932120782,2070
1630932120786,2069
1630932120790,2068
1630932120794,2066
1630932120798,2065
1630932120802,2063
1630932120806,2061
1630932120810,2060
1630932120814,2059
1630932120818,2059
1630932120822,2059
1630932120826,2059
1630932120830,2060
1630932120834,2060
1630932120838,2060
1630932120842,2059
1630932120846,2057
1630932120850,2054
1630932120854,2053
1630932120858,2053
1630932120862,2053
1630932120866,2053
1630932120870,2052
1630932120874,2050
1630932120878,2048
1630932120882,2046
1630932120886,2045
1630932120890,2045
1630932120894,2046
1630932120898,2045
1630932120902,2044
1630932120906,2043
1630932120910,2042
1630932120914,2041
1630932120918,2041
1630932120922,2040
1630932120926,2040
1630932120930,2038
1630932120934,2036
1630932120938,2035
1630932120942,2034
1630932120946,2034
1630932120950,2034
1630932120954,2033
1630932120958,2031
1630932120962,2028
1630932120966,2027
1630932120970,2027
1630932120974,2028
1630932120978,2029
1630932120982,2028
1630932120986,2027
1630932120990,2025
1630932120994,2024
1630932120998,2023
1630932121002,2024
1630932121006,2025
1630932121010,2026
1630932121014,2026
1630932121018,2027
1630932121022,2026
1630932121026,2025
1630932121030,2024
1630932121034,2023
1630932121038,2023
1630932121042,2023
1630932121046,2025
1630932121050,2026
1630932121054,2026
1630932121058,2025
1630932121062,2024
1630932121066,2023
1630932121070,2022
1630932121074,2022
1630932121078,2023
1630932121082,2024
1630932121086,2024
1630932121090,2024
1630932121094,2024
1630932121098,2025
1630932121102,2027
1630932121106,2029
1630932121110,2030
1630932121114,2030
1630932121118,2029
1630932121122,2028
1630932121126,2027
1630932121130,2026
1630932121134,2027
1630932121138,2027
1630932121142,2026
1630932121146,2026
1630932121150,2024
1630932121154,2023
1630932121158,2022
1630932121162,2023
1630932121166,2024
1630932121170,2025
1630932121174,2026
1630932121178,2026
1630932121182,2025
1630932121186,2023
1630932121190,2022
1630932121194,2021
1630932121198,2020
1630932121202,2021
1630932121206,2022
1630932121210,2027
1630932121214,2036
1630932121218,2048
1630932121222,2067
1630932121226,2086
1630932121230,2101
1630932121234,2104
1630932121238,2093
1630932121242,2069
1630932121246,2041
1630932121250,2016
1630932121254,2000
1630932121258,1995
1630932121262,1998
1630932121266,2004
1630932121270,2009
1630932121274,2012
1630932121278,2014
1630932121282,2016
1630932121286,2017
1630932121290,2018
1630932121294,2019
1630932121298,2020
1630932121302,2020
1630932121306,2018
1630932121310,2018
1630932121314,2016
1630932121318,2016
1630932121322,2016
1630932121326,2017
1630932121330,2018
1630932121334,2018
1630932121338,2019
1630932121342,2019
1630932121346,2020
1630932121350,2020
1630932121354,2021
1630932121358,2021
1630932121362,2021
1630932121366,2022
1630932121370,2024
1630932121374,2026
1630932121378,2028
1630932121382,2030
1630932121386,2031
1630932121390,2032
1630932121394,2032
1630932121398,2032
1630932121402,2033
1630932121406,2034
1630932121410,2036
1630932121414,2038
1630932121418,2039
1630932121422,2039
1630932121426,2040
1630932121430,2042
1630932121434,2043
1630932121438,2044
1630932121442,2045
1630932121446,2047
1630932121450,2048
1630932121454,2049
1630932121458,2051
1630932121462,2052
1630932121466,2053
1630932121470,2054
1630932121474,2053
1630932121478,2053
1630932121482,2052
1630932121486,2051
1630932121490,2050
1630932121494,2049
1630932121498,2048
1630932121502,2048
1630932121506,2046
1630932121510,2045
1630932121514,2044
1630932121518,2043
1630932121522,2042
1630932121526,2042
1630932121530,2041
1630932121534,2040
1630932121538,2040
1630932121542,2039
1630932121546,2038
1630932121550,2038
1630932121554,2037
1630932121558,2037
1630932121562,2037
1630932121566,2037
1630932121570,2038
1630932121574,2039
1630932121578,2040
1630932121582,2040
1630932121586,2039
1630932121590,2038
1630932121594,2036
1630932121598,2034
1630932121602,2033
1630932121606,2033
1630932121610,2033
1630932121614,2033
1630932121618,2033
1630932121622,2033
1630932121626,2032
1630932121630,2032
1630932121634,2031
1630932121638,2031
1630932121642,2030
1630932121646,2030
1630932121650,2029
1630932121654,2030
1630932121658,2030
1630932121662,2031
1630932121666,2032
1630932121670,2031
1630932121674,2030
1630932121678,2028
1630932121682,2026
1630932121686,2025
1630932121690,2024
1630932121694,2024
1630932121698,2023
1630932121702,2023
1630932121706,2022
1630932121710,2022
1630932121714,2022
1630932121718,2022
1630932121722,2022
1630932121726,2022
1630932121730,2023
1630932121734,2024
1630932121738,2025
1630932121742,2025
1630932121746,2026
1630932121750,2025
1630932121754,2025
1630932121758,2025
1630932121762,2025
1630932121766,2025
1630932121770,2026
1630932121774,2027
1630932121778,2028
1630932121782,2029
1630932121786,2029
1630932121790,2030
1630932121794,2029
1630932121798,2029
1630932121802,2030
1630932121806,2030
1630932121810,2032
1630932121814,2034
1630932121818,2035
1630932121822,2036
1630932121826,2036
1630932121830,2036
1630932121834,2035
1630932121838,2034
1630932121842,2034
1630932121846,2034
1630932121850,2035
1630932121854,2036
1630932121858,2037
1630932121862,2037
1630932121866,2038
1630932121870,2038
1630932121874,2039
1630932121878,2039
1630932121882,2040
1630932121886,2040
1630932121890,2041
1630932121894,2042
1630932121898,2043
1630932121902,2044
1630932121906,2044
1630932121910,2044
1630932121914,2044
1630932121918,2043
1630932121922,2041
1630932121926,2040
1630932121930,2040
1630932121934,2040
1630932121938,2040
1630932121942,2041
1630932121946,2041
1630932121950,2040
1630932121954,2040
1630932121958,2040
1630932121962,2040
1630932121966,2039
1630932121970,2039
1630932121974,2039
1630932121978,2038
1630932121982,2038
1630932121986,2039
1630932121990,2039
1630932121994,2042
1630932121998,2048
1630932122002,2059
1630932122006,2076
1630932122010,2095
1630932122014,2112
1630932122018,2119
1630932122022,2112
1630932122026,2092
1630932122030,2065
1630932122034,2040
1630932122038,2021
1630932122042,2013
1630932122046,2014
1630932122050,2018
1630932122054,2024
1630932122058,2028
1630932122062,2032
1630932122066,2035
1630932122070,2037
1630932122074,2039
1630932122078,2038
1630932122082,2036
1630932122086,2034
1630932122090,2034
1630932122094,2035
1630932122098,2038
1630932122102,2040
1630932122106,2042
1630932122110,2042
1630932122114,2042
1630932122118,2041
1630932122122,2041
1630932122126,2041
1630932122130,2042
1630932122134,2042
1630932122138,2042
1630932122142,2042
1630932122146,2042
1630932122150,2041
1630932122154,2041
1630932122158,2040
1630932122162,2041
1630932122166,2040
1630932122170,2039
1630932122174,2038
1630932122178,2037
1630932122182,2036
1630932122186,2034
1630932122190,2032
1630932122194,2029
1630932122198,2025
1630932122202,2022
1630932122206,2019
1630932122210,2017
1630932122214,2016
1630932122218,2015
1630932122222,2015
1630932122226,2014
1630932122230,2014
1630932122234,2014
1630932122238,2014
1630932122242,2015
1630932122246,2015
1630932122250,2015
1630932122254,2014
1630932122258,2013
1630932122262,2012
1630932122266,2011
1630932122270,2010
1630932122274,2009
1630932122278,2009
1630932122282,2009
1630932122286,2008
1630932122290,2006
1630932122294,2004
1630932122298,2003
1630932122302,2001
1630932122306,2000
1630932122310,1999
1630932122314,1998
1630932122318,1996
1630932122322,1995
1630932122326,1993
1630932122330,1992
1630932122334,1991
1630932122338,1990
1630932122342,1990
1630932122346,1990
1630932122350,1990
1630932122354,1991
1630932122358,1990
1630932122362,1990
1630932122366,1990
1630932122370,1991
1630932122374,1992
1630932122378,1993
1630932122382,1993
1630932122386,1993
1630932122390,1992
1630932122394,1992
1630932122398,1992
1630932122402,1991
1630932122406,1990
1630932122410,1990
1630932122414,1989
1630932122418,1988
1630932122422,1988
1630932122426,1988
1630932122430,1989
1630932122434,1989
1630932122438,1990
1630932122442,1990
1630932122446,1990
1630932122450,1990
1630932122454,1990
1630932122458,1991
1630932122462,1991
1630932122466,1992
1630932122470,1992
1630932122474,1992
1630932122478,1991
1630932122482,1990
1630932122486,1991
1630932122490,1991
1630932122494,1992
1630932122498,1993
1630932122502,1993
1630932122506,1992
1630932122510,1991
1630932122514,1991
1630932122518,1990
1630932122522,1990
1630932122526,1989
1630932122530,1988
1630932122534,1988
1630932122538,1988
1630932122542,1989
1630932122546,1989
1630932122550,1989
1630932122554,1989
1630932122558,1990
1630932122562,1990
1630932122566,1991
1630932122570,1992
1630932122574,1993
1630932122578,1994
1630932122582,1995
1630932122586,1996
1630932122590,1996
1630932122594,1997
1630932122598,1997
1630932122602,1997
1630932122606,1998
1630932122610,1999
1630932122614,2000
1630932122618,2002
1630932122622,2003
1630932122626,2003
1630932122630,2004
1630932122634,2004
1630932122638,2005
1630932122642,2005
1630932122646,2007
1630932122650,2008
1630932122654,2010
1630932122658,2012
1630932122662,2013
1630932122666,2014
1630932122670,2014
1630932122674,2014
1630932122678,2013
1630932122682,2012
1630932122686,2011
1630932122690,2011
1630932122694,2011
1630932122698,2012
1630932122702,2013
1630932122706,2013
1630932122710,2013
1630932122714,2012
1630932122718,2012
1630932122722,2013
1630932122726,2014
1630932122730,2015
1630932122734,2015
1630932122738,2016
1630932122742,2016
1630932122746,2016
1630932122750,2016
1630932122754,2017
1630932122758,2019
1630932122762,2023
1630932122766,2032
1630932122770,2045
1630932122774,2062
1630932122778,2079
1630932122782,2090
1630932122786,2090
1630932122790,2078
1630932122794,2056
1630932122798,2031
1630932122802,2011
1630932122806,2000
1630932122810,1998
1630932122814,2003
1630932122818,2010
1630932122822,2015
1630932122826,2019
1630932122830,2022
1630932122834,2023
1630932122838,2024
1630932122842,2024
1630932122846,2025
1630932122850,2026
1630932122854,2027
1630932122858,2029
1630932122862,2030
1630932122866,2032
1630932122870,2033
1630932122874,2034
1630932122878,2036
1630932122882,2037
1630932122886,2039
1630932122890,2040
1630932122894,2042
1630932122898,2044
1630932122902,2046
1630932122906,2047
1630932122910,2048
1630932122914,2048
1630932122918,2049
1630932122922,2050
1630932122926,2051
1630932122930,2053
1630932122934,2055
1630932122938,2057
1630932122942,2060
1630932122946,2062
1630932122950,2063
1630932122954,2065
1630932122958,2065
1630932122962,2066
1630932122966,2067
1630932122970,2068
1630932122974,2069
1630932122978,2071
1630932122982,2074
1630932122986,2076
1630932122990,2078
1630932122994,2079
1630932122998,2080
1630932123002,2080
1630932123006,2081
1630932123010,2082
1630932123014,2083
1630932123018,2083
1630932123022,2084
1630932123026,2084
1630932123030,2084
1630932123034,2083
1630932123038,2082
1630932123042,2080
1630932123046,2079
1630932123050,2078
1630932123054,2077
1630932123058,2075
1630932123062,2074
1630932123066,2072
1630932123070,2069
1630932123074,2067
1630932123078,2066
1630932123082,2065
1630932123086,2064
1630932123090,2064
1630932123094,2064
1630932123098,2064
1630932123102,2064
1630932123106,2063
1630932123110,2063
1630932123114,2062
1630932123118,2061
1630932123122,2060
1630932123126,2060
1630932123130,2061
1630932123134,2062
1630932123138,2063
1630932123142,2063
1630932123146,2063
1630932123150,2063
1630932123154,2063
1630932123158,2063
1630932123162,2063
1630932123166,2063
1630932123170,2063
1630932123174,2063
1630932123178,2064
1630932123182,2064
1630932123186,2064
1630932123190,2064
1630932123194,2063
1630932123198,2063
1630932123202,2063
1630932123206,2063
1630932123210,2063
1630932123214,2063
1630932123218,2063
1630932123222,2063
1630932123226,2063
1630932123230,2063
1630932123234,2062
1630932123238,2062
1630932123242,2062
1630932123246,2062
1630932123250,2063
1630932123254,2063
1630932123258,2064
1630932123262,2064
1630932123266,2064
1630932123270,2064
1630932123274,2063
1630932123278,2063
1630932123282,2063
1630932123286,2063
1630932123290,2063
1630932123294,2063
1630932123298,2063
1630932123302,2063
1630932123306,2063
1630932123310,2063
1630932123314,2062
1630932123318,2062
1630932123322,2061
1630932123326,2061
1630932123330,2062
1630932123334,2062
1630932123338,2063
1630932123342,2064
1630932123346,2064
1630932123350,2065
1630932123354,2065
1630932123358,2064
1630932123362,2064
1630932123366,2065
1630932123370,2065
1630932123374,2066
1630932123378,2066
1630932123382,2066
1630932123386,2066
1630932123390,2066
1630932123394,2066
1630932123398,2066
1630932123402,2065
1630932123406,2065
1630932123410,2065
1630932123414,2066
1630932123418,2067
1630932123422,2068
1630932123426,2069
1630932123430,2069
1630932123434,2069
1630932123438,2070
1630932123442,2070
1630932123446,2070
1630932123450,2071
1630932123454,2071
1630932123458,2071
1630932123462,2071
1630932123466,2070
1630932123470,2069
1630932123474,2068
1630932123478,2067
1630932123482,2067
1630932123486,2067
1630932123490,2068
1630932123494,2069
1630932123498,2069
1630932123502,2070
1630932123506,2070
1630932123510,2070
1630932123514,2070
1630932123518,2069
1630932123522,2068
1630932123526,2068
1630932123530,2069
1630932123534,2073
1630932123538,2082
1630932123542,2095
1630932123546,2113
1630932123550,2132
1630932123554,2145
1630932123558,2147
1630932123562,2135
1630932123566,2111
1630932123570,2083
1630932123574,2058
1630932123578,2045
1630932123582,2041
1630932123586,2045
1630932123590,2051
1630932123594,2057
1630932123598,2060
1630932123602,2063
1630932123606,2064
1630932123610,2064
1630932123614,2065
1630932123618,2066
1630932123622,2067
1630932123626,2067
1630932123630,2067
1630932123634,2067
1630932123638,2066
1630932123642,2067
1630932123646,2067
1630932123650,2068
1630932123654,2068
1630932123658,2069
1630932123662,2069
1630932123666,2069
1630932123670,2069
1630932123674,2069
1630932123678,2069
1630932123682,2069
1630932123686,2069
1630932123690,2069
1630932123694,2070
1630932123698,2071
1630932123702,2072
1630932123706,2073
1630932123710,2073
1630932123714,2073
1630932123718,2073
1630932123722,2073
1630932123726,2074
1630932123730,2075
1630932123734,2077
1630932123738,2079
1630932123742,2080
1630932123746,2081
1630932123750,2082
1630932123754,2083
1630932123758,2084
1630932123762,2085
1630932123766,2086
1630932123770,2087
1630932123774,2088
1630932123778,2088
1630932123782,2089
1630932123786,2089
1630932123790,2088
1630932123794,2088
1630932123798,2087
1630932123802,2087
1630932123806,2086
1630932123810,2086
1630932123814,2085
1630932123818,2084
1630932123822,2082
1630932123826,2081
1630932123830,2079
1630932123834,2076
1630932123838,2074
1630932123842,2071
1630932123846,2069
1630932123850,2068
1630932123854,2067
1630932123858,2067
1630932123862,2066
1630932123866,2065
1630932123870,2064
1630932123874,2063
1630932123878,2062
1630932123882,2061
1630932123886,2061
1630932123890,2062
1630932123894,2062
1630932123898,2063
1630932123902,2063
1630932123906,2064
1630932123910,2064
1630932123914,2064
1630932123918,2064
1630932123922,2064
1630932123926,2064
1630932123930,2066
1630932123934,2067
1630932123938,2068
1630932123942,2070
1630932123946,2070
1630932123950,2071
1630932123954,2071
1630932123958,2070
1630932123962,2070
1630932123966,2069
1630932123970,2069
1630932123974,2070
1630932123978,2070
1630932123982,2071
1630932123986,2072
1630932123990,2072
1630932123994,2071
1630932123998,2071
1630932124002,2071
1630932124006,2071
1630932124010,2072
1630932124014,2072
1630932124018,2073
1630932124022,2073
1630932124026,2073
1630932124030,2073
1630932124034,2072
1630932124038,2072
1630932124042,2071
1630932124046,2072
1630932124050,2072
1630932124054,2073
1630932124058,2073
1630932124062,2073
1630932124066,2073
1630932124070,2072
1630932124074,2072
1630932124078,2072
1630932124082,2073
1630932124086,2074
1630932124090,2074
1630932124094,2074
1630932124098,2074
1630932124102,2074
1630932124106,2074
1630932124110,2074
1630932124114,2074
1630932124118,2074
1630932124122,2073
1630932124126,2073
1630932124130,2072
1630932124134,2072
1630932124138,2072
1630932124142,2072
1630932124146,2073
1630932124150,2074
1630932124154,2074
1630932124158,2075
1630932124162,2075
1630932124166,2076
1630932124170,2077
1630932124174,2077
1630932124178,2077
1630932124182,2077
1630932124186,2077
1630932124190,2077
1630932124194,2076
1630932124198,2075
1630932124202,2074
1630932124206,2073
1630932124210,2072
1630932124214,2071
1630932124218,2071
1630932124222,2071
1630932124226,2071
1630932124230,2070
1630932124234,2070
1630932124238,2069
1630932124242,2068
1630932124246,2068
1630932124250,2067
1630932124254,2067
1630932124258,2067
1630932124262,2067
1630932124266,2066
1630932124270,2066
1630932124274,2069
1630932124278,2075
1630932124282,2085
1630932124286,2102
1630932124290,2121
1630932124294,2138
1630932124298,2145
1630932124302,2139
1630932124306,2119
1630932124310,2091
1630932124314,2064
1630932124318,2046
1630932124322,2038
1630932124326,2039
1630932124330,2046
1630932124334,2051
1630932124338,2056
1630932124342,2059
1630932124346,2061
1630932124350,2062
1630932124354,2063
1630932124358,2062
1630932124362,2062
1630932124366,2062
1630932124370,2062
1630932124374,2063
1630932124378,2063
1630932124382,2064
1630932124386,2065
1630932124390,2065
1630932124394,2065
1630932124398,2065
1630932124402,2065
1630932124406,2065
1630932124410,2066
1630932124414,2066
1630932124418,2067
1630932124422,2068
1630932124426,2068
1630932124430,2068
1630932124434,2067
1630932124438,2066
1630932124442,2066
1630932124446,2067
1630932124450,2068
1630932124454,2069
1630932124458,2069
1630932124462,2070
1630932124466,2070
1630932124470,2071
1630932124474,2072
1630932124478,2072
1630932124482,2072
1630932124486,2072
1630932124490,2073
1630932124494,2075
1630932124498,2076
1630932124502,2078
1630932124506,2078
1630932124510,2078
1630932124514,2079
1630932124518,2079
1630932124522,2079
1630932124526,2079
1630932124530,2079
1630932124534,2079
1630932124538,2079
1630932124542,2078
1630932124546,2078
1630932124550,2076
1630932124554,2075
1630932124558,2072
1630932124562,2070
1630932124566,2068
1630932124570,2066
1630932124574,2065
1630932124578,2063
1630932124582,2062
1630932124586,2061
1630932124590,2059
1630932124594,2058
1630932124598,2056
1630932124602,2054
1630932124606,2053
1630932124610,2053
1630932124614,2053
1630932124618,2054
1630932124622,2054
1630932124626,2054
1630932124630,2053
1630932124634,2052
1630932124638,2052
1630932124642,2052
1630932124646,2052
1630932124650,2053
1630932124654,2054
1630932124658,2054
1630932124662,2054
1630932124666,2054
1630932124670,2054
1630932124674,2054
1630932124678,2053
1630932124682,2053
1630932124686,2054
1630932124690,2054
1630932124694,2054
1630932124698,2054
1630932124702,2055
1630932124706,2055
1630932124710,2054
1630932124714,2054
1630932124718,2053
1630932124722,2052
1630932124726,2052
1630932124730,2052
1630932124734,2053
1630932124738,2053
1630932124742,2053
1630932124746,2053
1630932124750,2052
1630932124754,2052
1630932124758,2051
1630932124762,2051
1630932124766,2051
1630932124770,2051
1630932124774,2051
1630932124778,2051
1630932124782,2051
1630932124786,2051
1630932124790,2050
1630932124794,2050
1630932124798,2049
1630932124802,2049
1630932124806,2049
1630932124810,2050
1630932124814,2051
1630932124818,2051
1630932124822,2051
1630932124826,2051
1630932124830,2051
1630932124834,2051
1630932124838,2050
1630932124842,2050
1630932124846,2050
1630932124850,2051
1630932124854,2051
1630932124858,2052
1630932124862,2052
1630932124866,2052
1630932124870,2052
1630932124874,2052
1630932124878,2052
1630932124882,2053
1630932124886,2053
1630932124890,2054
1630932124894,2055
1630932124898,2056
1630932124902,2056
1630932124906,2056
1630932124910,2056
1630932124914,2056
1630932124918,2055
1630932124922,2055
1630932124926,2055
1630932124930,2055
1630932124934,2054
1630932124938,2053
1630932124942,2053
1630932124946,2053
1630932124950,2052
1630932124954,2052
1630932124958,2052
1630932124962,2052
1630932124966,2052
1630932124970,2053
1630932124974,2053
1630932124978,2053
1630932124982,2053
1630932124986,2052
1630932124990,2051
1630932124994,2050
1630932124998,2050
1630932125002,2053
1630932125006,2061
1630932125010,2074
1630932125014,2093
1630932125018,2113
1630932125022,2130
1630932125026,2136
1630932125030,2129
1630932125034,2108
1630932125038,2079
1630932125042,2052
1630932125046,2034
1630932125050,2027
1630932125054,2029
1630932125058,2036
1630932125062,2044
1630932125066,2048
1630932125070,2050
1630932125074,2051
1630932125078,2051
1630932125082,2051
1630932125086,2051
1630932125090,2052
1630932125094,2052
1630932125098,2053
1630932125102,2053
1630932125106,2053
1630932125110,2053
1630932125114,2052
1630932125118,2052
1630932125122,2053
1630932125126,2054
1630932125130,2054
1630932125134,2055
1630932125138,2056
1630932125142,2056
1630932125146,2057
1630932125150,2057
1630932125154,2057
1630932125158,2056
1630932125162,2056
1630932125166,2057
1630932125170,2058
1630932125174,2059
1630932125178,2060
1630932125182,2061
1630932125186,2062
1630932125190,2063
1630932125194,2063
1630932125198,2063
1630932125202,2063
1630932125206,2064
1630932125210,2065
1630932125214,2067
1630932125218,2068
1630932125222,2070
1630932125226,2071
1630932125230,2071
1630932125234,2072
1630932125238,2073
1630932125242,2073
1630932125246,2074
1630932125250,2074
1630932125254,2074
1630932125258,2075
1630932125262,2076
1630932125266,2076
1630932125270,2076
1630932125274,2074
1630932125278,2073
1630932125282,2071
1630932125286,2069
1630932125290,2067
1630932125294,2066
1630932125298,2064
1630932125302,2063
1630932125306,2062
1630932125310,2061
1630932125314,2060
1630932125318,2059
1630932125322,2057
1630932125326,2055
1630932125330,2054
1630932125334,2053
1630932125338,2053
1630932125342,2053
1630932125346,2053
1630932125350,2053
1630932125354,2052
1630932125358,2051
1630932125362,2050
1630932125366,2051
1630932125370,2052
1630932125374,2052
1630932125378,2053
1630932125382,2052
1630932125386,2052
1630932125390,2052
1630932125394,2052
1630932125398,2052
1630932125402,2052
1630932125406,2052
1630932125410,2052
1630932125414,2053
1630932125418,2053
1630932125422,2053
1630932125426,2054
1630932125430,2053
1630932125434,2052
1630932125438,2051
1630932125442,2050
1630932125446,2050
1630932125450,2050
1630932125454,2051
1630932125458,2051
1630932125462,2051
1630932125466,2051
1630932125470,2051
1630932125474,2051
1630932125478,2050
1630932125482,2050
1630932125486,2050
1630932125490,2049
1630932125494,2049
1630932125498,2049
1630932125502,2049
1630932125506,2049
1630932125510,2048
1630932125514,2048
1630932125518,2048
1630932125522,2048
1630932125526,2048
1630932125530,2048
1630932125534,2048
1630932125538,2048
1630932125542,2048
1630932125546,2048
1630932125550,2048
1630932125554,2048
1630932125558,2048
1630932125562,2048
1630932125566,2048
1630932125570,2048
1630932125574,2048
1630932125578,2048
1630932125582,2049
1630932125586,2049
1630932125590,2049
1630932125594,2048
1630932125598,2048
1630932125602,2048
1630932125606,2048
1630932125610,2049
1630932125614,2050
1630932125618,2051
1630932125622,2051
1630932125626,2050
1630932125630,2049
1630932125634,2048
1630932125638,2048
1630932125642,2048
1630932125646,2048
1630932125650,2048
1630932125654,2049
1630932125658,2050
1630932125662,2050
1630932125666,2050
1630932125670,2051
1630932125674,2051
1630932125678,2052
1630932125682,2052
1630932125686,2053
1630932125690,2054
1630932125694,2055
1630932125698,2055
1630932125702,2054
1630932125706,2053
1630932125710,2052
1630932125714,2051
1630932125718,2050
1630932125722,2050
1630932125726,2049
1630932125730,2049
1630932125734,2049
1630932125738,2049
1630932125742,2050
1630932125746,2050
1630932125750,2050
1630932125754,2050
1630932125758,2049
1630932125762,2049
1630932125766,2049
1630932125770,2049
1630932125774,2050
1630932125778,2051
1630932125782,2055
1630932125786,2064
1630932125790,2077
1630932125794,2094
1630932125798,2111
1630932125802,2123
1630932125806,2124
1630932125810,2112
1630932125814,2089
1630932125818,2062
1630932125822,2041
1630932125826,2029
1630932125830,2026
1630932125834,2030
1630932125838,2037
1630932125842,2043
1630932125846,2046
1630932125850,2048
1630932125854,2049
1630932125858,2049
1630932125862,2050
1630932125866,2050
1630932125870,2050
1630932125874,2049
1630932125878,2049
1630932125882,2049
1630932125886,2050
1630932125890,2050
1630932125894,2051
1630932125898,2051
1630932125902,2052
1630932125906,2052
1630932125910,2052
1630932125914,2053
1630932125918,2053
1630932125922,2053
1630932125926,2053
1630932125930,2054
1630932125934,2055
1630932125938,2055
1630932125942,2055
1630932125946,2056
1630932125950,2056
1630932125954,2056
1630932125958,2057
1630932125962,2057
1630932125966,2058
1630932125970,2058
1630932125974,2059
1630932125978,2060
1630932125982,2061
1630932125986,2061
1630932125990,2062
1630932125994,2062
1630932125998,2063
1630932126002,2064
1630932126006,2065
1630932126010,2066
1630932126014,2068
1630932126018,2068
1630932126022,2069
1630932126026,2069
1630932126030,2069
1630932126034,2069
1630932126038,2069
1630932126042,2069
1630932126046,2069
1630932126050,2069
1630932126054,2069
1630932126058,2068
1630932126062,2067
1630932126066,2066
1630932126070,2065
1630932126074,2064
1630932126078,2062
1630932126082,2060
1630932126086,2058
1630932126090,2057
1630932126094,2056
1630932126098,2056
1630932126102,2055
1630932126106,2054
1630932126110,2052
1630932126114,2051
1630932126118,2050
1630932126122,2049
1630932126126,2049
1630932126130,2049
1630932126134,2049
1630932126138,2048
1630932126142,2048
1630932126146,2048
1630932126150,2048
1630932126154,2048
1630932126158,2048
1630932126162,2048
1630932126166,2048
1630932126170,2047
1630932126174,2047
1630932126178,2047
1630932126182,2047
1630932126186,2047
1630932126190,2047
1630932126194,2046
1630932126198,2045
1630932126202,2045
1630932126206,2045
1630932126210,2046
1630932126214,2046
1630932126218,2047
1630932126222,2047
1630932126226,2047
1630932126230,2047
1630932126234,2046
1630932126238,2046
1630932126242,2046
1630932126246,2045
1630932126250,2045
1630932126254,2045
1630932126258,2045
1630932126262,2045
1630932126266,2045
1630932126270,2046
1630932126274,2046
1630932126278,2045
1630932126282,2045
1630932126286,2045
1630932126290,2045
1630932126294,2045
1630932126298,2045
1630932126302,2045
1630932126306,2044
1630932126310,2044
1630932126314,2044
1630932126318,2043
1630932126322,2043
1630932126326,2043
1630932126330,2044
1630932126334,2044
1630932126338,2044
1630932126342,2044
1630932126346,2045
1630932126350,2044
1630932126354,2044
1630932126358,2043
1630932126362,2043
1630932126366,2043
1630932126370,2043
1630932126374,2044
1630932126378,2044
1630932126382,2044
1630932126386,2045
1630932126390,2045
1630932126394,2045
1630932126398,2044
1630932126402,2044
1630932126406,2044
1630932126410,2045
1630932126414,2045
1630932126418,2045
1630932126422,2044
1630932126426,2044
1630932126430,2044
1630932126434,2044
1630932126438,2043
1630932126442,2043
1630932126446,2044
1630932126450,2045
1630932126454,2046
1630932126458,2047
1630932126462,2048
1630932126466,2048
1630932126470,2048
1630932126474,2048
1630932126478,2048
1630932126482,2048
1630932126486,2047
1630932126490,2046
1630932126494,2046
1630932126498,2046
1630932126502,2045
1630932126506,2044
1630932126510,2043
1630932126514,2042
1630932126518,2042
1630932126522,2042
1630932126526,2042
1630932126530,2042
1630932126534,2043
1630932126538,2043
1630932126542,2043
1630932126546,2043
1630932126550,2043
1630932126554,2042
1630932126558,2042
1630932126562,2042
1630932126566,2044
1630932126570,2048
1630932126574,2058
1630932126578,2074
1630932126582,2092
1630932126586,2108
1630932126590,2117
1630932126594,2112
1630932126598,2094
1630932126602,2069
1630932126606,2044
1630932126610,2025
1630932126614,2017
1630932126618,2018
1630932126622,2024
1630932126626,2031
1630932126630,2035
1630932126634,2038
1630932126638,2039
1630932126642,2040
1630932126646,2040
1630932126650,2041
1630932126654,2041
1630932126658,2042
1630932126662,2043
1630932126666,2043
1630932126670,2043
1630932126674,2043
1630932126678,2043
1630932126682,2043
1630932126686,2044
1630932126690,2044
1630932126694,2044
1630932126698,2044
1630932126702,2043
1630932126706,2043
1630932126710,2043
1630932126714,2043
1630932126718,2043
1630932126722,2043
1630932126726,2043
1630932126730,2044
1630932126734,2045
1630932126738,2046
1630932126742,2046
1630932126746,2046
1630932126750,2047
1630932126754,2047
1630932126758,2047
1630932126762,2048
1630932126766,2048
1630932126770,2049
1630932126774,2050
1630932126778,2051
1630932126782,2053
1630932126786,2054
1630932126790,2054
1630932126794,2055
1630932126798,2055
1630932126802,2055
1630932126806,2055
1630932126810,2056
1630932126814,2057
1630932126818,2058
1630932126822,2058
1630932126826,2058
1630932126830,2058
1630932126834,2057
1630932126838,2057
1630932126842,2057
1630932126846,2056
1630932126850,2055
1630932126854,2054
1630932126858,2053
1630932126862,2051
1630932126866,2050
1630932126870,2048
1630932126874,2047
1630932126878,2046
1630932126882,2044
1630932126886,2043
1630932126890,2042
1630932126894,2042
1630932126898,2041
1630932126902,2041
1630932126906,2041
1630932126910,2040
1630932126914,2039
1630932126918,2039
1630932126922,2038
1630932126926,2038
1630932126930,2039
1630932126934,2039
1630932126938,2039
1630932126942,2039
1630932126946,2038
1630932126950,2038
1630932126954,2037
1630932126958,2037
1630932126962,2037
1630932126966,2037
1630932126970,2037
1630932126974,2038
1630932126978,2038
1630932126982,2038
1630932126986,2038
1630932126990,2037
1630932126994,2037
1630932126998,2036
1630932127002,2036
1630932127006,2036
1630932127010,2036
1630932127014,2037
1630932127018,2037
1630932127022,2037
1630932127026,2037
1630932127030,2036
1630932127034,2036
1630932127038,2035
1630932127042,2035
1630932127046,2035
1630932127050,2035
1630932127054,2035
1630932127058,2035
1630932127062,2035
1630932127066,2035
1630932127070,2034
1630932127074,2034
1630932127078,2033
1630932127082,2033
1630932127086,2033
1630932127090,2033
1630932127094,2033
1630932127098,2033
1630932127102,2033
1630932127106,2033
1630932127110,2033
1630932127114,2033
1630932127118,2033
1630932127122,2033
1630932127126,2033
1630932127130,2033
1630932127134,2034
1630932127138,2034
1630932127142,2035
1630932127146,2035
1630932127150,2035
1630932127154,2035
1630932127158,2035
1630932127162,2035
1630932127166,2034
1630932127170,2035
1630932127174,2035
1630932127178,2036
1630932127182,2036
1630932127186,2037
1630932127190,2036
1630932127194,2036
1630932127198,2036
1630932127202,2036
1630932127206,2036
1630932127210,2036
1630932127214,2036
1630932127218,2036
1630932127222,2036
1630932127226,2036
1630932127230,2036
1630932127234,2035
1630932127238,2035
1630932127242,2035
1630932127246,2036
1630932127250,2036
1630932127254,2037
1630932127258,2039
1630932127262,2040
1630932127266,2041
1630932127270,2041
1630932127274,2041
1630932127278,2041
1630932127282,2041
1630932127286,2041
1630932127290,2041
1630932127294,2041
1630932127298,2041
1630932127302,2040
1630932127306,2039
1630932127310,2039
1630932127314,2038
1630932127318,2037
1630932127322,2037
1630932127326,2037
1630932127330,2038
1630932127334,2038
1630932127338,2039
1630932127342,2039
1630932127346,2039
1630932127350,2038
1630932127354,2036
1630932127358,2036
1630932127362,2036
1630932127366,2039
1630932127370,2045
1630932127374,2054
1630932127378,2069
1630932127382,2087
1630932127386,2105
1630932127390,2115
1630932127394,2113
1630932127398,2098
1630932127402,2072
1630932127406,2046
1630932127410,2025
1630932127414,2015
1630932127418,2015
1630932127422,2021
1630932127426,2029
1630932127430,2034
1630932127434,2038
1630932127438,2040
1630932127442,2041
1630932127446,2041
1630932127450,2042
1630932127454,2043
1630932127458,2043
1630932127462,2044
1630932127466,2045
1630932127470,2046
1630932127474,2046
1630932127478,2046
1630932127482,2046
1630932127486,2046
1630932127490,2046
1630932127494,2048
1630932127498,2048
1630932127502,2050
1630932127506,2051
1630932127510,2052
1630932127514,2052
1630932127518,2053
1630932127522,2054
1630932127526,2055
1630932127530,2056
1630932127534,2058
1630932127538,2059
1630932127542,2060
1630932127546,2061
1630932127550,2062
1630932127554,2063
1630932127558,2064
1630932127562,2065
1630932127566,2066
1630932127570,2067
1630932127574,2067
1630932127578,2069
1630932127582,2070
1630932127586,2072
1630932127590,2073
1630932127594,2074
1630932127598,2074
1630932127602,2074
1630932127606,2074
1630932127610,2074
1630932127614,2075
1630932127618,2076
1630932127622,2077
1630932127626,2077
1630932127630,2077
1630932127634,2076
1630932127638,2076
1630932127642,2076
1630932127646,2076
1630932127650,2076
1630932127654,2076
1630932127658,2075
1630932127662,2074
1630932127666,2073
1630932127670,2072
1630932127674,2070
1630932127678,2069
1630932127682,2068
1630932127686,2067
1630932127690,2066
1630932127694,2065
1630932127698,2065
1630932127702,2065
1630932127706,2066
1630932127710,2067
1630932127714,2069
1630932127718,2069
1630932127722,2070
1630932127726,2070
1630932127730,2071
1630932127734,2072
1630932127738,2073
1630932127742,2074
1630932127746,2075
1630932127750,2076
1630932127754,2076
1630932127758,2075
1630932127762,2075
1630932127766,2075
1630932127770,2075
1630932127774,2076
1630932127778,2076
1630932127782,2076
1630932127786,2076
1630932127790,2076
1630932127794,2076
1630932127798,2075
1630932127802,2075
1630932127806,2075
1630932127810,2075
1630932127814,2075
1630932127818,2075
1630932127822,2075
1630932127826,2075
1630932127830,2075
1630932127834,2074
1630932127838,2074
1630932127842,2074
1630932127846,2074
1630932127850,2074
1630932127854,2075
1630932127858,2075
1630932127862,2075
1630932127866,2075
1630932127870,2075
1630932127874,2075
1630932127878,2074
1630932127882,2074
1630932127886,2074
1630932127890,2074
1630932127894,2075
1630932127898,2075
1630932127902,2075
1630932127906,2076
1630932127910,2076
1630932127914,2076
1630932127918,2076
1630932127922,2075
1630932127926,2075
1630932127930,2076
1630932127934,2076
1630932127938,2076
1630932127942,2077
1630932127946,2077
1630932127950,2077
1630932127954,2076
1630932127958,2076
1630932127962,2076
1630932127966,2077
1630932127970,2077
1630932127974,2078
1630932127978,2078
1630932127982,2078
1630932127986,2078
1630932127990,2078
1630932127994,2078
1630932127998,2078
1630932128002,2078
1630932128006,2078
1630932128010,2079
1630932128014,2079
1630932128018,2080
1630932128022,2081
1630932128026,2082
1630932128030,2082
1630932128034,2081
1630932128038,2081
1630932128042,2081
1630932128046,2082
1630932128050,2082
1630932128054,2083
1630932128058,2083
1630932128062,2082
1630932128066,2081
1630932128070,2080
1630932128074,2079
1630932128078,2078
1630932128082,2077
1630932128086,2076
1630932128090,2076
1630932128094,2075
1630932128098,2075
1630932128102,2075
1630932128106,2075
1630932128110,2074
1630932128114,2074
1630932128118,2074
1630932128122,2073
1630932128126,2073
1630932128130,2073
1630932128134,2073
1630932128138,2075
1630932128142,2079
1630932128146,2087
1630932128150,2100
1630932128154,2117
1630932128158,2135
1630932128162,2146
1630932128166,2146
1630932128170,2131
1630932128174,2107
1630932128178,2079
1630932128182,2057
1630932128186,2047
1630932128190,2045
1630932128194,2049
1630932128198,2055
1630932128202,2059
1630932128206,2062
1630932128210,2064
1630932128214,2066
1630932128218,2067
1630932128222,2068
1630932128226,2068
1630932128230,2068
1630932128234,2068
1630932128238,2067
1630932128242,2068
1630932128246,2068
1630932128250,2069
1630932128254,2069
1630932128258,2070
1630932128262,2070
1630932128266,2070
1630932128270,2070
1630932128274,2069
1630932128278,2069
1630932128282,2069
1630932128286,2070
1630932128290,2071
1630932128294,2072
1630932128298,2072
1630932128302,2072
1630932128306,2072
1630932128310,2072
1630932128314,2072
1630932128318,2072
1630932128322,2073
1630932128326,2073
1630932128330,2074
1630932128334,2075
1630932128338,2077
1630932128342,2078
1630932128346,2079
1630932128350,2079
1630932128354,2080
1630932128358,2080
1630932128362,2080
1630932128366,2081
1630932128370,2082
1630932128374,2083
1630932128378,2083
1630932128382,2084
1630932128386,2085
1630932128390,2085
1630932128394,2085
1630932128398,2084
1630932128402,2083
1630932128406,2082
1630932128410,2082
1630932128414,2082
1630932128418,2082
1630932128422,2081
1630932128426,2079
1630932128430,2077
1630932128434,2074
1630932128438,2071
1630932128442,2069
1630932128446,2068
1630932128450,2066
1630932128454,2066
1630932128458,2065
1630932128462,2064
1630932128466,2063
1630932128470,2062
1630932128474,2061
1630932128478,2060
1630932128482,2059
1630932128486,2058
1630932128490,2058
1630932128494,2058
1630932128498,2058
1630932128502,2058
1630932128506,2058
1630932128510,2057
1630932128514,2057
1630932128518,2056
1630932128522,2056
1630932128526,2056
1630932128530,2056
1630932128534,2056
1630932128538,2056
1630932128542,2056
1630932128546,2056
1630932128550,2055
1630932128554,2055
1630932128558,2055
1630932128562,2055
1630932128566,2055
1630932128570,2055
1630932128574,2054
1630932128578,2054
1630932128582,2054
1630932128586,2054
1630932128590,2054
1630932128594,2054
1630932128598,2053
1630932128602,2051
1630932128606,2050
1630932128610,2049
1630932128614,2048
1630932128618,2048
1630932128622,2049
1630932128626,2049
1630932128630,2049
1630932128634,2049
1630932128638,2048
1630932128642,2048
1630932128646,2047
1630932128650,2047
1630932128654,2047
1630932128658,2048
1630932128662,2048
1630932128666,2047
1630932128670,2047
1630932128674,2046
1630932128678,2045
1630932128682,2045
1630932128686,2046
1630932128690,2047
1630932128694,2048
1630932128698,2048
1630932128702,2048
1630932128706,2048
1630932128710,2047
1630932128714,2047
1630932128718,2046
1630932128722,2046
1630932128726,2046
1630932128730,2046
1630932128734,2046
1630932128738,2045
1630932128742,2046
1630932128746,2045
1630932128750,2045
1630932128754,2044
1630932128758,2044
1630932128762,2043
1630932128766,2043
1630932128770,2044
1630932128774,2044
1630932128778,2045
1630932128782,2046
1630932128786,2046
1630932128790,2047
1630932128794,2047
1630932128798,2047
1630932128802,2047
1630932128806,2048
1630932128810,2048
1630932128814,2049
1630932128818,2049
1630932128822,2049
1630932128826,2048
1630932128830,2048
1630932128834,2047
1630932128838,2045
1630932128842,2044
1630932128846,2044
1630932128850,2045
1630932128854,2046
1630932128858,2046
1630932128862,2046
1630932128866,2047
1630932128870,2047
1630932128874,2047
1630932128878,2047
1630932128882,2046
1630932128886,2045
1630932128890,2044
1630932128894,2044
1630932128898,2044
1630932128902,2048
1630932128906,2055
1630932128910,2067
1630932128914,2085
1630932128918,2104
1630932128922,2120
1630932128926,2127
1630932128930,2119
1630932128934,2099
1630932128938,2071
1630932128942,2046
1630932128946,2029
1630932128950,2022
1630932128954,2024
1630932128958,2031
1630932128962,2038
1630932128966,2043
1630932128970,2046
1630932128974,2047
1630932128978,2047
1630932128982,2047
1630932128986,2047
1630932128990,2047
1630932128994,2048
1630932128998,2048
1630932129002,2048
1630932129006,2049
1630932129010,2049
1630932129014,2050
1630932129018,2051
1630932129022,2051
1630932129026,2052
1630932129030,2052
1630932129034,2052
1630932129038,2052
1630932129042,2052
1630932129046,2052
1630932129050,2053
1630932129054,2053
1630932129058,2054
1630932129062,2054
1630932129066,2054
1630932129070,2054
1630932129074,2054
1630932129078,2054
1630932129082,2054
1630932129086,2055
1630932129090,2056
1630932129094,2058
1630932129098,2058
1630932129102,2059
1630932129106,2060
1630932129110,2060
1630932129114,2061
1630932129118,2061
1630932129122,2063
1630932129126,2064
1630932129130,2065
1630932129134,2066
1630932129138,2067
1630932129142,2068
1630932129146,2068
1630932129150,2068
1630932129154,2067
1630932129158,2067
1630932129162,2067
1630932129166,2067
1630932129170,2066
1630932129174,2066
1630932129178,2065
1630932129182,2064
1630932129186,2063
1630932129190,2062
1630932129194,2060
1630932129198,2058
1630932129202,2056
1630932129206,2054
1630932129210,2053
1630932129214,2052
1630932129218,2051
1630932129222,2050
1630932129226,2049
1630932129230,2048
1630932129234,2047
1630932129238,2047
1630932129242,2046
1630932129246,2046
1630932129250,2046
1630932129254,2046
1630932129258,2046
1630932129262,2046
1630932129266,2046
1630932129270,2047
1630932129274,2047
1630932129278,2047
1630932129282,2047
1630932129286,2048
1630932129290,2048
1630932129294,2048
1630932129298,2048
1630932129302,2048
1630932129306,2048
1630932129310,2048
1630932129314,2048
1630932129318,2048
1630932129322,2048
1630932129326,2048
1630932129330,2049
1630932129334,2049
1630932129338,2049
1630932129342,2049
1630932129346,2049
1630932129350,2049
1630932129354,2048
1630932129358,2048
1630932129362,2048
1630932129366,2048
1630932129370,2048
1630932129374,2048
1630932129378,2048
1630932129382,2048
1630932129386,2048
1630932129390,2048
1630932129394,2047
1630932129398,2046
1630932129402,2045
1630932129406,2044
1630932129410,2044
1630932129414,2043
1630932129418,2041
1630932129422,2039
1630932129426,2037
1630932129430,2035
1630932129434,2033
1630932129438,2033
1630932129442,2033
1630932129446,2033
1630932129450,2033
1630932129454,2033
1630932129458,2033
1630932129462,2032
1630932129466,2031
1630932129470,2030
1630932129474,2029
1630932129478,2029
1630932129482,2029
1630932129486,2029
1630932129490,2029
1630932129494,2030
1630932129498,2031
1630932129502,2032
1630932129506,2032
1630932129510,2031
1630932129514,2031
1630932129518,2030
1630932129522,2030
1630932129526,2031
1630932129530,2032
1630932129534,2033
1630932129538,2034
1630932129542,2034
1630932129546,2034
1630932129550,2034
1630932129554,2034
1630932129558,2034
1630932129562,2034
1630932129566,2034
1630932129570,2034
1630932129574,2035
1630932129578,2035
1630932129582,2036
1630932129586,2036
1630932129590,2036
1630932129594,2036
1630932129598,2036
1630932129602,2037
1630932129606,2037
1630932129610,2038
1630932129614,2039
1630932129618,2040
1630932129622,2041
1630932129626,2042
1630932129630,2042
1630932129634,2042
1630932129638,2042
1630932129642,2042
1630932129646,2041
1630932129650,2040
1630932129654,2040
1630932129658,2039
1630932129662,2038
1630932129666,2037
1630932129670,2036
1630932129674,2035
1630932129678,2034
1630932129682,2034
1630932129686,2033
1630932129690,2034
1630932129694,2034
1630932129698,2035
1630932129702,2036
1630932129706,2036
1630932129710,2036
1630932129714,2036
1630932129718,2035
1630932129722,2035
1630932129726,2036
1630932129730,2040
1630932129734,2048
1630932129738,2060
1630932129742,2078
1630932129746,2096
1630932129750,2109
1630932129754,2111
1630932129758,2099
1630932129762,2077
1630932129766,2050
1630932129770,2029
1630932129774,2016
1630932129778,2014
1630932129782,2019
1630932129786,2026
1630932129790,2032
1630932129794,2035
1630932129798,2037
1630932129802,2038
1630932129806,2039
1630932129810,2040
1630932129814,2040
1630932129818,2041
1630932129822,2042
1630932129826,2043
1630932129830,2043
1630932129834,2043
1630932129838,2042
1630932129842,2042
1630932129846,2042
1630932129850,2043
1630932129854,2044
1630932129858,2046
1630932129862,2046
1630932129866,2047
1630932129870,2047
1630932129874,2047
1630932129878,2047
1630932129882,2048
1630932129886,2048
1630932129890,2049
1630932129894,2050
1630932129898,2050
1630932129902,2050
1630932129906,2051
1630932129910,2051
1630932129914,2052
1630932129918,2052
1630932129922,2052
1630932129926,2053
1630932129930,2054
1630932129934,2055
1630932129938,2056
1630932129942,2057
1630932129946,2058
1630932129950,2059
1630932129954,2059
1630932129958,2059
1630932129962,2060
1630932129966,2060
1630932129970,2061
1630932129974,2062
1630932129978,2063
1630932129982,2063
1630932129986,2062
1630932129990,2062
1630932129994,2061
1630932129998,2060
1630932130002,2059
1630932130006,2059
1630932130010,2059
1630932130014,2059
1630932130018,2058
1630932130022,2058
1630932130026,2056
1630932130030,2054
1630932130034,2052
1630932130038,2050
1630932130042,2048
1630932130046,2048
1630932130050,2048
1630932130054,2048
1630932130058,2048
1630932130062,2048
1630932130066,2048
1630932130070,2048
1630932130074,2047
1630932130078,2046
1630932130082,2046
1630932130086,2046
1630932130090,2047
1630932130094,2047
1630932130098,2048
1630932130102,2048
1630932130106,2048
1630932130110,2048
1630932130114,2047
1630932130118,2047
1630932130122,2046
1630932130126,2047
1630932130130,2047
1630932130134,2047
1630932130138,2047
1630932130142,2047
1630932130146,2047
1630932130150,2047
1630932130154,2046
1630932130158,2046
1630932130162,2045
1630932130166,2045
1630932130170,2045
1630932130174,2046
1630932130178,2046
1630932130182,2046
1630932130186,2045
1630932130190,2045
1630932130194,2044
1630932130198,2044
1630932130202,2044
1630932130206,2044
1630932130210,2044
1630932130214,2044
1630932130218,2044
1630932130222,2045
1630932130226,2044
1630932130230,2044
1630932130234,2044
1630932130238,2043
1630932130242,2043
1630932130246,2043
1630932130250,2044
1630932130254,2044
1630932130258,2045
1630932130262,2045
1630932130266,2045
1630932130270,2045
1630932130274,2044
1630932130278,2044
1630932130282,2044
1630932130286,2044
1630932130290,2045
1630932130294,2045
1630932130298,2045
1630932130302,2046
1630932130306,2046
1630932130310,2046
1630932130314,2046
1630932130318,2046
1630932130322,2046
1630932130326,2046
1630932130330,2046
1630932130334,2047
1630932130338,2047
1630932130342,2047
1630932130346,2047
1630932130350,2047
1630932130354,2047
1630932130358,2047
1630932130362,2047
1630932130366,2047
1630932130370,2048
1630932130374,2048
1630932130378,2048
1630932130382,2048
1630932130386,2048
1630932130390,2048
1630932130394,2048
1630932130398,2048
1630932130402,2048
1630932130406,2048
1630932130410,2048
1630932130414,2048
1630932130418,2048
1630932130422,2048
1630932130426,2048
1630932130430,2048
1630932130434,2048
1630932130438,2048
1630932130442,2048
1630932130446,2047
1630932130450,2048
1630932130454,2048
1630932130458,2048
1630932130462,2049
1630932130466,2050
1630932130470,2051
1630932130474,2052
1630932130478,2052
1630932130482,2053
1630932130486,2053
1630932130490,2054
1630932130494,2055
1630932130498,2055
1630932130502,2055
1630932130506,2054
1630932130510,2053
1630932130514,2051
1630932130518,2050
1630932130522,2049
1630932130526,2048
1630932130530,2048
1630932130534,2049
1630932130538,2049
1630932130542,2050
1630932130546,2050
1630932130550,2050
1630932130554,2049
1630932130558,2049
1630932130562,2049
1630932130566,2048
1630932130570,2048
1630932130574,2049
1630932130578,2049
1630932130582,2052
1630932130586,2058
1630932130590,2068
1630932130594,2083
1630932130598,2100
1630932130602,2116
1630932130606,2123
1630932130610,2117
1630932130614,2099
1630932130618,2073
1630932130622,2048
1630932130626,2032
1630932130630,2026
1630932130634,2027
1630932130638,2033
1630932130642,2039
1630932130646,2044
1630932130650,2047
1630932130654,2048
1630932130658,2049
1630932130662,2050
1630932130666,2050
1630932130670,2050
1630932130674,2050
1630932130678,2050
1630932130682,2050
1630932130686,2051
1630932130690,2051
1630932130694,2052
1630932130698,2052
1630932130702,2052
1630932130706,2052
1630932130710,2053
1630932130714,2053
1630932130718,2053
1630932130722,2053
1630932130726,2053
1630932130730,2054
1630932130734,2055
1630932130738,2056
1630932130742,2057
1630932130746,2057
1630932130750,2057
1630932130754,2056
1630932130758,2056
1630932130762,2056
1630932130766,2057
1630932130770,2059
1630932130774,2060
1630932130778,2061
1630932130782,2062
1630932130786,2062
1630932130790,2063
1630932130794,2063
1630932130798,2063
1630932130802,2064
1630932130806,2065
1630932130810,2066
1630932130814,2067
1630932130818,2068
1630932130822,2068
1630932130826,2068
1630932130830,2068
1630932130834,2068
1630932130838,2068
1630932130842,2068
1630932130846,2068
1630932130850,2068
1630932130854,2067
1630932130858,2067
1630932130862,2066
1630932130866,2065
1630932130870,2063
1630932130874,2061
1630932130878,2060
1630932130882,2058
1630932130886,2057
1630932130890,2056
1630932130894,2055
1630932130898,2054
1630932130902,2053
1630932130906,2051
1630932130910,2050
1630932130914,2049
1630932130918,2048
1630932130922,2047
1630932130926,2047
1630932130930,2047
1630932130934,2047
1630932130938,2047
1630932130942,2048
1630932130946,2048
1630932130950,2048
1630932130954,2047
1630932130958,2047
1630932130962,2046
1630932130966,2047
1630932130970,2047
1630932130974,2048
1630932130978,2048
1630932130982,2048
1630932130986,2048
1630932130990,2048
1630932130994,2047
1630932130998,2046
1630932131002,2046
1630932131006,2046
1630932131010,2046
1630932131014,2047
1630932131018,2047
1630932131022,2048
1630932131026,2048
1630932131030,2048
1630932131034,2047
1630932131038,2047
1630932131042,2046
1630932131046,2046
1630932131050,2047
1630932131054,2047
1630932131058,2048
1630932131062,2048
1630932131066,2048
1630932131070,2048
1630932131074,2048
1630932131078,2048
1630932131082,2048
1630932131086,2047
1630932131090,2047
1630932131094,2047
1630932131098,2047
1630932131102,2047
1630932131106,2046
1630932131110,2046
1630932131114,2046
1630932131118,2046
1630932131122,2046
1630932131126,2046
1630932131130,2046
1630932131134,2046
1630932131138,2046
1630932131142,2047
1630932131146,2047
1630932131150,2047
1630932131154,2046
1630932131158,2046
1630932131162,2046
1630932131166,2046
1630932131170,2046
1630932131174,2046
1630932131178,2046
1630932131182,2046
1630932131186,2046
1630932131190,2046
1630932131194,2046
1630932131198,2047
1630932131202,2047
1630932131206,2047
1630932131210,2047
1630932131214,2048
1630932131218,2048
1630932131222,2048
1630932131226,2048
1630932131230,2048
1630932131234,2047
1630932131238,2047
1630932131242,2046
1630932131246,2046
1630932131250,2047
1630932131254,2048
1630932131258,2048
1630932131262,2048
1630932131266,2048
1630932131270,2048
1630932131274,2046
1630932131278,2045
1630932131282,2045
1630932131286,2046
1630932131290,2048
1630932131294,2049
1630932131298,2050
1630932131302,2051
1630932131306,2051
1630932131310,2051
1630932131314,2050
1630932131318,2050
1630932131322,2050
1630932131326,2051
1630932131330,2052
1630932131334,2053
1630932131338,2054
1630932131342,2054
1630932131346,2053
1630932131350,2052
1630932131354,2051
1630932131358,2050
1630932131362,2050
1630932131366,2050
1630932131370,2051
1630932131374,2051
1630932131378,2052
1630932131382,2052
1630932131386,2051
1630932131390,2051
1630932131394,2050
1630932131398,2049
1630932131402,2048
1630932131406,2048
1630932131410,2049
1630932131414,2050
1630932131418,2054
1630932131422,2061
1630932131426,2072
1630932131430,2089
1630932131434,2107
1630932131438,2121
1630932131442,2125
1630932131446,2114
1630932131450,2093
1630932131454,2067
1630932131458,2046
1630932131462,2033
1630932131466,2030
1630932131470,2034
1630932131474,2039
1630932131478,2044
1630932131482,2046
1630932131486,2048
1630932131490,2049
1630932131494,2052
1630932131498,2053
1630932131502,2054
1630932131506,2055
1630932131510,2056
1630932131514,2056
1630932131518,2056
1630932131522,2057
1630932131526,2057
1630932131530,2058
1630932131534,2059
1630932131538,2060
1630932131542,2061
1630932131546,2062
1630932131550,2062
1630932131554,2062
1630932131558,2061
1630932131562,2061
1630932131566,2062
1630932131570,2063
1630932131574,2064
1630932131578,2066
1630932131582,2067
1630932131586,2068
1630932131590,2069
1630932131594,2070
1630932131598,2071
1630932131602,2072
1630932131606,2073
1630932131610,2074
1630932131614,2075
1630932131618,2077
1630932131622,2078
1630932131626,2079
1630932131630,2080
1630932131634,2082
1630932131638,2084
1630932131642,2085
1630932131646,2086
1630932131650,2087
1630932131654,2088
1630932131658,2089
1630932131662,2090
1630932131666,2091
1630932131670,2091
1630932131674,2090
1630932131678,2089
1630932131682,2088
1630932131686,2086
1630932131690,2086
1630932131694,2086
1630932131698,2085
1630932131702,2084
1630932131706,2082
1630932131710,2080
1630932131714,2077
1630932131718,2075
1630932131722,2073
1630932131726,2072
1630932131730,2070
1630932131734,2069
1630932131738,2068
1630932131742,2067
1630932131746,2066
1630932131750,2065
1630932131754,2064
1630932131758,2063
1630932131762,2063
1630932131766,2063
1630932131770,2063
1630932131774,2064
1630932131778,2064
1630932131782,2064
1630932131786,2064
1630932131790,2065
1630932131794,2065
1630932131798,2065
1630932131802,2065
1630932131806,2066
1630932131810,2066
1630932131814,2067
1630932131818,2067
1630932131822,2068
1630932131826,2068
1630932131830,2067
1630932131834,2067
1630932131838,2066
1630932131842,2066
1630932131846,2066
1630932131850,2066
1630932131854,2067
1630932131858,2068
1630932131862,2068
1630932131866,2068
1630932131870,2067
1630932131874,2067
1630932131878,2066
1630932131882,2066
1630932131886,2066
1630932131890,2065
1630932131894,2065
1630932131898,2064
1630932131902,2064
1630932131906,2064
1630932131910,2064
1630932131914,2064
1630932131918,2064
1630932131922,2064
1630932131926,2064
1630932131930,2064
1630932131934,2064
1630932131938,2064
1630932131942,2065
1630932131946,2065
1630932131950,2064
1630932131954,2063
1630932131958,2062
1630932131962,2062
1630932131966,2062
1630932131970,2062
1630932131974,2062
1630932131978,2063
1630932131982,2063
1630932131986,2063
1630932131990,2063
1630932131994,2063
1630932131998,2062
1630932132002,2062
1630932132006,2062
1630932132010,2062
1630932132014,2062
1630932132018,2062
1630932132022,2062
1630932132026,2062
1630932132030,2062
1630932132034,2061
1630932132038,2061
1630932132042,2061
1630932132046,2060
1630932132050,2060
1630932132054,2061
1630932132058,2061
1630932132062,2061
1630932132066,2061
1630932132070,2061
1630932132074,2061
1630932132078,2061
1630932132082,2061
1630932132086,2062
1630932132090,2062
1630932132094,2063
1630932132098,2063
1630932132102,2064
1630932132106,2064
1630932132110,2064
1630932132114,2063
1630932132118,2061
1630932132122,2060
1630932132126,2059
1630932132130,2059
1630932132134,2058
1630932132138,2058
1630932132142,2057
1630932132146,2057
1630932132150,2057
1630932132154,2056
1630932132158,2056
1630932132162,2056
1630932132166,2056
1630932132170,2056
1630932132174,2057
1630932132178,2057
1630932132182,2056
1630932132186,2055
1630932132190,2054
1630932132194,2056
1630932132198,2063
1630932132202,2075
1630932132206,2092
1630932132210,2111
1630932132214,2126
1630932132218,2130
1630932132222,2119
1630932132226,2096
1630932132230,2069
1630932132234,2045
1630932132238,2031
1630932132242,2027
1630932132246,2030
1630932132250,2036
1630932132254,2041
1630932132258,2044
1630932132262,2046
1630932132266,2047
1630932132270,2048
1630932132274,2048
1630932132278,2048
1630932132282,2048
1630932132286,2048
1630932132290,2048
1630932132294,2049
1630932132298,2050
1630932132302,2050
1630932132306,2050
1630932132310,2051
1630932132314,2050
1630932132318,2050
1630932132322,2050
1630932132326,2051
1630932132330,2051
1630932132334,2052
1630932132338,2053
1630932132342,2054
1630932132346,2054
1630932132350,2054
1630932132354,2054
1630932132358,2054
1630932132362,2055
1630932132366,2057
1630932132370,2058
1630932132374,2059
1630932132378,2060
1630932132382,2060
1630932132386,2060
1630932132390,2061
1630932132394,2061
1630932132398,2061
1630932132402,2060
1630932132406,2060
1630932132410,2061
1630932132414,2062
1630932132418,2063
1630932132422,2064
1630932132426,2063
1630932132430,2063
1630932132434,2062
1630932132438,2062
1630932132442,2062
1630932132446,2062
1630932132450,2063
1630932132454,2063
1630932132458,2063
1630932132462,2062
1630932132466,2061
1630932132470,2060
1630932132474,2058
1630932132478,2056
1630932132482,2055
1630932132486,2052
1630932132490,2051
1630932132494,2049
1630932132498,2048
1630932132502,2048
1630932132506,2046
1630932132510,2044
1630932132514,2043
1630932132518,2041
1630932132522,2040
1630932132526,2040
1630932132530,2039
1630932132534,2038
1630932132538,2038
1630932132542,2037
1630932132546,2037
1630932132550,2036
1630932132554,2036
1630932132558,2035
1630932132562,2035
1630932132566,2036
1630932132570,2036
1630932132574,2037
1630932132578,2037
1630932132582,2037
1630932132586,2037
1630932132590,2037
1630932132594,2037
1630932132598,2037
1630932132602,2037
1630932132606,2037
1630932132610,2037
1630932132614,2037
1630932132618,2037
1630932132622,2037
1630932132626,2038
1630932132630,2038
1630932132634,2037
1630932132638,2037
1630932132642,2036
1630932132646,2036
1630932132650,2037
1630932132654,2037
1630932132658,2038
1630932132662,2038
1630932132666,2038
1630932132670,2037
1630932132674,2037
1630932132678,2036
1630932132682,2036
1630932132686,2036
1630932132690,2036
1630932132694,2037
1630932132698,2037
1630932132702,2038
1630932132706,2037
1630932132710,2037
1630932132714,2036
1630932132718,2035
1630932132722,2035
1630932132726,2034
1630932132730,2035
1630932132734,2035
1630932132738,2035
1630932132742,2035
1630932132746,2035
1630932132750,2035
1630932132754,2035
1630932132758,2035
1630932132762,2035
1630932132766,2035
1630932132770,2035
1630932132774,2035
1630932132778,2036
1630932132782,2036
1630932132786,2036
1630932132790,2036
1630932132794,2035
1630932132798,2035
1630932132802,2034
1630932132806,2035
1630932132810,2035
1630932132814,2036
1630932132818,2037
1630932132822,2038
1630932132826,2038
1630932132830,2037
1630932132834,2036
1630932132838,2036
1630932132842,2035
1630932132846,2035
1630932132850,2036
1630932132854,2037
1630932132858,2038
1630932132862,2039
1630932132866,2040
1630932132870,2041
1630932132874,2041
1630932132878,2041
1630932132882,2041
1630932132886,2041
1630932132890,2042
1630932132894,2041
1630932132898,2041
1630932132902,2040
1630932132906,2039
1630932132910,2038
1630932132914,2037
1630932132918,2036
1630932132922,2036
1630932132926,2036
1630932132930,2036
1630932132934,2037
1630932132938,2038
1630932132942,2039
1630932132946,2039
1630932132950,2039
1630932132954,2038
1630932132958,2037
1630932132962,2036
1630932132966,2036
1630932132970,2038
1630932132974,2044
1630932132978,2052
1630932132982,2068
1630932132986,2086
1630932132990,2104
1630932132994,2114
1630932132998,2112
1630932133002,2097
1630932133006,2072
1630932133010,2046
1630932133014,2025
1630932133018,2015
1630932133022,2015
1630932133026,2020
1630932133030,2027
1630932133034,2032
1630932133038,2035
1630932133042,2037
1630932133046,2037
1630932133050,2038
1630932133054,2039
1630932133058,2039
1630932133062,2040
1630932133066,2040
1630932133070,2040
1630932133074,2040
1630932133078,2039
1630932133082,2040
1630932133086,2040
1630932133090,2041
1630932133094,2042
1630932133098,2043
1630932133102,2044
1630932133106,2044
1630932133110,2043
1630932133114,2043
1630932133118,2043
1630932133122,2044
1630932133126,2044
1630932133130,2045
1630932133134,2046
1630932133138,2046
1630932133142,2047
1630932133146,2048
1630932133150,2048
1630932133154,2048
1630932133158,2048
1630932133162,2048
1630932133166,2048
1630932133170,2049
1630932133174,2051
1630932133178,2053
1630932133182,2054
1630932133186,2055
1630932133190,2056
1630932133194,2056
1630932133198,2056
1630932133202,2056
1630932133206,2057
1630932133210,2057
1630932133214,2059
1630932133218,2059
1630932133222,2060
1630932133226,2060
1630932133230,2060
1630932133234,2059
1630932133238,2058
1630932133242,2058
1630932133246,2057
1630932133250,2056
1630932133254,2055
1630932133258,2054
1630932133262,2052
1630932133266,2051
1630932133270,2049
1630932133274,2048
1630932133278,2046
1630932133282,2044
1630932133286,2043
1630932133290,2042
1630932133294,2042
1630932133298,2042
1630932133302,2041
1630932133306,2040
1630932133310,2040
1630932133314,2039
1630932133318,2039
1630932133322,2039
1630932133326,2039
1630932133330,2040
1630932133334,2041
1630932133338,2041
1630932133342,2041
1630932133346,2041
1630932133350,2041
1630932133354,2040
1630932133358,2040
1630932133362,2040
1630932133366,2041
1630932133370,2041
1630932133374,2042
1630932133378,2042
1630932133382,2042
1630932133386,2042
1630932133390,2042
1630932133394,2041
1630932133398,2041
1630932133402,2041
1630932133406,2041
1630932133410,2041
1630932133414,2042
1630932133418,2042
1630932133422,2042
1630932133426,2042
1630932133430,2042
1630932133434,2042
1630932133438,2041
1630932133442,2041
1630932133446,2041
1630932133450,2041
1630932133454,2041
1630932133458,2042
1630932133462,2042
1630932133466,2041
1630932133470,2041
1630932133474,2040
1630932133478,2039
1630932133482,2039
1630932133486,2039
1630932133490,2040
1630932133494,2041
1630932133498,2041
1630932133502,2040
1630932133506,2040
1630932133510,2039
1630932133514,2038
1630932133518,2038
1630932133522,2038
1630932133526,2039
1630932133530,2039
1630932133534,2039
1630932133538,2039
1630932133542,2038
1630932133546,2038
1630932133550,2038
1630932133554,2038
1630932133558,2038
1630932133562,2038
1630932133566,2039
1630932133570,2039
1630932133574,2039
1630932133578,2039
1630932133582,2039
1630932133586,2039
1630932133590,2039
1630932133594,2038
1630932133598,2038
1630932133602,2039
1630932133606,2040
1630932133610,2040
1630932133614,2041
1630932133618,2042
1630932133622,2043
1630932133626,2044
1630932133630,2045
1630932133634,2045
1630932133638,2045
1630932133642,2045
1630932133646,2044
1630932133650,2043
1630932133654,2043
1630932133658,2042
1630932133662,2041
1630932133666,2041
1630932133670,2040
1630932133674,2040
1630932133678,2039
1630932133682,2039
1630932133686,2039
1630932133690,2039
1630932133694,2039
1630932133698,2040
1630932133702,2040
1630932133706,2041
1630932133710,2040
1630932133714,2039
1630932133718,2039
1630932133722,2039
1630932133726,2042
1630932133730,2049
1630932133734,2062
1630932133738,2080
1630932133742,2098
1630932133746,2112
1630932133750,2115
1630932133754,2104
1630932133758,2082
1630932133762,2055
1630932133766,2033
1630932133770,2019
1630932133774,2015
1630932133778,2019
1630932133782,2026
1630932133786,2032
1630932133790,2036
1630932133794,2038
1630932133798,2039
1630932133802,2040
1630932133806,2040
1630932133810,2041
1630932133814,2041
1630932133818,2042
1630932133822,2042
1630932133826,2042
1630932133830,2043
1630932133834,2043
1630932133838,2043
1630932133842,2043
1630932133846,2044
1630932133850,2044
1630932133854,2045
1630932133858,2046
1630932133862,2046
1630932133866,2047
1630932133870,2047
1630932133874,2046
1630932133878,2046
1630932133882,2047
1630932133886,2048
1630932133890,2048
1630932133894,2049
1630932133898,2050
1630932133902,2050
1630932133906,2051
1630932133910,2052
1630932133914,2052
1630932133918,2053
1630932133922,2053
1630932133926,2054
1630932133930,2055
1630932133934,2056
1630932133938,2057
1630932133942,2058
1630932133946,2059
1630932133950,2060
1630932133954,2060
1630932133958,2060
1630932133962,2061
1630932133966,2061
1630932133970,2062
1630932133974,2062
1630932133978,2062
1630932133982,2062
1630932133986,2062
1630932133990,2062
1630932133994,2061
1630932133998,2060
1630932134002,2059
1630932134006,2058
1630932134010,2057
1630932134014,2056
1630932134018,2054
1630932134022,2053
1630932134026,2051
1630932134030,2050
1630932134034,2048
1630932134038,2048
1630932134042,2046
1630932134046,2045
1630932134050,2044
1630932134054,2044
1630932134058,2043
1630932134062,2043
1630932134066,2043
1630932134070,2043
1630932134074,2042
1630932134078,2042
1630932134082,2042
1630932134086,2042
1630932134090,2043
1630932134094,2044
1630932134098,2044
1630932134102,2045
1630932134106,2045
1630932134110,2044
1630932134114,2044
1630932134118,2043
1630932134122,2044
1630932134126,2044
1630932134130,2045
1630932134134,2045
1630932134138,2046
1630932134142,2046
1630932134146,2046
1630932134150,2046
1630932134154,2046
1630932134158,2045
1630932134162,2045
1630932134166,2045
1630932134170,2045
1630932134174,2046
1630932134178,2046
1630932134182,2046
1630932134186,2046
1630932134190,2046
1630932134194,2046
1630932134198,2045
1630932134202,2045
1630932134206,2045
1630932134210,2045
1630932134214,2046
1630932134218,2046
1630932134222,2046
1630932134226,2046
1630932134230,2045
1630932134234,2045
1630932134238,2044
1630932134242,2044
1630932134246,2044
1630932134250,2044
1630932134254,2045
1630932134258,2045
1630932134262,2046
1630932134266,2046
1630932134270,2046
1630932134274,2046
1630932134278,2045
1630932134282,2045
1630932134286,2044
1630932134290,2045
1630932134294,2045
1630932134298,2046
1630932134302,2047
1630932134306,2047
1630932134310,2047
1630932134314,2047
1630932134318,2046
1630932134322,2046
1630932134326,2046
1630932134330,2046
1630932134334,2047
1630932134338,2047
1630932134342,2047
1630932134346,2047
1630932134350,2047
1630932134354,2047
1630932134358,2047
1630932134362,2048
1630932134366,2048
1630932134370,2050
1630932134374,2051
1630932134378,2052
1630932134382,2052
1630932134386,2053
1630932134390,2052
1630932134394,2052
1630932134398,2051
1630932134402,2049
1630932134406,2048
1630932134410,2048
1630932134414,2048
1630932134418,2048
1630932134422,2048
1630932134426,2049
1630932134430,2049
1630932134434,2048
1630932134438,2048
1630932134442,2048
1630932134446,2048
1630932134450,2048
1630932134454,2048
1630932134458,2048
1630932134462,2048
1630932134466,2048
1630932134470,2048
1630932134474,2048
1630932134478,2052
1630932134482,2061
1630932134486,2076
1630932134490,2094
1630932134494,2112
1630932134498,2123
1630932134502,2120
1630932134506,2103
1630932134510,2077
1630932134514,2050
1630932134518,2031
1630932134522,2022
1630932134526,2023
1630932134530,2030
1630932134534,2037
1630932134538,2042
1630932134542,2045
1630932134546,2047
1630932134550,2048
1630932134554,2048
1630932134558,2048
1630932134562,2048
1630932134566,2048
1630932134570,2048
1630932134574,2049
1630932134578,2049
1630932134582,2049
1630932134586,2049
1630932134590,2050
1630932134594,2051
1630932134598,2051
1630932134602,2052
1630932134606,2053
1630932134610,2053
1630932134614,2053
1630932134618,2054
1630932134622,2054
1630932134626,2054
1630932134630,2055
1630932134634,2055
1630932134638,2055
1630932134642,2055
1630932134646,2055
1630932134650,2056
1630932134654,2056
1630932134658,2057
1630932134662,2058
1630932134666,2059
1630932134670,2060
1630932134674,2060
1630932134678,2060
1630932134682,2060
1630932134686,2061
1630932134690,2062
1630932134694,2064
1630932134698,2065
1630932134702,2065
1630932134706,2065
1630932134710,2066
1630932134714,2066
1630932134718,2066
1630932134722,2066
1630932134726,2066
1630932134730,2066
1630932134734,2067
1630932134738,2067
1630932134742,2067
1630932134746,2066
1630932134750,2065
1630932134754,2063
1630932134758,2061
1630932134762,2059
1630932134766,2058
1630932134770,2057
1630932134774,2057
1630932134778,2056
1630932134782,2054
1630932134786,2052
1630932134790,2050
1630932134794,2048
1630932134798,2048
1630932134802,2048
1630932134806,2047
1630932134810,2047
1630932134814,2046
1630932134818,2046
1630932134822,2046
1630932134826,2046
1630932134830,2046
1630932134834,2045
1630932134838,2045
1630932134842,2045
1630932134846,2044
1630932134850,2045
1630932134854,2045
1630932134858,2046
1630932134862,2046
1630932134866,2046
1630932134870,2046
1630932134874,2046
1630932134878,2045
1630932134882,2045
1630932134886,2044
1630932134890,2044
1630932134894,2044
1630932134898,2044
1630932134902,2045
1630932134906,2045
1630932134910,2045
1630932134914,2044
1630932134918,2044
1630932134922,2044
1630932134926,2044
1630932134930,2044
1630932134934,2044
1630932134938,2044
1630932134942,2044
1630932134946,2045
1630932134950,2045
1630932134954,2045
1630932134958,2044
1630932134962,2044
1630932134966,2043
1630932134970,2043
1630932134974,2044
1630932134978,2044
1630932134982,2044
1630932134986,2044
1630932134990,2043
1630932134994,2044
1630932134998,2044
1630932135002,2044
1630932135006,2044
1630932135010,2044
1630932135014,2045
1630932135018,2045
1630932135022,2045
1630932135026,2046
1630932135030,2046
1630932135034,2046
1630932135038,2046
1630932135042,2046
1630932135046,2047
1630932135050,2047
1630932135054,2047
1630932135058,2047
1630932135062,2047
1630932135066,2048
1630932135070,2048
1630932135074,2048
1630932135078,2048
1630932135082,2047
1630932135086,2047
1630932135090,2048
1630932135094,2048
1630932135098,2048
1630932135102,2048
1630932135106,2048
1630932135110,2048
1630932135114,2047
1630932135118,2047
1630932135122,2047
1630932135126,2048
1630932135130,2048
1630932135134,2049
1630932135138,2050
1630932135142,2051
1630932135146,2052
1630932135150,2052
1630932135154,2053
1630932135158,2053
1630932135162,2053
1630932135166,2053
1630932135170,2053
1630932135174,2052
1630932135178,2052
1630932135182,2051
1630932135186,2050
1630932135190,2049
1630932135194,2048
1630932135198,2048
1630932135202,2048
1630932135206,2048
1630932135210,2049
1630932135214,2050
1630932135218,2050
1630932135222,2050
1630932135226,2049
1630932135230,2049
1630932135234,2048
1630932135238,2047
1630932135242,2047
1630932135246,2047
1630932135250,2048
1630932135254,2053
1630932135258,2061
1630932135262,2074
1630932135266,2091
1630932135270,2108
1630932135274,2120
1630932135278,2120
1630932135282,2106
1630932135286,2082
1630932135290,2056
1630932135294,2035
1630932135298,2024
1630932135302,2023
1630932135306,2028
1630932135310,2035
1630932135314,2040
1630932135318,2043
1630932135322,2045
1630932135326,2046
1630932135330,2047
1630932135334,2048
1630932135338,2048
1630932135342,2048
1630932135346,2049
1630932135350,2049
1630932135354,2049
1630932135358,2050
1630932135362,2050
1630932135366,2051
1630932135370,2051
1630932135374,2052
1630932135378,2053
1630932135382,2054
1630932135386,2054
1630932135390,2055
1630932135394,2055
1630932135398,2054
1630932135402,2054
1630932135406,2055
1630932135410,2055
1630932135414,2056
1630932135418,2057
1630932135422,2058
1630932135426,2058
1630932135430,2059
1630932135434,2059
1630932135438,2059
1630932135442,2060
1630932135446,2061
1630932135450,2062
1630932135454,2063
1630932135458,2065
1630932135462,2066
1630932135466,2067
1630932135470,2067
1630932135474,2068
1630932135478,2068
1630932135482,2068
1630932135486,2068
1630932135490,2069
1630932135494,2070
1630932135498,2070
1630932135502,2071
1630932135506,2071
1630932135510,2071
1630932135514,2070
1630932135518,2070
1630932135522,2069
1630932135526,2068
1630932135530,2067
1630932135534,2066
1630932135538,2065
1630932135542,2064
1630932135546,2062
1630932135550,2060
1630932135554,2058
1630932135558,2056
1630932135562,2055
1630932135566,2054
1630932135570,2053
1630932135574,2053
1630932135578,2052
1630932135582,2051
1630932135586,2051
1630932135590,2050
1630932135594,2049
1630932135598,2049
1630932135602,2048
1630932135606,2048
1630932135610,2048
1630932135614,2049
1630932135618,2050
1630932135622,2050
1630932135626,2050
1630932135630,2050
1630932135634,2049
1630932135638,2049
1630932135642,2049
1630932135646,2049
1630932135650,2050
1630932135654,2050
1630932135658,2050
1630932135662,2050
1630932135666,2050
1630932135670,2050
1630932135674,2049
1630932135678,2049
1630932135682,2049
1630932135686,2048
1630932135690,2049
1630932135694,2049
1630932135698,2050
1630932135702,2050
1630932135706,2050
1630932135710,2050
1630932135714,2050
1630932135718,2049
1630932135722,2049
1630932135726,2049
1630932135730,2049
1630932135734,2049
1630932135738,2050
1630932135742,2050
1630932135746,2050
1630932135750,2050
1630932135754,2050
1630932135758,2049
1630932135762,2049
1630932135766,2049
1630932135770,2048
1630932135774,2048
1630932135778,2048
1630932135782,2049
1630932135786,2049
1630932135790,2049
1630932135794,2049
1630932135798,2048
1630932135802,2048
1630932135806,2048
1630932135810,2048
1630932135814,2049
1630932135818,2049
1630932135822,2050
1630932135826,2049
1630932135830,2049
1630932135834,2048
1630932135838,2048
1630932135842,2048
1630932135846,2048
1630932135850,2048
1630932135854,2049
1630932135858,2049
1630932135862,2049
1630932135866,2048
1630932135870,2048
1630932135874,2048
1630932135878,2048
1630932135882,2048
1630932135886,2048
1630932135890,2048
1630932135894,2048
1630932135898,2049
1630932135902,2049
1630932135906,2050
1630932135910,2050
1630932135914,2049
1630932135918,2048
1630932135922,2048
1630932135926,2048
1630932135930,2048
1630932135934,2048
1630932135938,2048
1630932135942,2049
1630932135946,2049
1630932135950,2049
1630932135954,2049
1630932135958,2050
1630932135962,2050
1630932135966,2050
1630932135970,2050
1630932135974,2051
1630932135978,2051
1630932135982,2051
1630932135986,2050
1630932135990,2050
1630932135994,2049
1630932135998,2048
1630932136002,2047
1630932136006,2046
1630932136010,2045
1630932136014,2045
1630932136018,2045
1630932136022,2046
1630932136026,2046
1630932136030,2047
1630932136034,2046
1630932136038,2045
1630932136042,2045
1630932136046,2045
1630932136050,2044
1630932136054,2044
1630932136058,2044
1630932136062,2045
1630932136066,2047
1630932136070,2052
1630932136074,2062
1630932136078,2078
1630932136082,2096
1630932136086,2114
1630932136090,2123
1630932136094,2119
1630932136098,2102
1630932136102,2076
1630932136106,2049
1630932136110,2029
1630932136114,2020
1630932136118,2021
1630932136122,2027
1630932136126,2034
1630932136130,2040
1630932136134,2043
1630932136138,2044
1630932136142,2045
1630932136146,2045
1630932136150,2046
1630932136154,2046
1630932136158,2046
1630932136162,2046
1630932136166,2046
1630932136170,2046
1630932136174,2046
1630932136178,2047
1630932136182,2047
1630932136186,2047
1630932136190,2047
1630932136194,2048
1630932136198,2048
1630932136202,2048
1630932136206,2048
1630932136210,2048
1630932136214,2048
1630932136218,2048
1630932136222,2049
1630932136226,2050
1630932136230,2050
1630932136234,2050
1630932136238,2049
1630932136242,2049
1630932136246,2049
1630932136250,2050
1630932136254,2052
1630932136258,2053
1630932136262,2054
1630932136266,2055
1630932136270,2056
1630932136274,2057
1630932136278,2057
1630932136282,2057
1630932136286,2058
1630932136290,2059
1630932136294,2060
1630932136298,2061
1630932136302,2061
1630932136306,2061
1630932136310,2061
1630932136314,2061
1630932136318,2061
1630932136322,2062
1630932136326,2062
1630932136330,2062
1630932136334,2061
1630932136338,2061
1630932136342,2060
1630932136346,2059
1630932136350,2058
1630932136354,2056
1630932136358,2054
1630932136362,2052
1630932136366,2051
1630932136370,2050
1630932136374,2049
1630932136378,2048
1630932136382,2048
1630932136386,2047
1630932136390,2045
1630932136394,2044
1630932136398,2043
1630932136402,2042
1630932136406,2042
1630932136410,2041
1630932136414,2041
1630932136418,2041
1630932136422,2040
1630932136426,2040
1630932136430,2040
1630932136434,2040
1630932136438,2039
1630932136442,2039
1630932136446,2038
1630932136450,2038
1630932136454,2037
1630932136458,2037
1630932136462,2036
1630932136466,2036
1630932136470,2036
1630932136474,2035
1630932136478,2035
1630932136482,2035
1630932136486,2034
1630932136490,2034
1630932136494,2035
1630932136498,2035
1630932136502,2035
1630932136506,2034
1630932136510,2034
1630932136514,2034
1630932136518,2034
1630932136522,2033
1630932136526,2033
1630932136530,2033
1630932136534,2034
1630932136538,2034
1630932136542,2034
1630932136546,2034
1630932136550,2034
1630932136554,2034
1630932136558,2033
1630932136562,2032
1630932136566,2032
1630932136570,2032
1630932136574,2032
1630932136578,2032
1630932136582,2032
1630932136586,2032
1630932136590,2032
1630932136594,2031
1630932136598,2031
1630932136602,2030
1630932136606,2030
1630932136610,2030
1630932136614,2031
1630932136618,2032
1630932136622,2033
1630932136626,2034
1630932136630,2033
1630932136634,2032
1630932136638,2031
1630932136642,2031
1630932136646,2031
1630932136650,2031
1630932136654,2031
1630932136658,2031
1630932136662,2031
1630932136666,2030
1630932136670,2029
1630932136674,2028
1630932136678,2027
1630932136682,2026
1630932136686,2025
1630932136690,2025
1630932136694,2026
1630932136698,2027
1630932136702,2028
1630932136706,2029
1630932136710,2029
1630932136714,2029
1630932136718,2029
1630932136722,2029
1630932136726,2029
1630932136730,2029
1630932136734,2030
1630932136738,2031
1630932136742,2032
1630932136746,2032
1630932136750,2031
1630932136754,2031
1630932136758,2031
1630932136762,2031
1630932136766,2031
1630932136770,2032
1630932136774,2032
1630932136778,2033
1630932136782,2033
1630932136786,2033
1630932136790,2033
1630932136794,2032
1630932136798,2032
1630932136802,2033
1630932136806,2033
1630932136810,2034
1630932136814,2035
1630932136818,2036
1630932136822,2036
1630932136826,2037
1630932136830,2037
1630932136834,2037
1630932136838,2036
1630932136842,2035
1630932136846,2034
1630932136850,2034
1630932136854,2033
1630932136858,2033
1630932136862,2033
1630932136866,2032
1630932136870,2032
1630932136874,2031
1630932136878,2031
1630932136882,2031
1630932136886,2031
1630932136890,2032
1630932136894,2032
1630932136898,2032
1630932136902,2032
1630932136906,2032
1630932136910,2031
1630932136914,2031
1630932136918,2031
1630932136922,2033
1630932136926,2040
1630932136930,2050
1630932136934,2067
1630932136938,2086
1630932136942,2102
1630932136946,2109
1630932136950,2101
1630932136954,2081
1630932136958,2054
1630932136962,2030
1630932136966,2013
1630932136970,2008
1630932136974,2011
1630932136978,2018
1630932136982,2025
1630932136986,2029
1630932136990,2031
1630932136994,2032
1630932136998,2033
1630932137002,2033
1630932137006,2034
1630932137010,2034
1630932137014,2034
1630932137018,2035
1630932137022,2035
1630932137026,2034
1630932137030,2035
1630932137034,2035
1630932137038,2035
1630932137042,2036
1630932137046,2036
1630932137050,2037
1630932137054,2037
1630932137058,2038
1630932137062,2038
1630932137066,2038
1630932137070,2038
1630932137074,2039
1630932137078,2039
1630932137082,2039
1630932137086,2040
1630932137090,2041
1630932137094,2041
1630932137098,2042
1630932137102,2043
1630932137106,2043
1630932137110,2044
1630932137114,2044
1630932137118,2044
1630932137122,2045
1630932137126,2046
1630932137130,2047
1630932137134,2048
1630932137138,2048
1630932137142,2048
1630932137146,2049
1630932137150,2049
1630932137154,2049
1630932137158,2050
1630932137162,2050
1630932137166,2050
1630932137170,2050
1630932137174,2050
1630932137178,2049
1630932137182,2048
1630932137186,2048
1630932137190,2048
1630932137194,2047
1630932137198,2046
1630932137202,2045
1630932137206,2044
1630932137210,2042
1630932137214,2041
1630932137218,2040
1630932137222,2039
1630932137226,2038
1630932137230,2036
1630932137234,2035
1630932137238,2033
1630932137242,2033
1630932137246,2032
1630932137250,2031
1630932137254,2031
1630932137258,2031
1630932137262,2031
1630932137266,2030
1630932137270,2031
1630932137274,2030
1630932137278,2030
1630932137282,2030
1630932137286,2030
1630932137290,2031
1630932137294,2032
1630932137298,2032
1630932137302,2032
1630932137306,2032
1630932137310,2032
1630932137314,2032
1630932137318,2032
1630932137322,2033
1630932137326,2033
1630932137330,2033
1630932137334,2033
1630932137338,2034
1630932137342,2034
1630932137346,2034
1630932137350,2034
1630932137354,2033
1630932137358,2033
1630932137362,2033
1630932137366,2034
1630932137370,2034
1630932137374,2035
1630932137378,2035
1630932137382,2035
1630932137386,2035
1630932137390,2034
1630932137394,2034
1630932137398,2034
1630932137402,2034
1630932137406,2034
1630932137410,2034
1630932137414,2034
1630932137418,2034
1630932137422,2035
1630932137426,2035
1630932137430,2034
1630932137434,2034
1630932137438,2034
1630932137442,2034
1630932137446,2034
1630932137450,2034
1630932137454,2035
1630932137458,2036
1630932137462,2036
1630932137466,2036
1630932137470,2035
1630932137474,2035
1630932137478,2034
1630932137482,2034
1630932137486,2034
1630932137490,2035
1630932137494,2036
1630932137498,2036
1630932137502,2037
1630932137506,2037
1630932137510,2036
1630932137514,2036
1630932137518,2036
1630932137522,2036
1630932137526,2037
1630932137530,2038
1630932137534,2039
1630932137538,2039
1630932137542,2040
1630932137546,2040
1630932137550,2039
1630932137554,2038
1630932137558,2038
1630932137562,2038
1630932137566,2038
1630932137570,2039
1630932137574,2039
1630932137578,2039
1630932137582,2039
1630932137586,2040
1630932137590,2040
1630932137594,2041
1630932137598,2040
1630932137602,2040
1630932137606,2040
1630932137610,2040
1630932137614,2041
1630932137618,2041
1630932137622,2041
1630932137626,2041
1630932137630,2040
1630932137634,2040
1630932137638,2040
1630932137642,2040
1630932137646,2040
1630932137650,2040
1630932137654,2040
1630932137658,2040
1630932137662,2041
1630932137666,2041
1630932137670,2042
1630932137674,2042
1630932137678,2042
1630932137682,2042
1630932137686,2041
1630932137690,2041
1630932137694,2041
1630932137698,2041
1630932137702,2042
1630932137706,2042
1630932137710,2042
1630932137714,2041
1630932137718,2041
1630932137722,2041
1630932137726,2041
1630932137730,2041
1630932137734,2042
1630932137738,2042
1630932137742,2042
1630932137746,2042
1630932137750,2042
1630932137754,2043
1630932137758,2043
1630932137762,2044
1630932137766,2044
1630932137770,2045
1630932137774,2046
1630932137778,2047
1630932137782,2048
1630932137786,2048
1630932137790,2048
1630932137794,2047
1630932137798,2046
1630932137802,2046
1630932137806,2045
1630932137810,2045
1630932137814,2044
1630932137818,2044
1630932137822,2043
1630932137826,2043
1630932137830,2042
1630932137834,2042
1630932137838,2042
1630932137842,2042
1630932137846,2043
1630932137850,2043
1630932137854,2044
1630932137858,2043
1630932137862,2043
1630932137866,2043
1630932137870,2043
1630932137874,2043
1630932137878,2044
1630932137882,2048
1630932137886,2054
1630932137890,2067
1630932137894,2084
1630932137898,2102
1630932137902,2115
1630932137906,2119
1630932137910,2108
1630932137914,2086
1630932137918,2060
1630932137922,2037
1630932137926,2024
1630932137930,2020
1630932137934,2024
1630932137938,2031
1630932137942,2036
1630932137946,2039
1630932137950,2042
1630932137954,2043
1630932137958,2044
1630932137962,2046
1630932137966,2046
1630932137970,2047
1630932137974,2047
1630932137978,2048
1630932137982,2048
1630932137986,2048
1630932137990,2048
1630932137994,2049
1630932137998,2050
1630932138002,2051
1630932138006,2052
1630932138010,2052
1630932138014,2052
1630932138018,2053
1630932138022,2053
1630932138026,2054
1630932138030,2054
1630932138034,2054
1630932138038,2054
1630932138042,2055
1630932138046,2056
1630932138050,2057
1630932138054,2058
1630932138058,2059
1630932138062,2059
1630932138066,2059
1630932138070,2060
1630932138074,2060
1630932138078,2060
1630932138082,2061
1630932138086,2061
1630932138090,2062
1630932138094,2063
1630932138098,2064
1630932138102,2066
1630932138106,2066
1630932138110,2066
1630932138114,2066
1630932138118,2066
1630932138122,2066
1630932138126,2066
1630932138130,2066
1630932138134,2067
1630932138138,2067
1630932138142,2067
1630932138146,2068
1630932138150,2069
1630932138154,2068
1630932138158,2068
1630932138162,2067
1630932138166,2066
1630932138170,2064
1630932138174,2063
1630932138178,2061
1630932138182,2060
1630932138186,2059
1630932138190,2058
1630932138194,2057
1630932138198,2055
1630932138202,2054
1630932138206,2053
1630932138210,2052
1630932138214,2051
1630932138218,2051
1630932138222,2051
1630932138226,2051
1630932138230,2050
1630932138234,2050
1630932138238,2049
1630932138242,2050
1630932138246,2050
1630932138250,2051
1630932138254,2052
