timestamp,green,ir,red
1630932113007,32762,259764,188047
1630932113017,32773,259713,188033
1630932113027,32757,259732,188003
1630932113037,32758,259686,187982
1630932113047,32765,259725,188021
1630932113057,32760,259694,187992
1630932113067,32756,259693,187968
1630932113077,32750,259681,187980
1630932113087,32749,259637,187955
1630932113097,32751,259642,187954
1630932113107,32749,259642,187966
1630932113117,32746,259617,187961
1630932113127,32741,259628,187947
1630932113137,32742,259623,187929
1630932113147,32743,259606,187922
1630932113157,32736,259596,187925
1630932113167,32733,259574,187918
1630932113177,32739,259611,187914
1630932113187,32730,259615,187887
1630932113197,32735,259608,187919
1630932113207,32739,259609,187936
1630932113217,32740,259656,187905
1630932113227,32748,259644,187897
1630932113237,32744,259580,187923
1630932113247,32751,259630,187885
1630932113257,32753,259632,187874
1630932113267,32765,259636,187875
1630932113277,32770,259637,187887
1630932113287,32776,259677,187894
1630932113297,32779,259706,187897
1630932113307,32776,259633,187903
1630932113317,32789,259643,187889
1630932113327,32785,259681,187863
1630932113337,32808,259673,187889
1630932113347,32806,259674,187858
1630932113357,32810,259686,187876
1630932113367,32825,259705,187897
1630932113377,32825,259690,187857
1630932113387,32827,259741,187879
1630932113397,32830,259751,187880
1630932113407,32843,259738,187885
1630932113417,32853,259764,187867
1630932113427,32853,259771,187878
1630932113437,32867,259791,187894
1630932113447,32874,259786,187895
1630932113457,32875,259811,187876
1630932113467,32885,259832,187875
1630932113477,32883,259804,187894
1630932113487,32893,259861,187876
1630932113497,32894,259839,187872
1630932113507,32921,259880,187895
1630932113517,32931,259892,187913
1630932113527,32932,259900,187889
1630932113537,32944,259904,187904
1630932113547,32943,259919,187915
1630932113557,32948,259975,187918
1630932113567,32958,259977,187919
1630932113577,32965,260013,187930
1630932113587,32976,260020,187903
1630932113597,32979,260019,187928
1630932113607,32986,260054,187941
1630932113617,33005,260074,187937
1630932113627,33010,260107,187949
1630932113637,33013,260096,187953
1630932113647,33022,260136,187963
1630932113657,33034,260120,187990
1630932113667,33040,260134,187977
1630932113677,33054,260167,187955
1630932113687,33067,260161,187994
1630932113697,33073,260220,187993
1630932113707,33079,260258,187988
1630932113717,33091,260280,188013
1630932113727,33096,260278,188012
1630932113737,33103,260317,188026
1630932113747,33122,260307,188016
1630932113757,33123,260355,188054
1630932113767,33135,260382,188061
1630932113777,33146,260376,188040
1630932113787,33144,260341,188050
1630932113797,33142,260308,188039
1630932113807,33133,260274,188032
1630932113817,33124,260264,188054
1630932113827,33118,260194,188074
1630932113837,33078,260167,188056
1630932113847,33056,260152,188083
1630932113857,33032,260122,188071
1630932113867,33006,260130,188073
1630932113877,32980,260091,188058
1630932113887,32955,260064,188101
1630932113897,32939,260081,188087
1630932113907,32928,260084,188103
1630932113917,32919,260053,188121
1630932113927,32904,260047,188110
1630932113937,32884,260065,188097
1630932113947,32880,260039,188099
1630932113957,32869,260027,188074
1630932113967,32850,260011,188080
1630932113977,32835,260017,188092
1630932113987,32823,259965,188096
1630932113997,32801,259957,188084
1630932114007,32803,259948,188078
1630932114017,32791,259938,188099
1630932114027,32778,259910,188089
1630932114037,32778,259911,188073
1630932114047,32777,259915,188084
1630932114057,32785,259908,188058
1630932114067,32779,259882,188062
1630932114077,32769,259901,188059
1630932114087,32775,259887,188042
1630932114097,32765,259869,188031
1630932114107,32771,259858,188047
1630932114117,32774,259813,188059
1630932114127,32758,259810,188054
1630932114137,32763,259844,188064
1630932114147,32768,259827,188058
1630932114157,32756,259804,188081
1630932114167,32757,259805,188067
1630932114177,32757,259817,188076
1630932114187,32767,259774,188083
1630932114197,32760,259806,188083
1630932114207,32767,259831,188123
1630932114217,32772,259837,188119
1630932114227,32777,259831,188170
1630932114237,32779,259821,188165
1630932114247,32787,259808,188179
1630932114257,32796,259858,188166
1630932114267,32799,259864,188186
1630932114277,32810,259864,188186
1630932114287,32805,259894,188215
1630932114297,32821,259906,188230
1630932114307,32826,259910,188269
1630932114317,32836,259913,188268
1630932114327,32844,259913,188294
1630932114337,32857,259897,188311
1630932114347,32869,259919,188334
1630932114357,32876,259931,188338
1630932114367,32886,259936,188360
1630932114377,32894,259944,188388
1630932114387,32902,260005,188415
1630932114397,32917,260018,188426
1630932114407,32927,260006,188425
1630932114417,32931,260012,188457
1630932114427,32944,260056,188464
1630932114437,32950,260033,188487
1630932114447,32962,260029,188510
1630932114457,32959,260055,188526
1630932114467,32984,260122,188555
1630932114477,32994,260116,188618
1630932114487,33013,260154,188634
1630932114497,33027,260190,188680
1630932114507,33030,260187,188688
1630932114517,33039,260222,188720
1630932114527,33052,260254,188747
1630932114537,33068,260242,188785
1630932114547,33073,260285,188795
1630932114557,33085,260268,188801
1630932114567,33093,260309,188833
1630932114577,33106,260348,188852
1630932114587,33118,260361,188866
1630932114597,33127,260369,188873
1630932114607,33136,260417,188885
1630932114617,33151,260381,188937
1630932114627,33161,260450,188917
1630932114637,33170,260456,188916
1630932114647,33183,260436,188911
1630932114657,33207,260462,188938
1630932114667,33210,260459,188926
1630932114677,33228,260455,188928
1630932114687,33236,260500,188925
1630932114697,33247,260478,188935
1630932114707,33255,260496,188935
1630932114717,33267,260551,188937
1630932114727,33281,260535,188944
1630932114737,33289,260547,188936
1630932114747,33312,260582,188965
1630932114757,33320,260602,188961
1630932114767,33336,260617,188988
1630932114777,33343,260666,189000
1630932114787,33358,260630,189010
1630932114797,33373,260627,189030
1630932114807,33363,260607,189055
1630932114817,33361,260593,189020
1630932114827,33330,260548,189036
1630932114837,33305,260514,189044
1630932114847,33276,260513,189068
1630932114857,33252,260469,189055
1630932114867,33222,260416,189097
1630932114877,33191,260415,189092
1630932114887,33165,260412,189111
1630932114897,33153,260352,189081
1630932114907,33138,260338,189113
1630932114917,33120,260311,189103
1630932114927,33115,260302,189122
1630932114937,33111,260329,189146
1630932114947,33098,260311,189169
1630932114957,33097,260292,189141
1630932114967,33078,260251,189171
1630932114977,33073,260248,189163
1630932114987,33072,260210,189158
1630932114997,33057,260190,189149
1630932115007,33039,260133,189134
1630932115017,33024,260122,189140
1630932115027,33008,260135,189142
1630932115037,32998,260138,189119
1630932115047,32996,260120,189121
1630932115057,32991,260121,189117
1630932115067,32982,260145,189093
1630932115077,32983,260122,189073
1630932115087,32976,260090,189082
1630932115097,32972,260063,189068
1630932115107,32957,260090,189072
1630932115117,32951,260050,189038
1630932115127,32955,260058,189046
1630932115137,32945,260013,189012
1630932115147,32945,259993,189008
1630932115157,32946,260020,188996
1630932115167,32943,259991,188970
1630932115177,32943,259957,188955
1630932115187,32936,259936,188943
1630932115197,32933,259965,188910
1630932115207,32928,259911,188931
1630932115217,32927,259906,188907
1630932115227,32925,259921,188851
1630932115237,32925,259892,188835
1630932115247,32916,259892,188855
1630932115257,32916,259932,188804
1630932115267,32918,259915,188799
1630932115277,32916,259913,188780
1630932115287,32913,259889,188765
1630932115297,32920,259944,188755
1630932115307,32912,259933,188748
1630932115317,32908,259933,188729
1630932115327,32912,259909,188734
1630932115337,32909,259941,188733
1630932115347,32919,259913,188709
1630932115357,32909,259921,188676
1630932115367,32914,259897,188637
1630932115377,32909,259953,188623
1630932115387,32912,259917,188615
1630932115397,32918,259941,188598
1630932115407,32929,259985,188589
1630932115417,32926,260008,188572
1630932115427,32928,260028,188573
1630932115437,32935,260026,188585
1630932115447,32939,260062,188566
1630932115457,32942,260074,188532
1630932115467,32930,260098,188549
1630932115477,32954,260085,188514
1630932115487,32959,260093,188501
1630932115497,32953,260123,188475
1630932115507,32958,260154,188469
1630932115517,32972,260154,188462
1630932115527,32986,260150,188485
1630932115537,32997,260174,188469
1630932115547,33003,260191,188475
1630932115557,33020,260194,188472
1630932115567,33032,260210,188476
1630932115577,33038,260229,188470
1630932115587,33049,260238,188481
1630932115597,33066,260240,188476
1630932115607,33074,260261,188479
1630932115617,33076,260287,188468
1630932115627,33095,260302,188492
1630932115637,33090,260280,188475
1630932115647,33104,260351,188484
1630932115657,33109,260354,188508
1630932115667,33114,260382,188481
1630932115677,33118,260438,188474
1630932115687,33121,260436,188474
1630932115697,33133,260472,188471
1630932115707,33138,260520,188467
1630932115717,33146,260564,188502
1630932115727,33153,260554,188496
1630932115737,33164,260542,188481
1630932115747,33162,260524,188487
1630932115757,33161,260484,188467
1630932115767,33157,260435,188460
1630932115777,33146,260447,188461
1630932115787,33129,260350,188467
1630932115797,33107,260356,188457
1630932115807,33074,260300,188447
1630932115817,33042,260251,188454
1630932115827,33022,260214,188473
1630932115837,32996,260180,188450
1630932115847,32973,260178,188469
1630932115857,32953,260154,188452
1630932115867,32941,260135,188445
1630932115877,32928,260171,188446
1630932115887,32909,260165,188447
1630932115897,32900,260155,188439
1630932115907,32896,260141,188439
1630932115917,32882,260150,188422
1630932115927,32868,260126,188425
1630932115937,32868,260115,188395
1630932115947,32851,260102,188389
1630932115957,32831,260101,188395
1630932115967,32823,260072,188364
1630932115977,32819,260086,188370
1630932115987,32808,260063,188356
1630932115997,32811,260088,188329
1630932116007,32809,260080,188313
1630932116017,32808,260046,188300
1630932116027,32812,260041,188293
1630932116037,32807,260014,188267
1630932116047,32801,260041,188279
1630932116057,32811,259981,188274
1630932116067,32802,259989,188245
1630932116077,32798,260018,188234
1630932116087,32811,259961,188231
1630932116097,32804,259984,188217
1630932116107,32791,260022,188202
1630932116117,32793,260009,188221
1630932116127,32806,260015,188235
1630932116137,32799,260037,188218
1630932116147,32792,260011,188200
1630932116157,32794,259996,188210
1630932116167,32798,260021,188205
1630932116177,32791,260018,188218
1630932116187,32796,260036,188209
1630932116197,32805,260029,188178
1630932116207,32795,260071,188193
1630932116217,32808,260085,188181
1630932116227,32806,260028,188180
1630932116237,32815,260058,188190
1630932116247,32819,260094,188182
1630932116257,32828,260061,188157
1630932116267,32832,260097,188169
1630932116277,32836,260133,188172
1630932116287,32846,260116,188169
1630932116297,32839,260131,188143
1630932116307,32846,260108,188134
1630932116317,32849,260155,188170
1630932116327,32863,260165,188157
1630932116337,32864,260147,188135
1630932116347,32877,260179,188173
1630932116357,32877,260194,188159
1630932116367,32889,260207,188160
1630932116377,32901,260203,188177
1630932116387,32905,260234,188184
1630932116397,32911,260230,188171
1630932116407,32924,260277,188179
1630932116417,32928,260269,188163
1630932116427,32940,260286,188171
1630932116437,32941,260291,188176
1630932116447,32950,260321,188170
1630932116457,32957,260359,188188
1630932116467,32967,260321,188200
1630932116477,32974,260379,188195
1630932116487,32980,260426,188192
1630932116497,32978,260393,188195
1630932116507,32994,260398,188209
1630932116517,33006,260425,188222
1630932116527,33010,260429,188215
1630932116537,33020,260424,188208
1630932116547,33031,260477,188198
1630932116557,33034,260466,188206
1630932116567,33039,260506,188221
1630932116577,33050,260459,188216
1630932116587,33053,260496,188190
1630932116597,33043,260412,188206
1630932116607,33023,260406,188178
1630932116617,33018,260368,188181
1630932116627,32987,260284,188200
1630932116637,32960,260227,188181
1630932116647,32924,260212,188146
1630932116657,32900,260158,188166
1630932116667,32877,260167,188165
1630932116677,32851,260149,188133
1630932116687,32823,260131,188152
1630932116697,32806,260109,188155
1630932116707,32789,260121,188151
1630932116717,32770,260099,188156
1630932116727,32761,260099,188147
1630932116737,32767,260122,188142
1630932116747,32753,260103,188148
1630932116757,32752,260088,188159
1630932116767,32728,260054,188123
1630932116777,32724,260030,188127
1630932116787,32717,260032,188128
1630932116797,32706,259998,188126
1630932116807,32704,260009,188127
1630932116817,32695,260044,188132
1630932116827,32696,260051,188121
1630932116837,32696,260027,188130
1630932116847,32703,260006,188109
1630932116857,32701,260043,188109
1630932116867,32708,260031,188108
1630932116877,32704,259983,188102
1630932116887,32697,259991,188089
1630932116897,32704,259988,188094
1630932116907,32710,260010,188071
1630932116917,32711,259989,188076
1630932116927,32706,259996,188068
1630932116937,32701,259984,188081
1630932116947,32702,259993,188103
1630932116957,32702,259940,188061
1630932116967,32703,259970,188044
1630932116977,32701,259987,188084
1630932116987,32701,259977,188076
1630932116997,32707,259976,188046
1630932117007,32704,259971,188063
1630932117017,32717,259996,188054
1630932117027,32719,260007,188054
1630932117037,32720,260013,188049
1630932117047,32718,259990,188056
1630932117057,32729,259980,188054
1630932117067,32727,260023,188056
1630932117077,32745,259999,188024
1630932117087,32739,260034,188024
1630932117097,32750,260005,188040
1630932117107,32753,259989,188033
1630932117117,32759,260007,188009
1630932117127,32761,260036,188036
1630932117137,32771,260044,188027
1630932117147,32774,260051,188035
1630932117157,32790,260006,188030
1630932117167,32796,260030,188023
1630932117177,32806,260048,188041
1630932117187,32810,260078,188041
1630932117197,32815,260089,188019
1630932117207,32824,260114,188001
1630932117217,32838,260100,188043
1630932117227,32834,260134,188037
1630932117237,32845,260157,188024
1630932117247,32856,260192,187998
1630932117257,32862,260193,188031
1630932117267,32868,260207,188035
1630932117277,32874,260185,188037
1630932117287,32880,260235,188040
1630932117297,32885,260244,188046
1630932117307,32895,260255,188045
1630932117317,32902,260323,188038
1630932117327,32912,260296,188043
1630932117337,32927,260288,188061
1630932117347,32934,260340,188063
1630932117357,32934,260365,188063
1630932117367,32948,260376,188057
1630932117377,32955,260342,188101
1630932117387,32976,260418,188069
1630932117397,32973,260431,188059
1630932117407,32980,260396,188052
1630932117417,32972,260422,188041
1630932117427,32971,260338,188015
1630932117437,32948,260248,188013
1630932117447,32927,260215,187993
1630932117457,32907,260197,188010
1630932117467,32873,260105,188007
1630932117477,32847,260046,187988
1630932117487,32813,260023,187989
1630932117497,32778,260009,187984
1630932117507,32753,259939,187979
1630932117517,32731,259923,187967
1630932117527,32699,259899,187945
1630932117537,32689,259915,187932
1630932117547,32676,259894,187954
1630932117557,32667,259891,187936
1630932117567,32644,259897,187945
1630932117577,32628,259870,187914
1630932117587,32616,259832,187916
1630932117597,32606,259842,187921
1630932117607,32590,259800,187910
1630932117617,32583,259786,187883
1630932117627,32569,259801,187892
1630932117637,32570,259757,187879
1630932117647,32556,259756,187875
1630932117657,32546,259766,187894
1630932117667,32550,259758,187866
1630932117677,32552,259756,187864
1630932117687,32541,259763,187869
1630932117697,32542,259754,187863
1630932117707,32552,259729,187849
1630932117717,32535,259702,187843
1630932117727,32542,259696,187833
1630932117737,32539,259717,187843
1630932117747,32545,259705,187836
1630932117757,32533,259669,187827
1630932117767,32536,259664,187825
1630932117777,32529,259629,187808
1630932117787,32532,259651,187817
1630932117797,32532,259641,187829
1630932117807,32528,259652,187805
1630932117817,32540,259627,187800
1630932117827,32536,259655,187805
1630932117837,32540,259636,187790
1630932117847,32536,259657,187801
1630932117857,32546,259602,187798
1630932117867,32545,259636,187794
1630932117877,32552,259652,187764
1630932117887,32557,259626,187801
1630932117897,32570,259646,187804
1630932117907,32567,259660,187796
1630932117917,32572,259659,187787
1630932117927,32582,259670,187783
1630932117937,32582,259645,187788
1630932117947,32582,259689,187792
1630932117957,32595,259663,187786
1630932117967,32598,259679,187793
1630932117977,32607,259693,187771
1630932117987,32618,259709,187786
1630932117997,32630,259719,187792
1630932118007,32636,259736,187804
1630932118017,32634,259785,187794
1630932118027,32644,259736,187789
1630932118037,32660,259753,187825
1630932118047,32665,259801,187806
1630932118057,32671,259767,187806
1630932118067,32675,259814,187797
1630932118077,32697,259829,187807
1630932118087,32693,259841,187796
1630932118097,32701,259816,187819
1630932118107,32711,259844,187812
1630932118117,32716,259847,187819
1630932118127,32729,259870,187808
1630932118137,32739,259921,187809
1630932118147,32743,259923,187801
1630932118157,32746,259930,187824
1630932118167,32757,259974,187794
1630932118177,32766,259963,187817
1630932118187,32777,259931,187821
1630932118197,32776,259985,187837
1630932118207,32800,260032,187844
1630932118217,32801,260021,187840
1630932118227,32816,260056,187813
1630932118237,32816,260086,187852
1630932118247,32818,260074,187853
1630932118257,32825,260114,187869
1630932118267,32829,260113,187851
1630932118277,32824,260066,187816
1630932118287,32819,260046,187820
1630932118297,32806,260005,187806
1630932118307,32788,259964,187827
1630932118317,32756,259894,187816
1630932118327,32727,259843,187832
1630932118337,32689,259827,187826
1630932118347,32671,259825,187822
1630932118357,32633,259744,187806
1630932118367,32614,259770,187820
1630932118377,32593,259748,187843
1630932118387,32570,259761,187826
1630932118397,32561,259747,187846
1630932118407,32559,259753,187850
1630932118417,32550,259769,187839
1630932118427,32536,259754,187836
1630932118437,32527,259728,187850
1630932118447,32529,259738,187859
1630932118457,32523,259744,187840
1630932118467,32511,259731,187865
1630932118477,32507,259764,187868
1630932118487,32503,259744,187885
1630932118497,32489,259742,187873
1630932118507,32490,259753,187899
1630932118517,32488,259780,187890
1630932118527,32499,259800,187889
1630932118537,32500,259817,187908
1630932118547,32505,259807,187891
1630932118557,32497,259856,187916
1630932118567,32504,259817,187927
1630932118577,32509,259829,187917
1630932118587,32513,259788,187911
1630932118597,32518,259853,187925
1630932118607,32518,259824,187954
1630932118617,32524,259876,187966
1630932118627,32537,259862,187980
1630932118637,32538,259905,188011
1630932118647,32555,259902,188018
1630932118657,32564,259926,188058
1630932118667,32576,259967,188088
1630932118677,32578,259990,188121
1630932118687,32596,259958,188153
1630932118697,32613,260001,188153
1630932118707,32611,260048,188187
1630932118717,32634,260063,188195
1630932118727,32637,260064,188225
1630932118737,32646,260098,188264
1630932118747,32655,260063,188280
1630932118757,32668,260108,188317
1630932118767,32675,260161,188316
1630932118777,32684,260121,188336
1630932118787,32704,260168,188348
1630932118797,32714,260169,188368
1630932118807,32724,260166,188383
1630932118817,32730,260196,188405
1630932118827,32739,260158,188405
1630932118837,32755,260207,188430
1630932118847,32769,260211,188443
1630932118857,32777,260222,188466
1630932118867,32802,260289,188470
1630932118877,32797,260264,188537
1630932118887,32819,260248,188528
1630932118897,32833,260212,188531
1630932118907,32837,260287,188560
1630932118917,32862,260312,188563
1630932118927,32867,260265,188600
1630932118937,32885,260285,188603
1630932118947,32883,260292,188604
1630932118957,32892,260258,188609
1630932118967,32913,260326,188650
1630932118977,32925,260363,188699
1630932118987,32945,260426,188747
1630932118997,32954,260494,188830
1630932119007,32978,260575,188927
1630932119017,33016,260635,188981
1630932119027,33043,260698,189086
1630932119037,33072,260761,189145
1630932119047,33081,260799,189201
1630932119057,33099,260882,189255
1630932119067,33121,260956,189328
1630932119077,33144,260942,189378
1630932119087,33169,261013,189444
1630932119097,33203,261082,189515
1630932119107,33234,261110,189583
1630932119117,33248,261159,189643
1630932119127,33284,261160,189650
1630932119137,33297,261134,189677
1630932119147,33295,261107,189670
1630932119157,33307,261024,189651
1630932119167,33293,261001,189665
1630932119177,33262,260866,189618
1630932119187,33254,260816,189625
1630932119197,33220,260754,189569
1630932119207,33181,260700,189546
1630932119217,33147,260628,189532
1630932119227,33113,260594,189497
1630932119237,33094,260575,189452
1630932119247,33059,260499,189420
1630932119257,33045,260448,189367
1630932119267,33017,260391,189328
1630932119277,32986,260364,189254
1630932119287,32973,260321,189220
1630932119297,32939,260271,189144
1630932119307,32918,260218,189068
1630932119317,32897,260175,188990
1630932119327,32887,260149,188927
1630932119337,32853,260151,188915
1630932119347,32834,260178,188847
1630932119357,32828,260120,188821
1630932119367,32797,260094,188783
1630932119377,32782,260119,188721
1630932119387,32773,260108,188672
1630932119397,32763,260082,188680
1630932119407,32759,260078,188650
1630932119417,32754,260097,188617
1630932119427,32744,260059,188597
1630932119437,32747,260069,188582
1630932119447,32744,260068,188565
1630932119457,32745,260066,188516
1630932119467,32735,260070,188523
1630932119477,32744,260027,188454
1630932119487,32729,260009,188453
1630932119497,32732,260053,188417
1630932119507,32734,260063,188387
1630932119517,32723,260027,188358
1630932119527,32714,260005,188325
1630932119537,32707,259966,188256
1630932119547,32691,259949,188205
1630932119557,32688,259932,188176
1630932119567,32683,259925,188119
1630932119577,32675,259921,188084
1630932119587,32665,259837,188020
1630932119597,32665,259807,187987
1630932119607,32665,259766,187954
1630932119617,32663,259766,187910
1630932119627,32656,259738,187871
1630932119637,32643,259720,187833
1630932119647,32639,259715,187747
1630932119657,32647,259709,187681
1630932119667,32632,259745,187632
1630932119677,32621,259696,187599
1630932119687,32628,259708,187568
1630932119697,32635,259683,187512
1630932119707,32635,259708,187506
1630932119717,32640,259741,187469
1630932119727,32636,259728,187463
1630932119737,32652,259748,187434
1630932119747,32648,259785,187421
1630932119757,32658,259804,187405
1630932119767,32665,259819,187401
1630932119777,32671,259870,187377
1630932119787,32670,259873,187374
1630932119797,32681,259898,187350
1630932119807,32685,259860,187334
1630932119817,32687,259900,187326
1630932119827,32695,259936,187317
1630932119837,32701,259940,187305
1630932119847,32703,259953,187305
1630932119857,32705,259968,187305
1630932119867,32709,259957,187284
1630932119877,32710,259998,187274
1630932119887,32715,259980,187262
1630932119897,32718,259984,187249
1630932119907,32729,260007,187238
1630932119917,32742,260057,187241
1630932119927,32743,260003,187235
1630932119937,32743,260049,187222
1630932119947,32764,260026,187203
1630932119957,32756,260042,187180
1630932119967,32764,260055,187136
1630932119977,32773,260022,187075
1630932119987,32759,260017,187040
1630932119997,32764,260034,187001
1630932120007,32762,259966,186959
1630932120017,32736,259897,186884
1630932120027,32720,259872,186860
1630932120037,32708,259795,186801
1630932120047,32682,259722,186778
1630932120057,32660,259659,186737
1630932120067,32631,259639,186717
1630932120077,32607,259592,186698
1630932120087,32577,259611,186667
1630932120097,32545,259555,186656
1630932120107,32534,259524,186630
1630932120117,32508,259531,186632
1630932120127,32501,259489,186635
1630932120137,32490,259492,186598
1630932120147,32463,259465,186601
1630932120157,32466,259474,186581
1630932120167,32452,259504,186586
1630932120177,32444,259458,186566
1630932120187,32436,259445,186578
1630932120197,32431,259417,186608
1630932120207,32422,259420,186590
1630932120217,32422,259385,186603
1630932120227,32424,259395,186610
1630932120237,32422,259397,186594
1630932120247,32415,259391,186602
1630932120257,32420,259395,186615
1630932120267,32412,259398,186597
1630932120277,32423,259383,186583
1630932120287,32416,259389,186624
1630932120297,32432,259405,186584
1630932120307,32434,259417,186592
1630932120317,32439,259354,186628
1630932120327,32450,259418,186610
1630932120337,32445,259413,186663
1630932120347,32450,259430,186645
1630932120357,32456,259423,186675
1630932120367,32455,259421,186665
1630932120377,32456,259444,186675
1630932120387,32468,259404,186697
1630932120397,32470,259426,186707
1630932120407,32481,259430,186714
1630932120417,32484,259421,186729
1630932120427,32496,259440,186713
1630932120437,32492,259447,186715
1630932120447,32507,259437,186722
1630932120457,32503,259435,186732
1630932120467,32507,259406,186725
1630932120477,32525,259419,186731
1630932120487,32515,259450,186706
1630932120497,32527,259428,186730
1630932120507,32537,259436,186739
1630932120517,32536,259486,186742
1630932120527,32551,259491,186751
1630932120537,32553,259494,186737
1630932120547,32561,259519,186750
1630932120557,32568,259494,186748
1630932120567,32580,259520,186754
1630932120577,32587,259594,186758
1630932120587,32592,259540,186750
1630932120597,32600,259627,186758
1630932120607,32604,259586,186791
1630932120617,32622,259603,186759
1630932120627,32631,259617,186771
1630932120637,32633,259660,186773
1630932120647,32642,259694,186807
1630932120657,32652,259689,186795
1630932120667,32660,259690,186766
1630932120677,32664,259716,186820
1630932120687,32671,259754,186795
1630932120697,32681,259690,186818
1630932120707,32698,259763,186793
1630932120717,32700,259804,186807
1630932120727,32704,259785,186848
1630932120737,32717,259832,186829
1630932120747,32728,259884,186829
1630932120757,32741,259864,186841
1630932120767,32747,259904,186853
1630932120777,32749,259886,186854
1630932120787,32767,259919,186852
1630932120797,32765,259942,186860
1630932120807,32779,259893,186848
1630932120817,32764,259910,186859
1630932120827,32766,259872,186875
1630932120837,32760,259851,186880
1630932120847,32743,259802,186908
1630932120857,32724,259786,186933
1630932120867,32708,259774,186944
1630932120877,32684,259772,186979
1630932120887,32671,259762,187000
1630932120897,32655,259733,187025
1630932120907,32647,259751,187059
1630932120917,32639,259808,187089
1630932120927,32634,259816,187113
1630932120937,32629,259846,187170
1630932120947,32628,259850,187191
1630932120957,32629,259829,187228
1630932120967,32626,259801,187277
1630932120977,32634,259848,187347
1630932120987,32634,259856,187379
1630932120997,32639,259859,187421
1630932121007,32643,259905,187444
1630932121017,32639,259947,187470
1630932121027,32646,259903,187485
1630932121037,32649,259931,187539
1630932121047,32666,259936,187569
1630932121057,32673,259941,187556
1630932121067,32683,259971,187580
1630932121077,32688,259931,187574
1630932121087,32687,259947,187594
1630932121097,32685,259974,187586
1630932121107,32697,259970,187602
1630932121117,32699,259993,187623
1630932121127,32695,259991,187642
1630932121137,32715,259977,187681
1630932121147,32710,259970,187666
1630932121157,32721,260027,187697
1630932121167,32725,260073,187734
1630932121177,32724,260074,187736
1630932121187,32737,260106,187763
1630932121197,32752,260118,187802
1630932121207,32757,260159,187841
1630932121217,32777,260210,187873
1630932121227,32789,260249,187904
1630932121237,32802,260288,187944
1630932121247,32816,260297,188012
1630932121257,32830,260310,188063
1630932121267,32844,260400,188087
1630932121277,32854,260432,188068
1630932121287,32862,260413,188096
1630932121297,32867,260412,188125
1630932121307,32878,260412,188141
1630932121317,32876,260391,188127
1630932121327,32890,260369,188116
1630932121337,32897,260343,188117
1630932121347,32905,260365,188089
1630932121357,32907,260317,188074
1630932121367,32907,260283,188044
1630932121377,32914,260260,188047
1630932121387,32910,260274,188002
1630932121397,32911,260211,187979
1630932121407,32897,260172,187936
1630932121417,32895,260150,187865
1630932121427,32865,260115,187819
1630932121437,32874,260092,187743
1630932121447,32865,260046,187686
1630932121457,32838,259983,187619
1630932121467,32820,259955,187549
1630932121477,32810,259928,187469
1630932121487,32793,259905,187391
1630932121497,32783,259869,187322
1630932121507,32769,259864,187265
1630932121517,32768,259868,187226
1630932121527,32769,259902,187214
1630932121537,32779,259889,187191
1630932121547,32783,259871,187189
1630932121557,32777,259828,187171
1630932121567,32764,259798,187161
1630932121577,32751,259757,187152
1630932121587,32737,259668,187182
1630932121597,32713,259650,187197
1630932121607,32683,259630,187201
1630932121617,32673,259596,187208
1630932121627,32650,259575,187237
1630932121637,32631,259573,187294
1630932121647,32630,259576,187341
1630932121657,32635,259578,187399
1630932121667,32623,259571,187412
1630932121677,32616,259553,187419
1630932121687,32622,259542,187481
1630932121697,32606,259517,187474
1630932121707,32601,259476,187467
1630932121717,32586,259407,187487
1630932121727,32577,259399,187461
1630932121737,32557,259381,187470
1630932121747,32546,259310,187434
1630932121757,32527,259293,187413
1630932121767,32522,259294,187406
1630932121777,32514,259218,187393
1630932121787,32506,259203,187368
1630932121797,32486,259184,187354
1630932121807,32481,259152,187347
1630932121817,32477,259143,187298
1630932121827,32473,259123,187305
1630932121837,32466,259102,187294
1630932121847,32460,259130,187278
1630932121857,32453,259063,187271
1630932121867,32452,259092,187285
1630932121877,32438,259088,187233
1630932121887,32441,259038,187258
1630932121897,32421,259033,187222
1630932121907,32419,259031,187210
1630932121917,32407,259049,187184
1630932121927,32408,259034,187175
1630932121937,32392,259052,187148
1630932121947,32397,259053,187123
1630932121957,32389,259067,187114
1630932121967,32387,259043,187100
1630932121977,32382,258997,187071
1630932121987,32378,259015,187042
1630932121997,32375,259016,187021
1630932122007,32381,259005,187011
1630932122017,32378,259012,186973
1630932122027,32384,259007,186948
1630932122037,32382,259021,186931
1630932122047,32373,258999,186879
1630932122057,32381,258983,186862
1630932122067,32369,258984,186853
1630932122077,32368,259050,186879
1630932122087,32369,259029,186825
1630932122097,32373,259072,186823
1630932122107,32354,259060,186811
1630932122117,32357,259101,186789
1630932122127,32352,259126,186781
1630932122137,32356,259135,186769
1630932122147,32346,259149,186735
1630932122157,32350,259178,186740
1630932122167,32355,259127,186750
1630932122177,32345,259168,186706
1630932122187,32357,259139,186702
1630932122197,32361,259190,186692
1630932122207,32365,259193,186688
1630932122217,32372,259154,186686
1630932122227,32372,259196,186686
1630932122237,32389,259192,186656
1630932122247,32393,259181,186680
1630932122257,32398,259242,186672
1630932122267,32421,259234,186670
1630932122277,32418,259217,186664
1630932122287,32425,259212,186673
1630932122297,32435,259234,186670
1630932122307,32450,259217,186709
1630932122317,32462,259292,186718
1630932122327,32467,259250,186740
1630932122337,32476,259282,186739
1630932122347,32475,259225,186750
1630932122357,32459,259156,186780
1630932122367,32444,259105,186776
1630932122377,32418,259045,186796
1630932122387,32390,258983,186820
1630932122397,32360,258955,186810
1630932122407,32329,258920,186798
1630932122417,32299,258826,186817
1630932122427,32289,258810,186827
1630932122437,32257,258758,186831
1630932122447,32245,258755,186840
1630932122457,32228,258719,186821
1630932122467,32224,258723,186830
1630932122477,32212,258687,186827
1630932122487,32195,258633,186830
1630932122497,32181,258637,186819
1630932122507,32177,258601,186826
1630932122517,32160,258584,186805
1630932122527,32141,258585,186811
1630932122537,32135,258563,186805
1630932122547,32120,258575,186814
1630932122557,32121,258581,186822
1630932122567,32116,258570,186805
1630932122577,32116,258576,186800
1630932122587,32119,258617,186805
1630932122597,32117,258613,186826
1630932122607,32110,258577,186828
1630932122617,32107,258603,186808
1630932122627,32111,258580,186832
1630932122637,32113,258566,186844
1630932122647,32109,258596,186859
1630932122657,32119,258544,186837
1630932122667,32115,258544,186852
1630932122677,32121,258583,186870
1630932122687,32116,258564,186856
1630932122697,32123,258582,186884
1630932122707,32121,258551,186866
1630932122717,32126,258582,186885
1630932122727,32135,258582,186871
1630932122737,32136,258563,186879
1630932122747,32144,258625,186869
1630932122757,32133,258617,186890
1630932122767,32145,258611,186897
1630932122777,32152,258605,186918
1630932122787,32156,258622,186914
1630932122797,32156,258646,186903
1630932122807,32163,258651,186939
1630932122817,32177,258687,186908
1630932122827,32176,258656,186930
1630932122837,32181,258685,186918
1630932122847,32194,258684,186930
1630932122857,32199,258702,186935
1630932122867,32211,258749,186931
1630932122877,32213,258729,186952
1630932122887,32216,258741,186959
1630932122897,32235,258810,186974
1630932122907,32243,258782,186981
1630932122917,32265,258803,186970
1630932122927,32260,258847,186972
1630932122937,32267,258839,186972
1630932122947,32271,258874,186989
1630932122957,32289,258878,186978
1630932122967,32296,258905,186989
1630932122977,32304,258912,186983
1630932122987,32306,258955,186980
1630932122997,32318,258974,186982
1630932123007,32318,258987,186976
1630932123017,32330,258974,186980
1630932123027,32332,259010,186980
1630932123037,32343,259018,186985
1630932123047,32343,259031,186981
1630932123057,32359,259086,186988
1630932123067,32370,259109,186979
1630932123077,32387,259144,187003
1630932123087,32390,259187,187001
1630932123097,32394,259149,186983
1630932123107,32394,259109,186964
1630932123117,32388,259067,186987
1630932123127,32380,259033,186985
1630932123137,32366,259030,186992
1630932123147,32345,259006,187009
1630932123157,32322,258953,187005
1630932123167,32301,258972,186989
1630932123177,32273,258952,186995
1630932123187,32261,258898,186998
1630932123197,32237,258915,187012
1630932123207,32238,258920,187013
1630932123217,32203,258962,186997
1630932123227,32219,258922,187025
1630932123237,32207,258978,187026
1630932123247,32197,258928,187018
1630932123257,32193,258928,187030
1630932123267,32188,258960,187022
1630932123277,32185,258952,187023
1630932123287,32181,258938,187027
1630932123297,32176,258983,187036
1630932123307,32187,259007,187052
1630932123317,32188,258963,187050
1630932123327,32195,259071,187072
1630932123337,32198,259033,187094
1630932123347,32203,259053,187093
1630932123357,32220,259067,187098
1630932123367,32220,259064,187111
1630932123377,32236,259045,187103
1630932123387,32230,259075,187120
1630932123397,32240,259090,187094
1630932123407,32239,259116,187129
1630932123417,32240,259092,187110
1630932123427,32244,259110,187116
1630932123437,32248,259133,187117
1630932123447,32258,259117,187112
1630932123457,32261,259096,187105
1630932123467,32268,259149,187119
1630932123477,32277,259134,187109
1630932123487,32283,259162,187117
1630932123497,32283,259149,187123
1630932123507,32292,259178,187134
1630932123517,32303,259177,187115
1630932123527,32305,259196,187117
1630932123537,32320,259212,187127
1630932123547,32326,259229,187107
1630932123557,32344,259254,187133
1630932123567,32348,259263,187149
1630932123577,32358,259245,187144
1630932123587,32371,259284,187158
1630932123597,32382,259320,187148
1630932123607,32401,259348,187167
1630932123617,32405,259327,187194
1630932123627,32416,259347,187205
1630932123637,32430,259381,187207
1630932123647,32444,259393,187228
1630932123657,32457,259411,187232
1630932123667,32463,259430,187204
1630932123677,32468,259450,187226
1630932123687,32476,259425,187231
1630932123697,32487,259489,187228
1630932123707,32506,259515,187232
1630932123717,32519,259484,187238
1630932123727,32518,259546,187243
1630932123737,32528,259567,187240
1630932123747,32536,259563,187215
1630932123757,32552,259562,187231
1630932123767,32560,259598,187222
1630932123777,32571,259605,187225
1630932123787,32581,259618,187227
1630932123797,32594,259662,187218
1630932123807,32604,259674,187228
1630932123817,32616,259697,187237
1630932123827,32627,259711,187231
1630932123837,32632,259745,187237
1630932123847,32639,259732,187237
1630932123857,32662,259734,187208
1630932123867,32661,259789,187219
1630932123877,32663,259718,187190
1630932123887,32650,259684,187177
1630932123897,32642,259658,187213
1630932123907,32628,259638,187193
1630932123917,32604,259615,187191
1630932123927,32578,259574,187186
1630932123937,32563,259537,187194
1630932123947,32540,259544,187202
1630932123957,32522,259521,187217
1630932123967,32509,259517,187199
1630932123977,32496,259532,187194
1630932123987,32491,259497,187210
1630932123997,32471,259533,187220
1630932124007,32463,259532,187195
1630932124017,32462,259525,187214
1630932124027,32458,259561,187191
1630932124037,32458,259511,187215
1630932124047,32456,259552,187189
1630932124057,32452,259526,187196
1630932124067,32444,259536,187202
1630932124077,32444,259535,187190
1630932124087,32441,259522,187167
1630932124097,32433,259532,187183
1630932124107,32444,259537,187193
1630932124117,32448,259543,187181
1630932124127,32446,259550,187194
1630932124137,32459,259569,187214
1630932124147,32475,259606,187243
1630932124157,32489,259628,187289
1630932124167,32502,259707,187343
1630932124177,32520,259677,187383
1630932124187,32527,259749,187408
1630932124197,32541,259733,187436
1630932124207,32558,259739,187474
1630932124217,32543,259780,187477
1630932124227,32554,259826,187480
1630932124237,32567,259806,187511
1630932124247,32571,259806,187533
1630932124257,32581,259854,187560
1630932124267,32595,259855,187607
1630932124277,32603,259878,187593
1630932124287,32602,259888,187604
1630932124297,32618,259930,187602
1630932124307,32630,259945,187610
1630932124317,32637,259908,187614
1630932124327,32637,259949,187622
1630932124337,32650,259977,187617
1630932124347,32650,259967,187619
1630932124357,32657,259996,187601
1630932124367,32675,260013,187629
1630932124377,32675,259995,187625
1630932124387,32683,260001,187634
1630932124397,32696,260034,187638
1630932124407,32707,260061,187630
1630932124417,32706,260063,187602
1630932124427,32723,260083,187631
1630932124437,32731,260097,187618
1630932124447,32747,260120,187627
1630932124457,32764,260075,187623
1630932124467,32766,260119,187607
1630932124477,32771,260135,187644
1630932124487,32778,260160,187627
1630932124497,32786,260164,187650
1630932124507,32805,260228,187658
1630932124517,32820,260187,187656
1630932124527,32835,260255,187672
1630932124537,32852,260266,187669
1630932124547,32849,260283,187674
1630932124557,32871,260316,187714
1630932124567,32885,260300,187714
1630932124577,32901,260361,187732
1630932124587,32902,260336,187717
1630932124597,32916,260347,187733
1630932124607,32924,260340,187749
1630932124617,32929,260286,187729
1630932124627,32927,260302,187733
1630932124637,32917,260255,187745
1630932124647,32914,260185,187721
1630932124657,32893,260155,187724
1630932124667,32871,260125,187737
1630932124677,32860,260127,187747
1630932124687,32835,260115,187742
1630932124697,32817,260099,187758
1630932124707,32802,260112,187747
1630932124717,32794,260083,187771
1630932124727,32781,260058,187745
1630932124737,32780,260042,187765
1630932124747,32775,260063,187756
1630932124757,32770,260096,187748
1630932124767,32773,260073,187753
1630932124777,32768,260049,187761
1630932124787,32771,260090,187769
1630932124797,32765,260078,187781
1630932124807,32761,260074,187774
1630932124817,32760,260079,187802
1630932124827,32770,260091,187794
1630932124837,32769,260095,187791
1630932124847,32782,260133,187821
1630932124857,32780,260126,187811
1630932124867,32793,260108,187820
1630932124877,32789,260078,187841
1630932124887,32798,260142,187843
1630932124897,32814,260111,187867
1630932124907,32816,260124,187851
1630932124917,32812,260102,187863
1630932124927,32830,260121,187876
1630932124937,32832,260148,187894
1630932124947,32829,260133,187867
1630932124957,32838,260088,187874
1630932124967,32844,260128,187873
1630932124977,32851,260124,187881
1630932124987,32850,260135,187892
1630932124997,32853,260142,187902
1630932125007,32865,260128,187914
1630932125017,32869,260164,187937
1630932125027,32882,260184,187920
1630932125037,32881,260197,187928
1630932125047,32894,260171,187941
1630932125057,32904,260220,187928
1630932125067,32909,260214,187935
1630932125077,32917,260204,187937
1630932125087,32931,260185,187950
1630932125097,32943,260205,187965
1630932125107,32950,260256,187972
1630932125117,32957,260231,187960
1630932125127,32967,260236,187973
1630932125137,32968,260261,187977
1630932125147,32976,260240,187969
1630932125157,32993,260271,187954
1630932125167,32992,260249,187963
1630932125177,33000,260290,187959
1630932125187,33017,260280,187963
1630932125197,33013,260263,187955
1630932125207,33024,260284,187945
1630932125217,33030,260287,187967
1630932125227,33037,260281,187964
1630932125237,33048,260271,187950
1630932125247,33060,260275,187956
1630932125257,33065,260282,187937
1630932125267,33079,260284,187927
1630932125277,33083,260271,187926
1630932125287,33087,260276,187922
1630932125297,33095,260261,187905
1630932125307,33113,260235,187892
1630932125317,33107,260253,187848
1630932125327,33112,260238,187849
1630932125337,33111,260197,187815
1630932125347,33098,260137,187843
1630932125357,33102,260107,187805
1630932125367,33083,260100,187809
1630932125377,33055,260007,187789
1630932125387,33032,259951,187790
1630932125397,33006,259914,187775
1630932125407,32987,259899,187749
1630932125417,32961,259850,187742
1630932125427,32942,259878,187750
1630932125437,32930,259812,187721
1630932125447,32911,259822,187720
1630932125457,32898,259796,187706
1630932125467,32884,259803,187702
1630932125477,32886,259825,187709
1630932125487,32865,259803,187691
1630932125497,32866,259791,187681
1630932125507,32849,259796,187693
1630932125517,32854,259835,187720
1630932125527,32850,259833,187748
1630932125537,32853,259823,187739
1630932125547,32846,259839,187759
1630932125557,32850,259859,187762
1630932125567,32856,259872,187775
1630932125577,32861,259856,187766
1630932125587,32856,259872,187752
1630932125597,32855,259859,187743
1630932125607,32854,259858,187729
1630932125617,32851,259819,187712
1630932125627,32849,259835,187720
1630932125637,32851,259804,187727
1630932125647,32854,259785,187739
1630932125657,32849,259806,187726
1630932125667,32855,259795,187705
1630932125677,32860,259799,187708
1630932125687,32861,259770,187686
1630932125697,32854,259768,187674
1630932125707,32849,259763,187708
1630932125717,32858,259771,187688
1630932125727,32852,259794,187681
1630932125737,32857,259776,187684
1630932125747,32863,259812,187691
1630932125757,32864,259791,187680
1630932125767,32868,259802,187654
1630932125777,32882,259803,187646
1630932125787,32882,259787,187623
1630932125797,32878,259809,187619
1630932125807,32887,259764,187598
1630932125817,32886,259779,187585
1630932125827,32872,259755,187566
1630932125837,32873,259751,187509
1630932125847,32872,259727,187466
1630932125857,32878,259762,187484
1630932125867,32872,259744,187437
1630932125877,32875,259733,187433
1630932125887,32886,259776,187432
1630932125897,32891,259752,187443
1630932125907,32903,259779,187434
1630932125917,32910,259819,187441
1630932125927,32919,259813,187452
1630932125937,32918,259812,187443
1630932125947,32923,259840,187447
1630932125957,32923,259861,187460
1630932125967,32939,259871,187470
1630932125977,32963,259911,187530
1630932125987,32973,259961,187532
1630932125997,32990,259986,187546
1630932126007,32987,259980,187556
1630932126017,32993,260015,187546
1630932126027,33012,260004,187552
1630932126037,33011,260023,187554
1630932126047,33033,260049,187560
1630932126057,33050,260030,187557
1630932126067,33044,260026,187549
1630932126077,33047,260069,187527
1630932126087,33046,260044,187498
1630932126097,33046,260021,187502
1630932126107,33045,260008,187455
1630932126117,33055,260025,187461
1630932126127,33034,259947,187417
1630932126137,33028,259934,187430
1630932126147,33013,259849,187425
1630932126157,32975,259809,187411
1630932126167,32940,259765,187388
1630932126177,32904,259726,187393
1630932126187,32871,259714,187340
1630932126197,32850,259683,187334
1630932126207,32825,259669,187345
1630932126217,32809,259610,187320
1630932126227,32795,259617,187328
1630932126237,32780,259586,187292
1630932126247,32762,259587,187266
1630932126257,32755,259557,187262
1630932126267,32749,259554,187252
1630932126277,32744,259549,187235
1630932126287,32725,259528,187251
1630932126297,32711,259513,187238
1630932126307,32714,259522,187208
1630932126317,32718,259528,187232
1630932126327,32707,259491,187221
1630932126337,32702,259495,187209
1630932126347,32707,259493,187223
1630932126357,32709,259535,187198
1630932126367,32709,259481,187198
1630932126377,32713,259482,187204
1630932126387,32706,259405,187209
1630932126397,32706,259439,187206
1630932126407,32707,259472,187208
1630932126417,32706,259460,187199
1630932126427,32705,259437,187200
1630932126437,32700,259432,187244
1630932126447,32715,259429,187242
1630932126457,32709,259432,187249
1630932126467,32706,259416,187251
1630932126477,32703,259401,187235
1630932126487,32726,259441,187233
1630932126497,32720,259405,187215
1630932126507,32716,259428,187252
1630932126517,32716,259444,187244
1630932126527,32723,259471,187241
1630932126537,32725,259429,187237
1630932126547,32736,259467,187256
1630932126557,32742,259469,187265
1630932126567,32736,259468,187266
1630932126577,32747,259517,187295
1630932126587,32760,259479,187268
1630932126597,32766,259497,187287
1630932126607,32767,259526,187313
1630932126617,32768,259544,187310
1630932126627,32784,259552,187352
1630932126637,32801,259572,187337
1630932126647,32807,259554,187361
1630932126657,32809,259610,187350
1630932126667,32809,259603,187357
1630932126677,32831,259614,187373
1630932126687,32837,259684,187375
1630932126697,32840,259674,187381
1630932126707,32853,259689,187396
1630932126717,32860,259722,187402
1630932126727,32872,259720,187380
1630932126737,32869,259752,187388
1630932126747,32875,259780,187379
1630932126757,32884,259779,187396
1630932126767,32892,259794,187405
1630932126777,32909,259790,187402
1630932126787,32909,259832,187414
1630932126797,32925,259841,187420
1630932126807,32928,259856,187434
1630932126817,32924,259875,187420
1630932126827,32938,259904,187447
1630932126837,32944,259922,187428
1630932126847,32951,259941,187440
1630932126857,32963,259966,187444
1630932126867,32971,260003,187464
1630932126877,32981,260018,187444
1630932126887,32987,260031,187436
1630932126897,32992,260043,187432
1630932126907,32985,259989,187415
1630932126917,32979,259917,187446
1630932126927,32960,259896,187461
1630932126937,32943,259849,187446
1630932126947,32927,259793,187483
1630932126957,32892,259744,187469
1630932126967,32864,259724,187454
1630932126977,32831,259705,187437
1630932126987,32807,259688,187442
1630932126997,32789,259669,187460
1630932127007,32771,259696,187428
1630932127017,32759,259676,187444
1630932127027,32742,259675,187454
1630932127037,32731,259717,187426
1630932127047,32731,259710,187461
1630932127057,32722,259675,187453
1630932127067,32716,259687,187444
1630932127077,32708,259694,187427
1630932127087,32711,259712,187450
1630932127097,32707,259691,187444
1630932127107,32686,259693,187438
1630932127117,32704,259673,187434
1630932127127,32694,259712,187441
1630932127137,32691,259709,187428
1630932127147,32698,259704,187437
1630932127157,32699,259694,187412
1630932127167,32698,259692,187392
1630932127177,32701,259687,187426
1630932127187,32698,259635,187415
1630932127197,32703,259654,187394
1630932127207,32703,259646,187396
1630932127217,32700,259633,187409
1630932127227,32701,259628,187410
1630932127237,32696,259629,187371
1630932127247,32697,259616,187386
1630932127257,32695,259624,187368
1630932127267,32692,259645,187384
1630932127277,32695,259640,187361
1630932127287,32685,259643,187379
1630932127297,32691,259678,187376
1630932127307,32705,259631,187393
1630932127317,32705,259643,187365
1630932127327,32706,259684,187362
1630932127337,32709,259672,187351
1630932127347,32718,259730,187357
1630932127357,32728,259691,187363
1630932127367,32729,259706,187379
1630932127377,32741,259735,187371
1630932127387,32743,259742,187355
1630932127397,32751,259739,187386
1630932127407,32757,259707,187360
1630932127417,32758,259713,187359
1630932127427,32769,259767,187376
1630932127437,32771,259740,187374
1630932127447,32781,259784,187384
1630932127457,32786,259798,187374
1630932127467,32795,259810,187389
1630932127477,32796,259813,187384
1630932127487,32808,259815,187361
1630932127497,32810,259814,187374
1630932127507,32823,259850,187376
1630932127517,32833,259854,187366
1630932127527,32834,259933,187375
1630932127537,32840,259906,187350
1630932127547,32846,259931,187357
1630932127557,32852,259926,187359
1630932127567,32860,259914,187341
1630932127577,32877,259964,187361
1630932127587,32881,259992,187382
1630932127597,32885,259990,187374
1630932127607,32886,260002,187369
1630932127617,32899,260033,187381
1630932127627,32908,260067,187374
1630932127637,32919,260063,187377
1630932127647,32930,260060,187385
1630932127657,32933,260075,187390
1630932127667,32942,260113,187377
1630932127677,32947,260100,187398
1630932127687,32952,260133,187391
1630932127697,32954,260161,187397
1630932127707,32957,260068,187397
1630932127717,32945,260028,187389
1630932127727,32924,259983,187393
1630932127737,32901,259956,187406
1630932127747,32871,259914,187398
1630932127757,32850,259863,187407
1630932127767,32827,259835,187401
1630932127777,32777,259798,187387
1630932127787,32762,259787,187417
1630932127797,32740,259759,187380
1630932127807,32722,259749,187401
1630932127817,32706,259747,187413
1630932127827,32694,259753,187391
1630932127837,32687,259760,187382
1630932127847,32678,259711,187392
1630932127857,32669,259729,187393
1630932127867,32664,259755,187384
1630932127877,32656,259727,187393
1630932127887,32652,259763,187368
1630932127897,32650,259726,187398
1630932127907,32643,259776,187392
1630932127917,32646,259737,187379
1630932127927,32633,259751,187379
1630932127937,32634,259736,187357
1630932127947,32638,259750,187367
1630932127957,32640,259726,187387
1630932127967,32642,259732,187376
1630932127977,32640,259746,187359
1630932127987,32642,259695,187346
1630932127997,32639,259697,187381
1630932128007,32635,259720,187362
1630932128017,32646,259679,187369
1630932128027,32641,259708,187358
1630932128037,32636,259682,187378
1630932128047,32629,259699,187375
1630932128057,32639,259695,187360
1630932128067,32634,259691,187376
1630932128077,32627,259713,187356
1630932128087,32625,259691,187367
1630932128097,32645,259741,187357
1630932128107,32628,259717,187349
1630932128117,32650,259716,187347
1630932128127,32640,259755,187371
1630932128137,32657,259776,187362
1630932128147,32656,259751,187365
1630932128157,32658,259777,187353
1630932128167,32671,259772,187349
1630932128177,32670,259784,187366
1630932128187,32675,259752,187365
1630932128197,32689,259783,187375
1630932128207,32697,259803,187356
1630932128217,32695,259816,187366
1630932128227,32702,259846,187401
1630932128237,32724,259834,187377
1630932128247,32718,259845,187381
1630932128257,32737,259820,187377
1630932128267,32740,259860,187380
1630932128277,32740,259892,187390
1630932128287,32743,259876,187368
1630932128297,32753,259917,187386
1630932128307,32763,259941,187407
1630932128317,32764,259928,187401
1630932128327,32773,259941,187416
1630932128337,32792,259969,187422
1630932128347,32791,259986,187431
1630932128357,32801,260008,187415
1630932128367,32808,260039,187434
1630932128377,32816,260046,187417
1630932128387,32818,260080,187434
1630932128397,32829,260090,187457
1630932128407,32840,260062,187437
1630932128417,32854,260076,187459
1630932128427,32866,260114,187465
1630932128437,32876,260137,187463
1630932128447,32876,260146,187491
1630932128457,32881,260160,187476
1630932128467,32889,260121,187474
1630932128477,32888,260118,187461
1630932128487,32887,260042,187467
1630932128497,32862,259990,187453
1630932128507,32841,259945,187470
1630932128517,32816,259887,187472
1630932128527,32779,259868,187497
1630932128537,32757,259818,187459
1630932128547,32713,259794,187461
1630932128557,32689,259758,187460
1630932128567,32666,259750,187476
1630932128577,32649,259745,187462
1630932128587,32632,259751,187468
1630932128597,32622,259766,187460
1630932128607,32614,259747,187476
1630932128617,32607,259750,187496
1630932128627,32598,259750,187476
1630932128637,32599,259771,187461
1630932128647,32588,259784,187464
1630932128657,32588,259723,187450
1630932128667,32583,259733,187474
1630932128677,32584,259747,187471
1630932128687,32589,259737,187451
1630932128697,32584,259731,187473
1630932128707,32577,259763,187461
1630932128717,32590,259756,187449
1630932128727,32595,259712,187449
1630932128737,32595,259740,187472
1630932128747,32576,259704,187456
1630932128757,32581,259698,187441
1630932128767,32575,259711,187453
1630932128777,32571,259683,187427
1630932128787,32572,259662,187449
1630932128797,32572,259686,187443
1630932128807,32574,259684,187457
1630932128817,32568,259699,187423
1630932128827,32574,259690,187450
1630932128837,32579,259697,187440
1630932128847,32581,259679,187425
1630932128857,32572,259686,187436
1630932128867,32579,259682,187417
1630932128877,32590,259703,187391
1630932128887,32592,259723,187427
1630932128897,32602,259712,187444
1630932128907,32603,259732,187411
1630932128917,32595,259703,187440
1630932128927,32607,259696,187436
1630932128937,32616,259737,187411
1630932128947,32616,259717,187430
1630932128957,32626,259723,187440
1630932128967,32627,259734,187439
1630932128977,32643,259757,187460
1630932128987,32645,259749,187459
1630932128997,32656,259776,187461
1630932129007,32662,259794,187454
1630932129017,32666,259770,187460
1630932129027,32673,259808,187475
1630932129037,32686,259848,187447
1630932129047,32688,259860,187479
1630932129057,32702,259850,187491
1630932129067,32711,259887,187467
1630932129077,32707,259885,187466
1630932129087,32717,259888,187506
1630932129097,32721,259898,187479
1630932129107,32724,259939,187496
1630932129117,32731,259956,187480
1630932129127,32729,259989,187473
1630932129137,32738,259964,187476
1630932129147,32742,260019,187449
1630932129157,32743,260036,187463
1630932129167,32754,260079,187460
1630932129177,32752,260097,187464
1630932129187,32749,260168,187481
1630932129197,32766,260197,187476
1630932129207,32773,260258,187477
1630932129217,32768,260222,187505
1630932129227,32762,260241,187463
1630932129237,32742,260205,187470
1630932129247,32722,260111,187470
1630932129257,32702,260100,187462
1630932129267,32676,260032,187461
1630932129277,32636,259987,187453
1630932129287,32594,259981,187446
1630932129297,32566,259941,187447
1630932129307,32528,259936,187451
1630932129317,32504,259927,187458
1630932129327,32480,259922,187466
1630932129337,32470,259918,187489
1630932129347,32446,259909,187493
1630932129357,32434,259909,187509
1630932129367,32433,259946,187509
1630932129377,32422,259935,187501
1630932129387,32419,259956,187512
1630932129397,32407,259977,187510
1630932129407,32400,259938,187509
1630932129417,32390,259940,187518
1630932129427,32386,259925,187528
1630932129437,32387,259927,187538
1630932129447,32382,259941,187522
1630932129457,32385,259970,187525
1630932129467,32386,259950,187528
1630932129477,32385,259966,187530
1630932129487,32387,259934,187548
1630932129497,32397,259941,187539
1630932129507,32395,259922,187544
1630932129517,32403,259915,187535
1630932129527,32412,259933,187556
1630932129537,32398,259913,187551
1630932129547,32396,259890,187564
1630932129557,32405,259893,187584
1630932129567,32402,259875,187594
1630932129577,32397,259890,187622
1630932129587,32402,259914,187604
1630932129597,32413,259887,187635
1630932129607,32411,259943,187623
1630932129617,32422,259925,187641
1630932129627,32428,259956,187661
1630932129637,32432,259938,187655
1630932129647,32436,259980,187665
1630932129657,32452,259938,187675
1630932129667,32457,259978,187700
1630932129677,32465,260024,187704
1630932129687,32466,260024,187725
1630932129697,32474,260019,187714
1630932129707,32492,260032,187724
1630932129717,32487,260032,187760
1630932129727,32504,260042,187776
1630932129737,32515,260041,187764
1630932129747,32521,260090,187794
1630932129757,32527,260114,187777
1630932129767,32533,260096,187789
1630932129777,32546,260118,187815
1630932129787,32554,260162,187819
1630932129797,32566,260104,187834
1630932129807,32575,260142,187839
1630932129817,32580,260159,187828
1630932129827,32591,260211,187851
1630932129837,32595,260202,187835
1630932129847,32597,260205,187835
1630932129857,32622,260226,187832
1630932129867,32621,260193,187823
1630932129877,32630,260237,187822
1630932129887,32628,260187,187810
1630932129897,32628,260213,187788
1630932129907,32629,260184,187777
1630932129917,32632,260214,187765
1630932129927,32634,260234,187769
1630932129937,32642,260276,187782
1630932129947,32659,260313,187791
1630932129957,32677,260355,187852
1630932129967,32708,260445,187952
1630932129977,32733,260558,188058
1630932129987,32780,260685,188186
1630932129997,32826,260827,188319
1630932130007,32878,260976,188454
1630932130017,32914,261159,188576
1630932130027,32970,261334,188717
1630932130037,33005,261497,188850
1630932130047,33057,261570,188982
1630932130057,33056,261724,189065
1630932130067,33076,261721,189126
1630932130077,33077,261722,189199
1630932130087,33064,261689,189275
1630932130097,33056,261684,189334
1630932130107,33051,261712,189443
1630932130117,33040,261747,189522
1630932130127,33026,261751,189591
1630932130137,33016,261805,189669
1630932130147,33020,261846,189733
1630932130157,33016,261870,189794
1630932130167,33015,261926,189846
1630932130177,33005,261934,189884
1630932130187,33011,261904,189906
1630932130197,33032,261943,189928
1630932130207,33010,261929,189929
1630932130217,33014,261921,189921
1630932130227,33003,261897,189933
1630932130237,32997,261842,189884
1630932130247,32979,261780,189877
1630932130257,32979,261746,189827
1630932130267,32967,261730,189772
1630932130277,32960,261641,189763
1630932130287,32951,261587,189718
1630932130297,32947,261529,189636
1630932130307,32925,261400,189559
1630932130317,32905,261268,189436
1630932130327,32874,261135,189366
1630932130337,32855,261022,189272
1630932130347,32836,260917,189177
1630932130357,32813,260767,189133
1630932130367,32801,260710,188998
1630932130377,32771,260577,188933
1630932130387,32763,260494,188857
1630932130397,32741,260376,188767
1630932130407,32715,260253,188689
1630932130417,32689,260121,188572
1630932130427,32675,260014,188492
1630932130437,32644,259975,188402
1630932130447,32610,259843,188299
1630932130457,32594,259787,188231
1630932130467,32574,259705,188147
1630932130477,32553,259655,188071
1630932130487,32536,259618,187982
1630932130497,32548,259634,187970
1630932130507,32540,259568,187911
1630932130517,32536,259604,187897
1630932130527,32541,259602,187885
1630932130537,32544,259614,187873
1630932130547,32546,259634,187830
1630932130557,32550,259631,187822
1630932130567,32553,259623,187818
1630932130577,32558,259651,187797
1630932130587,32565,259673,187785
1630932130597,32576,259684,187802
1630932130607,32572,259698,187799
1630932130617,32581,259733,187772
1630932130627,32590,259743,187777
1630932130637,32594,259738,187762
1630932130647,32591,259795,187741
1630932130657,32605,259821,187755
1630932130667,32600,259811,187750
1630932130677,32607,259846,187772
1630932130687,32614,259848,187761
1630932130697,32621,259907,187751
1630932130707,32625,259917,187740
1630932130717,32635,259949,187751
1630932130727,32643,259921,187759
1630932130737,32644,259950,187750
1630932130747,32652,259964,187749
1630932130757,32661,260017,187740
1630932130767,32671,259963,187718
1630932130777,32677,260002,187739
1630932130787,32674,260047,187763
1630932130797,32680,260042,187749
1630932130807,32686,260095,187760
1630932130817,32706,260120,187773
1630932130827,32714,260128,187763
1630932130837,32722,260197,187789
1630932130847,32738,260207,187794
1630932130857,32749,260258,187834
1630932130867,32758,260306,187852
1630932130877,32772,260305,187851
1630932130887,32782,260291,187854
1630932130897,32793,260275,187834
1630932130907,32792,260272,187837
1630932130917,32785,260185,187818
1630932130927,32769,260128,187812
1630932130937,32746,260078,187794
1630932130947,32718,259966,187801
1630932130957,32691,259916,187780
1630932130967,32655,259874,187753
1630932130977,32625,259809,187741
1630932130987,32607,259795,187730
1630932130997,32567,259782,187733
1630932131007,32551,259762,187711
1630932131017,32526,259749,187694
1630932131027,32516,259744,187716
1630932131037,32508,259792,187700
1630932131047,32495,259731,187708
1630932131057,32493,259743,187697
1630932131067,32485,259739,187687
1630932131077,32484,259732,187684
1630932131087,32477,259777,187679
1630932131097,32475,259773,187677
1630932131107,32468,259768,187691
1630932131117,32462,259762,187675
1630932131127,32475,259814,187680
1630932131137,32464,259783,187689
1630932131147,32480,259836,187736
1630932131157,32492,259827,187696
1630932131167,32491,259832,187704
1630932131177,32500,259838,187718
1630932131187,32497,259842,187730
1630932131197,32504,259840,187742
1630932131207,32506,259833,187750
1630932131217,32508,259837,187759
1630932131227,32514,259842,187789
1630932131237,32511,259849,187787
1630932131247,32512,259889,187780
1630932131257,32515,259859,187769
1630932131267,32521,259880,187789
1630932131277,32531,259895,187782
1630932131287,32532,259920,187798
1630932131297,32540,259881,187792
1630932131307,32544,259842,187763
1630932131317,32554,259847,187775
1630932131327,32553,259881,187742
1630932131337,32559,259860,187753
1630932131347,32563,259875,187747
1630932131357,32567,259889,187750
1630932131367,32576,259818,187721
1630932131377,32589,259862,187752
1630932131387,32591,259864,187740
1630932131397,32601,259929,187736
1630932131407,32613,259919,187742
1630932131417,32629,259875,187747
1630932131427,32627,259924,187756
1630932131437,32636,259965,187758
1630932131447,32641,259909,187757
1630932131457,32653,259954,187751
1630932131467,32653,260016,187755
1630932131477,32686,260027,187784
1630932131487,32677,260028,187815
1630932131497,32706,260071,187812
1630932131507,32720,260090,187849
1630932131517,32742,260140,187886
1630932131527,32760,260143,187949
1630932131537,32781,260174,187968
1630932131547,32801,260257,187998
1630932131557,32823,260237,188033
1630932131567,32844,260269,188059
1630932131577,32862,260302,188094
1630932131587,32868,260344,188129
1630932131597,32890,260330,188148
1630932131607,32894,260333,188147
1630932131617,32905,260409,188180
1630932131627,32929,260392,188187
1630932131637,32952,260420,188205
1630932131647,32954,260423,188197
1630932131657,32968,260466,188224
1630932131667,32993,260494,188255
1630932131677,33002,260507,188284
1630932131687,33003,260516,188303
1630932131697,33020,260534,188315
1630932131707,33033,260595,188326
1630932131717,33045,260587,188333
1630932131727,33044,260618,188349
1630932131737,33054,260582,188343
1630932131747,33056,260556,188330
1630932131757,33047,260551,188353
1630932131767,33045,260473,188338
1630932131777,33023,260369,188330
1630932131787,33003,260312,188334
1630932131797,32975,260282,188360
1630932131807,32942,260251,188342
1630932131817,32924,260242,188340
1630932131827,32908,260194,188330
1630932131837,32879,260191,188350
1630932131847,32874,260162,188348
1630932131857,32861,260206,188342
1630932131867,32852,260206,188360
1630932131877,32854,260214,188381
1630932131887,32852,260229,188362
1630932131897,32853,260218,188391
1630932131907,32854,260239,188393
1630932131917,32846,260277,188411
1630932131927,32854,260250,188421
1630932131937,32862,260289,188444
1630932131947,32870,260264,188463
1630932131957,32885,260310,188448
1630932131967,32865,260334,188465
1630932131977,32868,260332,188496
1630932131987,32884,260261,188481
1630932131997,32887,260302,188489
1630932132007,32883,260270,188492
1630932132017,32886,260271,188474
1630932132027,32889,260256,188472
1630932132037,32876,260248,188474
1630932132047,32880,260248,188495
1630932132057,32887,260232,188470
1630932132067,32879,260239,188481
1630932132077,32879,260236,188475
1630932132087,32873,260230,188468
1630932132097,32874,260239,188464
1630932132107,32864,260240,188466
1630932132117,32877,260231,188484
1630932132127,32873,260321,188461
1630932132137,32892,260264,188464
1630932132147,32891,260239,188471
1630932132157,32890,260300,188463
1630932132167,32894,260305,188473
1630932132177,32895,260303,188454
1630932132187,32905,260299,188478
1630932132197,32911,260281,188444
1630932132207,32913,260261,188436
1630932132217,32915,260302,188436
1630932132227,32926,260319,188453
1630932132237,32931,260283,188451
1630932132247,32939,260340,188455
1630932132257,32936,260339,188460
1630932132267,32954,260352,188480
1630932132277,32950,260345,188452
1630932132287,32958,260363,188456
1630932132297,32973,260370,188446
1630932132307,32978,260363,188443
1630932132317,32978,260384,188442
1630932132327,32984,260423,188423
1630932132337,32989,260415,188414
1630932132347,32995,260393,188405
1630932132357,33002,260418,188417
1630932132367,33006,260434,188426
1630932132377,33021,260471,188427
1630932132387,33022,260467,188417
1630932132397,33034,260454,188434
1630932132407,33037,260488,188420
1630932132417,33041,260504,188395
1630932132427,33044,260503,188394
1630932132437,33055,260475,188416
1630932132447,33053,260537,188392
1630932132457,33065,260542,188387
1630932132467,33070,260527,188369
1630932132477,33077,260531,188371
1630932132487,33082,260569,188381
1630932132497,33076,260590,188370
1630932132507,33081,260566,188360
1630932132517,33084,260535,188350
1630932132527,33072,260484,188334
1630932132537,33059,260393,188315
1630932132547,33039,260371,188329
1630932132557,33014,260256,188310
1630932132567,32984,260249,188306
1630932132577,32952,260181,188275
1630932132587,32916,260175,188295
1630932132597,32904,260141,188279
1630932132607,32879,260116,188261
1630932132617,32853,260084,188274
1630932132627,32853,260125,188258
1630932132637,32825,260071,188268
1630932132647,32819,260085,188256
1630932132657,32808,260088,188254
1630932132667,32798,260079,188257
1630932132677,32789,260077,188228
1630932132687,32783,260087,188225
1630932132697,32767,260059,188225
1630932132707,32767,260046,188207
1630932132717,32761,260058,188198
1630932132727,32753,260018,188228
1630932132737,32755,260045,188206
1630932132747,32757,260034,188207
1630932132757,32747,260051,188189
1630932132767,32756,260025,188194
1630932132777,32756,260021,188156
1630932132787,32751,259998,188193
1630932132797,32747,259979,188163
1630932132807,32744,259975,188167
1630932132817,32746,259936,188152
1630932132827,32738,259931,188136
1630932132837,32738,259914,188117
1630932132847,32729,259891,188123
1630932132857,32735,259879,188097
1630932132867,32730,259859,188100
1630932132877,32726,259856,188077
1630932132887,32719,259828,188050
1630932132897,32725,259855,188050
1630932132907,32713,259834,188012
1630932132917,32713,259825,188000
1630932132927,32715,259836,187993
1630932132937,32711,259800,187973
1630932132947,32709,259809,187958
1630932132957,32701,259759,187956
1630932132967,32713,259755,187906
1630932132977,32705,259716,187895
1630932132987,32707,259741,187852
1630932132997,32707,259725,187836
1630932133007,32708,259730,187800
1630932133017,32705,259660,187772
1630932133027,32701,259711,187753
1630932133037,32702,259650,187740
1630932133047,32706,259723,187714
1630932133057,32705,259676,187696
1630932133067,32703,259682,187681
1630932133077,32704,259698,187662
1630932133087,32697,259690,187641
1630932133097,32690,259662,187632
1630932133107,32700,259667,187601
1630932133117,32709,259722,187591
1630932133127,32701,259706,187583
1630932133137,32707,259713,187558
1630932133147,32707,259688,187569
1630932133157,32707,259737,187575
1630932133167,32714,259698,187572
1630932133177,32714,259767,187569
1630932133187,32724,259736,187560
1630932133197,32724,259737,187557
1630932133207,32729,259760,187526
1630932133217,32735,259787,187552
1630932133227,32745,259760,187539
1630932133237,32747,259750,187555
1630932133247,32752,259793,187527
1630932133257,32756,259770,187526
1630932133267,32776,259800,187522
1630932133277,32769,259840,187518
1630932133287,32768,259785,187537
1630932133297,32764,259715,187544
1630932133307,32755,259695,187578
1630932133317,32743,259613,187566
1630932133327,32726,259546,187576
1630932133337,32697,259511,187549
1630932133347,32654,259460,187546
1630932133357,32628,259391,187565
1630932133367,32595,259341,187550
1630932133377,32570,259284,187520
1630932133387,32547,259273,187531
1630932133397,32535,259239,187532
1630932133407,32511,259249,187501
1630932133417,32506,259184,187492
1630932133427,32492,259192,187494
1630932133437,32472,259153,187500
1630932133447,32462,259098,187497
1630932133457,32449,259112,187494
1630932133467,32442,259060,187490
1630932133477,32432,259053,187472
1630932133487,32419,259050,187472
1630932133497,32418,259044,187461
1630932133507,32412,259007,187457
1630932133517,32404,259007,187442
1630932133527,32404,259000,187451
1630932133537,32404,258970,187427
1630932133547,32387,258935,187413
1630932133557,32400,258938,187396
1630932133567,32386,258931,187401
1630932133577,32395,258915,187369
1630932133587,32386,258888,187372
1630932133597,32370,258912,187370
1630932133607,32365,258838,187368
1630932133617,32357,258825,187338
1630932133627,32354,258798,187328
1630932133637,32357,258823,187316
1630932133647,32357,258818,187309
1630932133657,32355,258790,187322
1630932133667,32350,258790,187307
1630932133677,32350,258791,187310
1630932133687,32352,258775,187280
1630932133697,32348,258754,187306
1630932133707,32350,258748,187257
1630932133717,32355,258778,187273
1630932133727,32350,258749,187258
1630932133737,32362,258765,187255
1630932133747,32352,258758,187242
1630932133757,32361,258759,187247
1630932133767,32353,258768,187211
1630932133777,32352,258746,187207
1630932133787,32352,258750,187181
1630932133797,32353,258734,187175
1630932133807,32352,258731,187153
1630932133817,32360,258731,187152
1630932133827,32357,258742,187134
1630932133837,32362,258794,187115
1630932133847,32372,258777,187128
1630932133857,32369,258771,187131
1630932133867,32382,258819,187099
1630932133877,32387,258805,187098
1630932133887,32396,258836,187102
1630932133897,32392,258808,187107
1630932133907,32409,258802,187082
1630932133917,32412,258795,187064
1630932133927,32405,258831,187074
1630932133937,32407,258824,187060
1630932133947,32421,258824,187064
1630932133957,32429,258848,187076
1630932133967,32438,258885,187049
1630932133977,32438,258848,187051
1630932133987,32445,258905,187064
1630932133997,32456,258892,187050
1630932134007,32461,258907,187049
1630932134017,32467,258930,187044
1630932134027,32461,258940,187055
1630932134037,32470,258933,187031
1630932134047,32478,258909,187019
1630932134057,32446,258850,187021
1630932134067,32434,258802,187008
1630932134077,32419,258744,187004
1630932134087,32384,258688,187006
1630932134097,32353,258643,186992
1630932134107,32323,258597,186976
1630932134117,32285,258539,186988
1630932134127,32266,258517,186965
1630932134137,32236,258492,186944
1630932134147,32219,258480,186941
1630932134157,32204,258475,186934
1630932134167,32189,258436,186909
1630932134177,32169,258439,186877
1630932134187,32168,258394,186864
1630932134197,32149,258411,186822
1630932134207,32139,258354,186830
1630932134217,32116,258355,186795
1630932134227,32115,258337,186748
1630932134237,32095,258326,186761
1630932134247,32083,258296,186721
1630932134257,32080,258296,186708
1630932134267,32079,258273,186690
1630932134277,32075,258317,186699
1630932134287,32073,258275,186672
1630932134297,32071,258287,186642
1630932134307,32070,258287,186653
1630932134317,32078,258249,186636
1630932134327,32063,258246,186638
1630932134337,32063,258230,186614
1630932134347,32065,258207,186605
1630932134357,32059,258260,186632
1630932134367,32057,258154,186608
1630932134377,32071,258213,186588
1630932134387,32068,258176,186593
1630932134397,32054,258192,186583
1630932134407,32061,258183,186579
1630932134417,32059,258180,186596
1630932134427,32064,258172,186576
1630932134437,32066,258144,186569
1630932134447,32064,258191,186591
1630932134457,32083,258170,186577
1630932134467,32071,258163,186562
1630932134477,32079,258218,186555
1630932134487,32081,258139,186566
1630932134497,32086,258175,186568
1630932134507,32079,258180,186550
1630932134517,32099,258171,186560
1630932134527,32104,258176,186566
1630932134537,32111,258161,186580
1630932134547,32116,258183,186559
1630932134557,32115,258228,186577
1630932134567,32124,258217,186576
1630932134577,32133,258225,186578
1630932134587,32142,258243,186574
1630932134597,32145,258223,186571
1630932134607,32150,258254,186569
1630932134617,32161,258237,186583
1630932134627,32174,258303,186591
1630932134637,32183,258287,186589
1630932134647,32192,258340,186654
1630932134657,32204,258359,186671
1630932134667,32212,258348,186666
1630932134677,32219,258403,186678
1630932134687,32238,258401,186692
1630932134697,32240,258406,186688
1630932134707,32236,258438,186690
1630932134717,32253,258424,186704
1630932134727,32256,258452,186735
1630932134737,32280,258474,186700
1630932134747,32288,258521,186742
1630932134757,32296,258536,186750
1630932134767,32305,258526,186734
1630932134777,32315,258565,186766
1630932134787,32314,258550,186743
1630932134797,32320,258535,186742
1630932134807,32308,258520,186748
1630932134817,32296,258455,186767
1630932134827,32285,258457,186766
1630932134837,32260,258364,186781
1630932134847,32234,258349,186770
1630932134857,32205,258330,186782
1630932134867,32192,258340,186780
1630932134877,32171,258323,186764
1630932134887,32163,258269,186794
1630932134897,32147,258269,186769
1630932134907,32132,258297,186766
1630932134917,32133,258300,186756
1630932134927,32123,258303,186771
1630932134937,32120,258326,186784
1630932134947,32118,258270,186778
1630932134957,32109,258289,186781
1630932134967,32108,258278,186760
1630932134977,32106,258250,186750
1630932134987,32109,258296,186772
1630932134997,32107,258293,186770
1630932135007,32105,258273,186786
1630932135017,32116,258321,186756
1630932135027,32125,258326,186777
1630932135037,32105,258305,186731
1630932135047,32126,258290,186749
1630932135057,32129,258318,186738
1630932135067,32125,258294,186747
1630932135077,32121,258268,186763
1630932135087,32125,258283,186774
1630932135097,32121,258296,186760
1630932135107,32125,258316,186774
1630932135117,32124,258315,186768
1630932135127,32133,258295,186763
1630932135137,32135,258310,186761
1630932135147,32134,258333,186745
1630932135157,32146,258313,186768
1630932135167,32142,258329,186756
1630932135177,32145,258339,186757
1630932135187,32158,258353,186768
1630932135197,32159,258348,186766
1630932135207,32163,258339,186780
1630932135217,32183,258396,186773
1630932135227,32182,258362,186788
1630932135237,32193,258406,186782
1630932135247,32196,258386,186798
1630932135257,32194,258423,186803
1630932135267,32213,258432,186806
1630932135277,32222,258459,186787
1630932135287,32227,258483,186840
1630932135297,32241,258497,186832
1630932135307,32247,258509,186844
1630932135317,32260,258507,186850
1630932135327,32269,258534,186857
1630932135337,32293,258579,186865
1630932135347,32295,258568,186909
1630932135357,32300,258596,186895
1630932135367,32317,258583,186919
1630932135377,32323,258620,186924
1630932135387,32325,258640,186923
1630932135397,32336,258641,186923
1630932135407,32347,258650,186927
1630932135417,32356,258674,186919
1630932135427,32366,258699,186976
1630932135437,32378,258702,186957
1630932135447,32383,258742,186990
1630932135457,32390,258720,186986
1630932135467,32410,258828,186989
1630932135477,32418,258808,187004
1630932135487,32417,258818,187004
1630932135497,32434,258838,187033
1630932135507,32450,258863,187031
1630932135517,32462,258882,187018
1630932135527,32450,258868,187052
1630932135537,32472,258894,187050
1630932135547,32479,258932,187085
1630932135557,32493,258928,187084
1630932135567,32496,258931,187075
1630932135577,32495,258911,187077
1630932135587,32490,258909,187084
1630932135597,32482,258822,187101
1630932135607,32466,258811,187135
1630932135617,32442,258779,187127
1630932135627,32427,258753,187111
1630932135637,32405,258732,187146
1630932135647,32388,258735,187144
1630932135657,32375,258755,187141
1630932135667,32373,258724,187148
1630932135677,32360,258723,187129
1630932135687,32358,258716,187144
1630932135697,32357,258747,187161
1630932135707,32380,258718,187158
1630932135717,32367,258743,187179
1630932135727,32350,258722,187156
1630932135737,32353,258698,187153
1630932135747,32346,258720,187172
1630932135757,32349,258722,187154
1630932135767,32347,258720,187170
1630932135777,32351,258734,187158
1630932135787,32362,258748,187174
1630932135797,32370,258754,187142
1630932135807,32362,258752,187179
1630932135817,32369,258760,187145
1630932135827,32378,258745,187185
1630932135837,32379,258748,187159
1630932135847,32384,258724,187172
1630932135857,32381,258721,187157
1630932135867,32389,258715,187152
1630932135877,32393,258724,187154
1630932135887,32396,258744,187187
1630932135897,32395,258709,187187
1630932135907,32402,258756,187183
1630932135917,32400,258739,187179
1630932135927,32403,258744,187191
1630932135937,32405,258794,187164
1630932135947,32420,258804,187175
1630932135957,32425,258765,187190
1630932135967,32418,258807,187193
1630932135977,32441,258839,187204
1630932135987,32441,258792,187202
1630932135997,32447,258800,187177
1630932136007,32448,258832,187195
1630932136017,32445,258877,187209
1630932136027,32465,258850,187223
1630932136037,32473,258858,187207
1630932136047,32480,258876,187214
1630932136057,32488,258905,187223
1630932136067,32502,258904,187232
1630932136077,32513,258912,187223
1630932136087,32514,258913,187218
1630932136097,32523,258947,187232
1630932136107,32531,258949,187234
1630932136117,32536,258952,187232
1630932136127,32552,258950,187240
1630932136137,32561,258997,187247
1630932136147,32569,258986,187247
1630932136157,32576,259046,187236
1630932136167,32597,259032,187263
1630932136177,32582,259051,187267
1630932136187,32599,259058,187271
1630932136197,32613,259078,187270
1630932136207,32613,259086,187276
1630932136217,32627,259136,187275
1630932136227,32635,259102,187297
1630932136237,32642,259169,187291
1630932136247,32653,259156,187300
1630932136257,32663,259185,187290
1630932136267,32674,259196,187313
1630932136277,32688,259226,187306
1630932136287,32701,259252,187319
1630932136297,32704,259269,187330
1630932136307,32709,259286,187306
1630932136317,32729,259329,187325
1630932136327,32739,259312,187354
1630932136337,32741,259343,187341
1630932136347,32756,259363,187355
1630932136357,32752,259339,187364
1630932136367,32763,259358,187345
1630932136377,32771,259347,187380
1630932136387,32762,259330,187376
1630932136397,32754,259333,187379
1630932136407,32750,259322,187387
1630932136417,32732,259245,187416
1630932136427,32713,259231,187407
1630932136437,32695,259225,187413
1630932136447,32666,259232,187389
1630932136457,32665,259183,187371
1630932136467,32636,259192,187385
1630932136477,32614,259185,187399
1630932136487,32613,259129,187359
1630932136497,32600,259146,187365
1630932136507,32583,259119,187323
1630932136517,32576,259112,187312
1630932136527,32566,259128,187304
1630932136537,32558,259138,187264
1630932136547,32550,259097,187295
1630932136557,32536,259114,187269
1630932136567,32536,259069,187261
1630932136577,32534,259074,187261
1630932136587,32531,259067,187268
1630932136597,32520,259073,187265
1630932136607,32523,259074,187261
1630932136617,32532,259096,187248
1630932136627,32529,259077,187262
1630932136637,32535,259107,187271
1630932136647,32545,259103,187275
1630932136657,32552,259104,187281
1630932136667,32540,259103,187268
1630932136677,32550,259122,187240
1630932136687,32543,259113,187274
1630932136697,32544,259084,187294
1630932136707,32546,259094,187280
1630932136717,32548,259090,187292
1630932136727,32553,259110,187292
1630932136737,32556,259104,187293
1630932136747,32568,259128,187283
1630932136757,32566,259104,187298
1630932136767,32570,259136,187293
1630932136777,32581,259100,187308
1630932136787,32572,259135,187287
1630932136797,32591,259139,187280
1630932136807,32588,259178,187297
1630932136817,32588,259183,187278
1630932136827,32602,259167,187286
1630932136837,32608,259149,187314
1630932136847,32615,259192,187294
1630932136857,32624,259172,187280
1630932136867,32626,259184,187303
1630932136877,32632,259208,187295
1630932136887,32638,259202,187313
1630932136897,32647,259225,187316
1630932136907,32656,259234,187317
1630932136917,32664,259244,187306
1630932136927,32670,259238,187307
1630932136937,32682,259254,187323
1630932136947,32686,259302,187326
1630932136957,32697,259275,187337
1630932136967,32692,259277,187320
1630932136977,32715,259348,187353
1630932136987,32720,259310,187339
1630932136997,32727,259356,187339
1630932137007,32727,259351,187371
1630932137017,32738,259376,187347
1630932137027,32749,259380,187349
1630932137037,32753,259395,187362
1630932137047,32759,259413,187376
1630932137057,32771,259448,187387
1630932137067,32782,259440,187381
1630932137077,32792,259445,187410
1630932137087,32790,259471,187404
1630932137097,32813,259513,187400
1630932137107,32818,259487,187417
1630932137117,32825,259548,187428
1630932137127,32841,259564,187449
1630932137137,32843,259595,187437
1630932137147,32849,259597,187437
1630932137157,32864,259581,187436
1630932137167,32870,259616,187454
1630932137177,32880,259620,187466
1630932137187,32883,259622,187456
1630932137197,32894,259697,187475
1630932137207,32901,259676,187471
1630932137217,32908,259656,187502
1630932137227,32910,259664,187485
1630932137237,32913,259649,187494
1630932137247,32906,259649,187497
1630932137257,32896,259597,187496
1630932137267,32882,259544,187496
1630932137277,32861,259510,187512
1630932137287,32832,259504,187530
1630932137297,32818,259459,187505
1630932137307,32792,259465,187518
1630932137317,32778,259433,187551
1630932137327,32762,259415,187513
1630932137337,32753,259419,187545
1630932137347,32744,259411,187509
1630932137357,32736,259448,187516
1630932137367,32730,259426,187521
1630932137377,32714,259421,187516
1630932137387,32718,259417,187518
1630932137397,32707,259382,187517
1630932137407,32695,259374,187510
1630932137417,32687,259360,187508
1630932137427,32677,259368,187507
1630932137437,32677,259350,187505
1630932137447,32678,259368,187503
1630932137457,32686,259347,187476
1630932137467,32672,259360,187509
1630932137477,32675,259329,187488
1630932137487,32676,259317,187489
1630932137497,32666,259327,187485
1630932137507,32669,259326,187458
1630932137517,32664,259275,187490
1630932137527,32661,259293,187481
1630932137537,32654,259279,187452
1630932137547,32658,259281,187467
1630932137557,32666,259278,187473
1630932137567,32660,259266,187469
1630932137577,32662,259260,187462
1630932137587,32656,259282,187448
1630932137597,32659,259255,187459
1630932137607,32665,259245,187439
1630932137617,32665,259277,187427
1630932137627,32670,259285,187442
1630932137637,32667,259266,187449
1630932137647,32664,259254,187455
1630932137657,32662,259261,187450
1630932137667,32666,259247,187440
1630932137677,32670,259259,187426
1630932137687,32670,259272,187434
1630932137697,32681,259260,187465
1630932137707,32689,259293,187447
1630932137717,32687,259287,187429
1630932137727,32691,259276,187444
1630932137737,32699,259290,187453
1630932137747,32707,259318,187452
1630932137757,32714,259302,187461
1630932137767,32711,259304,187451
1630932137777,32722,259331,187466
1630932137787,32721,259323,187436
1630932137797,32731,259347,187432
1630932137807,32741,259366,187438
1630932137817,32738,259391,187452
1630932137827,32745,259403,187455
1630932137837,32752,259392,187437
1630932137847,32758,259400,187470
1630932137857,32769,259427,187473
1630932137867,32777,259470,187462
1630932137877,32783,259465,187453
1630932137887,32796,259428,187497
1630932137897,32803,259486,187493
1630932137907,32809,259440,187474
1630932137917,32813,259494,187462
1630932137927,32815,259478,187476
1630932137937,32819,259521,187478
1630932137947,32840,259556,187496
1630932137957,32850,259549,187501
1630932137967,32847,259563,187480
1630932137977,32850,259623,187494
1630932137987,32856,259586,187531
1630932137997,32860,259624,187536
1630932138007,32863,259624,187516
1630932138017,32877,259638,187516
1630932138027,32886,259668,187537
1630932138037,32892,259687,187515
1630932138047,32907,259682,187531
1630932138057,32909,259698,187538
1630932138067,32913,259756,187544
1630932138077,32926,259755,187552
1630932138087,32931,259765,187570
1630932138097,32945,259791,187548
1630932138107,32936,259775,187536
1630932138117,32949,259790,187556
1630932138127,32967,259818,187566
1630932138137,32975,259839,187582
1630932138147,32978,259838,187590
1630932138157,32986,259895,187579
1630932138167,32990,259883,187580
1630932138177,32995,259876,187567
1630932138187,32997,259912,187567
1630932138197,32991,259877,187546
1630932138207,32988,259806,187573
1630932138217,32964,259749,187575
1630932138227,32947,259738,187564
1630932138237,32920,259674,187582
1630932138247,32893,259659,187563
1630932138257,32865,259635,187580
1630932138267,32840,259623,187571
1630932138277,32802,259616,187562
1630932138287,32781,259584,187584
1630932138297,32773,259607,187573
1630932138307,32752,259556,187553
1630932138317,32742,259547,187545
1630932138327,32731,259560,187555
1630932138337,32718,259542,187557
1630932138347,32710,259595,187537
1630932138357,32704,259551,187534
1630932138367,32697,259531,187544
1630932138377,32692,259523,187541
1630932138387,32675,259503,187532
1630932138397,32669,259526,187541
1630932138407,32657,259510,187512
1630932138417,32664,259494,187532
1630932138427,32661,259502,187531
1630932138437,32644,259518,187528
1630932138447,32652,259489,187504
1630932138457,32642,259453,187520
1630932138467,32639,259430,187541
1630932138477,32627,259475,187498
1630932138487,32639,259448,187495
1630932138497,32621,259462,187504
1630932138507,32621,259480,187520
1630932138517,32619,259442,187498
1630932138527,32619,259449,187490
1630932138537,32618,259414,187497
1630932138547,32614,259447,187478
1630932138557,32601,259440,187473
1630932138567,32610,259418,187503
1630932138577,32601,259402,187498
1630932138587,32604,259414,187481
1630932138597,32608,259442,187473
1630932138607,32617,259388,187480
1630932138617,32611,259407,187484
1630932138627,32611,259391,187476
1630932138637,32605,259401,187468
1630932138647,32611,259382,187467
1630932138657,32612,259397,187479
1630932138667,32615,259455,187457
1630932138677,32617,259420,187479
1630932138687,32632,259422,187500
1630932138697,32634,259494,187492
1630932138707,32637,259467,187499
1630932138717,32650,259441,187504
1630932138727,32651,259476,187522
1630932138737,32654,259522,187541
1630932138747,32661,259487,187551
1630932138757,32671,259515,187551
1630932138767,32683,259511,187531
1630932138777,32675,259524,187563
1630932138787,32689,259484,187572
1630932138797,32697,259555,187572
1630932138807,32702,259560,187576
1630932138817,32710,259544,187592
1630932138827,32720,259584,187572
1630932138837,32720,259600,187583
1630932138847,32728,259600,187608
1630932138857,32740,259592,187623
1630932138867,32752,259576,187614
1630932138877,32751,259619,187637
1630932138887,32758,259639,187625
1630932138897,32766,259662,187627
1630932138907,32771,259651,187631
1630932138917,32786,259668,187649
1630932138927,32792,259725,187648
1630932138937,32798,259702,187662
1630932138947,32789,259687,187660
1630932138957,32804,259753,187697
1630932138967,32809,259712,187669
1630932138977,32812,259737,187670
1630932138987,32821,259757,187689
1630932138997,32834,259771,187689
1630932139007,32832,259774,187679
1630932139017,32834,259792,187679
1630932139027,32841,259785,187669
1630932139037,32851,259838,187707
1630932139047,32850,259834,187698
1630932139057,32867,259869,187711
1630932139067,32861,259888,187708
1630932139077,32870,259892,187716
1630932139087,32883,259932,187719
1630932139097,32888,259931,187751
1630932139107,32885,259962,187758
1630932139117,32903,259976,187778
1630932139127,32914,259961,187818
1630932139137,32918,260002,187871
1630932139147,32920,259981,187942
1630932139157,32917,260001,188018
1630932139167,32912,260009,188096
1630932139177,32913,260070,188190
1630932139187,32903,260114,188283
1630932139197,32905,260153,188405
1630932139207,32895,260192,188483
1630932139217,32899,260208,188533
1630932139227,32904,260286,188620
1630932139237,32902,260353,188674
1630932139247,32912,260395,188754
1630932139257,32909,260416,188808
1630932139267,32905,260473,188862
1630932139277,32911,260505,188926
1630932139287,32924,260514,188987
1630932139297,32923,260596,189057
1630932139307,32934,260597,189097
1630932139317,32934,260638,189143
1630932139327,32938,260695,189188
1630932139337,32936,260717,189212
1630932139347,32939,260700,189243
1630932139357,32927,260720,189223
1630932139367,32917,260640,189172
1630932139377,32893,260587,189098
1630932139387,32867,260489,188968
1630932139397,32815,260388,188849
1630932139407,32769,260307,188696
1630932139417,32722,260177,188552
1630932139427,32663,260065,188440
1630932139437,32635,259931,188293
1630932139447,32599,259814,188225
1630932139457,32577,259732,188167
1630932139467,32552,259687,188085
1630932139477,32527,259628,188026
1630932139487,32510,259600,187958
1630932139497,32495,259512,187899
1630932139507,32473,259445,187827
1630932139517,32449,259397,187778
1630932139527,32435,259324,187707
1630932139537,32428,259274,187652
1630932139547,32420,259216,187643
1630932139557,32425,259201,187655
1630932139567,32452,259224,187665
1630932139577,32446,259236,187698
1630932139587,32452,259289,187688
1630932139597,32468,259266,187683
1630932139607,32474,259322,187706
1630932139617,32487,259310,187718
1630932139627,32504,259335,187751
1630932139637,32505,259366,187764
1630932139647,32522,259366,187776
1630932139657,32540,259375,187818
1630932139667,32556,259412,187840
1630932139677,32565,259421,187850
1630932139687,32572,259451,187832
1630932139697,32588,259459,187860
1630932139707,32591,259487,187887
1630932139717,32597,259492,187870
1630932139727,32613,259507,187876
1630932139737,32617,259519,187892
1630932139747,32624,259527,187888
1630932139757,32622,259555,187879
1630932139767,32629,259541,187874
1630932139777,32631,259531,187860
1630932139787,32633,259553,187882
1630932139797,32642,259553,187850
1630932139807,32641,259583,187848
1630932139817,32640,259579,187844
1630932139827,32652,259582,187814
1630932139837,32656,259577,187833
1630932139847,32668,259605,187828
1630932139857,32669,259613,187816
1630932139867,32687,259604,187832
1630932139877,32689,259605,187804
1630932139887,32690,259619,187811
1630932139897,32702,259619,187798
1630932139907,32706,259651,187812
1630932139917,32708,259649,187791
1630932139927,32719,259696,187807
1630932139937,32726,259657,187796
1630932139947,32725,259707,187815
1630932139957,32725,259675,187773
1630932139967,32733,259684,187775
1630932139977,32742,259726,187754
1630932139987,32745,259686,187763
1630932139997,32752,259722,187748
1630932140007,32749,259737,187728
1630932140017,32752,259732,187721
1630932140027,32749,259720,187669
1630932140037,32754,259702,187650
1630932140047,32729,259632,187605
1630932140057,32699,259526,187553
1630932140067,32671,259457,187530
1630932140077,32641,259406,187517
1630932140087,32614,259324,187489
1630932140097,32577,259258,187487
1630932140107,32535,259207,187507
1630932140117,32512,259186,187503
1630932140127,32483,259139,187491
1630932140137,32445,259102,187487
1630932140147,32420,259070,187468
1630932140157,32402,259059,187453
1630932140167,32389,259038,187451
1630932140177,32378,259040,187430
1630932140187,32354,259018,187410
1630932140197,32339,259026,187398
1630932140207,32322,258982,187439
1630932140217,32303,259026,187440
1630932140227,32289,258997,187405
1630932140237,32267,258966,187411
1630932140247,32264,258946,187423
1630932140257,32250,258932,187395
1630932140267,32242,258880,187380
1630932140277,32234,258871,187368
1630932140287,32228,258886,187343
1630932140297,32223,258856,187317
1630932140307,32217,258858,187314
1630932140317,32206,258796,187279
1630932140327,32198,258791,187261
1630932140337,32189,258756,187252
1630932140347,32175,258709,187220
1630932140357,32170,258704,187189
1630932140367,32172,258658,187164
1630932140377,32150,258669,187164
1630932140387,32155,258626,187131
1630932140397,32142,258608,187089
1630932140407,32135,258574,187089
1630932140417,32128,258573,187064
1630932140427,32118,258538,187035
1630932140437,32116,258536,187035
1630932140447,32107,258520,187024
1630932140457,32110,258545,187012
1630932140467,32106,258520,187000
1630932140477,32104,258551,187005
1630932140487,32105,258528,187008
1630932140497,32108,258549,186986
1630932140507,32101,258520,187011
1630932140517,32096,258520,186983
1630932140527,32101,258523,186964
1630932140537,32086,258535,186982
1630932140547,32101,258513,186951
1630932140557,32088,258504,186935
1630932140567,32088,258492,186915
1630932140577,32085,258470,186906
1630932140587,32084,258479,186893
1630932140597,32080,258469,186905
1630932140607,32086,258497,186873
1630932140617,32089,258552,186876
1630932140627,32092,258503,186865
1630932140637,32100,258499,186896
1630932140647,32098,258526,186879
1630932140657,32107,258530,186881
1630932140667,32114,258511,186889
1630932140677,32117,258533,186863
1630932140687,32134,258573,186902
1630932140697,32141,258526,186895
1630932140707,32142,258562,186872
1630932140717,32151,258571,186906
1630932140727,32150,258606,186892
1630932140737,32165,258573,186915
1630932140747,32169,258582,186905
1630932140757,32174,258644,186902
1630932140767,32180,258677,186897
1630932140777,32194,258648,186923
1630932140787,32199,258640,186905
1630932140797,32206,258697,186917
1630932140807,32218,258703,186937
1630932140817,32226,258710,186942
1630932140827,32238,258680,186926
1630932140837,32252,258721,186958
1630932140847,32258,258748,186951
1630932140857,32263,258778,186951
1630932140867,32267,258765,186967
1630932140877,32277,258811,186958
1630932140887,32277,258858,186966
1630932140897,32292,258842,186970
1630932140907,32306,258884,186985
1630932140917,32303,258875,186989
1630932140927,32314,258871,187013
1630932140937,32330,258875,187028
1630932140947,32332,258917,187022
1630932140957,32342,258896,187032
1630932140967,32338,258886,187036
1630932140977,32326,258832,187047
1630932140987,32312,258779,187050
1630932140997,32298,258732,187046
1630932141007,32264,258732,187062
1630932141017,32253,258686,187076
1630932141027,32215,258698,187090
1630932141037,32202,258658,187096
1630932141047,32179,258605,187104
1630932141057,32163,258615,187093
1630932141067,32146,258624,187084
1630932141077,32136,258588,187091
1630932141087,32132,258579,187094
1630932141097,32125,258603,187107
1630932141107,32121,258600,187120
1630932141117,32122,258582,187109
1630932141127,32118,258574,187151
1630932141137,32123,258606,187141
1630932141147,32113,258558,187141
1630932141157,32104,258561,187146
1630932141167,32110,258522,187130
1630932141177,32101,258582,187142
1630932141187,32108,258581,187160
1630932141197,32127,258553,187146
1630932141207,32108,258582,187179
1630932141217,32112,258583,187163
1630932141227,32121,258604,187168
1630932141237,32119,258565,187188
1630932141247,32129,258570,187179
1630932141257,32137,258554,187194
1630932141267,32138,258548,187181
1630932141277,32143,258578,187197
1630932141287,32140,258559,187198
1630932141297,32145,258579,187210
1630932141307,32141,258562,187226
1630932141317,32144,258593,187213
1630932141327,32164,258592,187191
1630932141337,32150,258557,187203
1630932141347,32151,258659,187220
1630932141357,32150,258629,187222
1630932141367,32158,258640,187197
1630932141377,32166,258636,187211
1630932141387,32169,258636,187228
1630932141397,32172,258623,187203
1630932141407,32179,258642,187200
1630932141417,32183,258665,187228
1630932141427,32187,258709,187216
1630932141437,32203,258687,187228
1630932141447,32208,258713,187218
1630932141457,32210,258718,187215
1630932141467,32221,258727,187221
1630932141477,32226,258778,187222
1630932141487,32242,258742,187239
1630932141497,32251,258777,187240
1630932141507,32250,258782,187253
1630932141517,32267,258824,187222
1630932141527,32273,258783,187218
1630932141537,32269,258836,187229
1630932141547,32273,258848,187215
1630932141557,32287,258844,187223
1630932141567,32294,258836,187230
1630932141577,32301,258872,187231
1630932141587,32310,258902,187223
1630932141597,32321,258881,187225
1630932141607,32323,258827,187237
1630932141617,32329,258907,187208
1630932141627,32339,258916,187210
1630932141637,32341,258924,187189
1630932141647,32361,258900,187183
1630932141657,32359,258914,187167
1630932141667,32368,258945,187196
1630932141677,32367,258925,187147
1630932141687,32384,258974,187165
1630932141697,32369,258960,187132
1630932141707,32388,259004,187159
1630932141717,32391,259028,187149
1630932141727,32391,258982,187130
1630932141737,32393,258993,187144
1630932141747,32400,258994,187129
1630932141757,32407,258978,187137
1630932141767,32410,258960,187112
1630932141777,32402,258888,187085
1630932141787,32375,258871,187102
1630932141797,32368,258875,187079
1630932141807,32347,258768,187077
1630932141817,32309,258724,187072
1630932141827,32305,258719,187110
1630932141837,32302,258722,187166
1630932141847,32285,258681,187212
1630932141857,32274,258698,187260
1630932141867,32270,258652,187270
1630932141877,32268,258674,187298
1630932141887,32263,258697,187342
1630932141897,32266,258647,187378
1630932141907,32267,258650,187401
1630932141917,32265,258716,187442
1630932141927,32274,258706,187472
1630932141937,32270,258720,187503
1630932141947,32271,258778,187515
1630932141957,32273,258753,187529
1630932141967,32268,258769,187560
1630932141977,32284,258845,187565
1630932141987,32276,258878,187559
1630932141997,32275,258869,187594
1630932142007,32282,258908,187606
1630932142017,32294,258907,187640
1630932142027,32306,259001,187656
1630932142037,32311,258967,187667
1630932142047,32316,259051,187679
1630932142057,32319,259017,187696
1630932142067,32333,259086,187718
1630932142077,32334,259080,187716
1630932142087,32347,259150,187751
1630932142097,32353,259146,187799
1630932142107,32360,259166,187790
1630932142117,32374,259194,187807
1630932142127,32369,259183,187819
1630932142137,32384,259231,187820
1630932142147,32405,259301,187854
1630932142157,32413,259276,187898
1630932142167,32416,259282,187897
1630932142177,32428,259343,187903
1630932142187,32444,259343,187909
1630932142197,32452,259394,187930
1630932142207,32459,259409,187918
1630932142217,32474,259415,187947
1630932142227,32482,259442,187974
1630932142237,32495,259444,187971
1630932142247,32514,259463,187995
1630932142257,32518,259522,188012
1630932142267,32529,259544,188020
1630932142277,32546,259545,188040
1630932142287,32558,259601,188045
1630932142297,32578,259583,188066
1630932142307,32571,259619,188065
1630932142317,32587,259672,188091
1630932142327,32611,259653,188080
1630932142337,32625,259672,188096
1630932142347,32629,259704,188106
1630932142357,32642,259693,188140
1630932142367,32660,259744,188127
1630932142377,32664,259793,188150
1630932142387,32678,259820,188141
1630932142397,32686,259830,188160
1630932142407,32695,259861,188190
1630932142417,32712,259876,188202
1630932142427,32720,259876,188179
1630932142437,32727,259922,188202
1630932142447,32743,259975,188211
1630932142457,32755,259965,188213
1630932142467,32754,260000,188218
1630932142477,32769,259996,188226
1630932142487,32776,260036,188220
1630932142497,32785,260077,188246
1630932142507,32806,260037,188222
1630932142517,32820,260046,188224
1630932142527,32827,260091,188259
1630932142537,32830,260153,188243
1630932142547,32842,260132,188253
1630932142557,32852,260155,188250
1630932142567,32862,260131,188250
1630932142577,32868,260165,188248
1630932142587,32875,260106,188255
1630932142597,32876,260068,188234
1630932142607,32861,260045,188244
1630932142617,32848,260013,188256
1630932142627,32823,259996,188265
1630932142637,32802,259976,188281
1630932142647,32792,259961,188291
1630932142657,32764,259952,188306
1630932142667,32747,259972,188303
1630932142677,32727,259955,188338
1630932142687,32717,259984,188348
1630932142697,32706,259966,188326
1630932142707,32711,259991,188330
1630932142717,32712,260010,188341
1630932142727,32713,259996,188338
1630932142737,32706,260038,188340
1630932142747,32703,260042,188350
1630932142757,32699,260062,188342
1630932142767,32695,260022,188345
1630932142777,32695,260013,188351
1630932142787,32706,260007,188337
1630932142797,32696,260060,188317
1630932142807,32702,260009,188324
1630932142817,32708,260031,188338
1630932142827,32708,260027,188319
1630932142837,32701,260012,188340
1630932142847,32707,260031,188326
1630932142857,32721,259968,188328
1630932142867,32720,260007,188325
1630932142877,32714,259953,188311
1630932142887,32714,259958,188340
1630932142897,32720,259964,188294
1630932142907,32721,259986,188311
1630932142917,32722,259950,188305
1630932142927,32723,259969,188300
1630932142937,32724,259944,188303
1630932142947,32722,259984,188304
1630932142957,32729,259930,188300
1630932142967,32741,259981,188299
1630932142977,32739,259965,188279
1630932142987,32746,259986,188296
1630932142997,32744,259941,188307
1630932143007,32751,259959,188309
1630932143017,32767,259970,188314
1630932143027,32764,259970,188306
1630932143037,32769,259983,188309
1630932143047,32781,260035,188307
1630932143057,32782,259986,188311
1630932143067,32798,260007,188315
1630932143077,32800,260027,188296
1630932143087,32806,260017,188301
1630932143097,32818,260004,188296
1630932143107,32832,260043,188320
1630932143117,32832,260029,188309
1630932143127,32839,260060,188321
1630932143137,32848,260089,188295
1630932143147,32856,260072,188332
1630932143157,32857,260095,188329
1630932143167,32870,260072,188318
1630932143177,32878,260090,188334
1630932143187,32887,260136,188328
1630932143197,32893,260114,188345
1630932143207,32905,260137,188356
1630932143217,32914,260108,188341
1630932143227,32926,260194,188353
1630932143237,32933,260199,188352
1630932143247,32942,260198,188363
1630932143257,32951,260205,188370
1630932143267,32959,260211,188366
1630932143277,32953,260234,188366
1630932143287,32976,260221,188379
1630932143297,32991,260248,188395
1630932143307,32990,260250,188379
1630932143317,32996,260286,188370
1630932143327,33004,260271,188359
1630932143337,33009,260251,188375
1630932143347,33029,260267,188396
1630932143357,33041,260285,188401
1630932143367,33057,260368,188449
1630932143377,33080,260369,188463
1630932143387,33099,260419,188503
1630932143397,33098,260381,188536
1630932143407,33116,260405,188588
1630932143417,33114,260381,188611
1630932143427,33108,260318,188627
1630932143437,33089,260284,188643
1630932143447,33074,260256,188628
1630932143457,33054,260191,188637
1630932143467,33030,260204,188641
1630932143477,33019,260138,188656
1630932143487,32999,260130,188636
1630932143497,32992,260042,188622
1630932143507,32984,260049,188620
1630932143517,32974,259994,188598
1630932143527,32963,259964,188582
1630932143537,32959,259956,188554
1630932143547,32961,259885,188539
1630932143557,32946,259882,188523
1630932143567,32944,259853,188511
1630932143577,32931,259819,188520
1630932143587,32926,259778,188465
1630932143597,32923,259809,188485
1630932143607,32917,259766,188463
1630932143617,32922,259781,188442
1630932143627,32918,259738,188458
1630932143637,32916,259747,188458
1630932143647,32917,259738,188445
1630932143657,32922,259666,188450
1630932143667,32922,259700,188433
1630932143677,32924,259662,188436
1630932143687,32913,259674,188415
1630932143697,32918,259652,188433
1630932143707,32914,259628,188437
1630932143717,32923,259629,188435
1630932143727,32925,259610,188432
1630932143737,32927,259583,188431
1630932143747,32932,259613,188446
1630932143757,32924,259616,188412
1630932143767,32928,259591,188444
1630932143777,32923,259609,188456
1630932143787,32936,259592,188429
1630932143797,32939,259643,188413
1630932143807,32939,259600,188439
1630932143817,32947,259608,188439
1630932143827,32953,259618,188436
1630932143837,32959,259599,188451
1630932143847,32968,259642,188449
1630932143857,32976,259642,188448
1630932143867,32985,259630,188475
1630932143877,32993,259615,188460
1630932143887,33000,259659,188482
1630932143897,33010,259649,188474
1630932143907,33021,259651,188502
1630932143917,33028,259662,188530
1630932143927,33047,259676,188535
1630932143937,33048,259705,188549
1630932143947,33068,259681,188526
1630932143957,33075,259743,188574
1630932143967,33075,259742,188580
1630932143977,33093,259766,188605
1630932143987,33100,259793,188610
1630932143997,33112,259824,188613
1630932144007,33123,259812,188630
1630932144017,33138,259887,188655
1630932144027,33147,259900,188678
1630932144037,33174,259959,188722
1630932144047,33179,259986,188770
1630932144057,33202,260064,188797
1630932144067,33219,260086,188842
1630932144077,33243,260127,188872
1630932144087,33268,260234,188940
1630932144097,33295,260265,189015
1630932144107,33297,260333,189078
1630932144117,33333,260380,189102
1630932144127,33346,260497,189212
1630932144137,33369,260553,189267
1630932144147,33386,260611,189309
1630932144157,33405,260662,189363
1630932144167,33429,260685,189404
1630932144177,33446,260799,189480
1630932144187,33465,260808,189523
1630932144197,33472,260853,189539
1630932144207,33486,260816,189479
1630932144217,33477,260755,189478
1630932144227,33467,260699,189421
1630932144237,33431,260594,189356
1630932144247,33426,260479,189355
1630932144257,33398,260381,189315
1630932144267,33368,260345,189301
1630932144277,33348,260319,189303
1630932144287,33327,260300,189325
1630932144297,33303,260263,189317
1630932144307,33288,260253,189318
1630932144317,33275,260267,189337
1630932144327,33260,260229,189357
1630932144337,33252,260242,189368
1630932144347,33245,260204,189392
1630932144357,33243,260206,189358
1630932144367,33232,260201,189364
1630932144377,33227,260196,189363
1630932144387,33220,260183,189384
1630932144397,33211,260151,189355
1630932144407,33202,260168,189389
1630932144417,33200,260131,189406
1630932144427,33209,260123,189402
1630932144437,33205,260127,189406
1630932144447,33216,260092,189422
1630932144457,33217,260100,189420
1630932144467,33203,260122,189433
1630932144477,33202,260101,189441
1630932144487,33207,260066,189431
1630932144497,33200,260064,189443
1630932144507,33204,260065,189460
1630932144517,33206,260053,189443
1630932144527,33200,260063,189447
1630932144537,33206,260049,189444
1630932144547,33203,260048,189450
1630932144557,33200,260064,189435
1630932144567,33193,260012,189444
1630932144577,33197,260062,189453
1630932144587,33195,260066,189453
1630932144597,33206,260032,189474
1630932144607,33203,260034,189465
1630932144617,33200,260072,189452
1630932144627,33204,260130,189462
1630932144637,33205,260079,189478
1630932144647,33208,260100,189483
1630932144657,33212,260137,189501
1630932144667,33217,260159,189501
1630932144677,33221,260125,189501
1630932144687,33227,260160,189510
1630932144697,33231,260188,189534
1630932144707,33240,260199,189512
1630932144717,33245,260204,189533
1630932144727,33257,260234,189541
1630932144737,33245,260244,189537
1630932144747,33263,260288,189558
1630932144757,33268,260262,189583
1630932144767,33276,260295,189550
1630932144777,33272,260324,189566
1630932144787,33282,260337,189588
1630932144797,33288,260346,189594
1630932144807,33295,260386,189591
1630932144817,33301,260385,189607
1630932144827,33311,260396,189619
1630932144837,33319,260430,189630
1630932144847,33329,260451,189612
1630932144857,33326,260466,189628
1630932144867,33343,260483,189631
1630932144877,33349,260529,189643
1630932144887,33359,260560,189653
1630932144897,33366,260556,189661
1630932144907,33378,260578,189683
1630932144917,33385,260561,189680
1630932144927,33383,260659,189701
1630932144937,33389,260627,189717
1630932144947,33397,260689,189709
1630932144957,33405,260673,189717
1630932144967,33414,260673,189715
1630932144977,33420,260757,189727
1630932144987,33426,260776,189754
1630932144997,33442,260765,189739
1630932145007,33454,260818,189769
1630932145017,33464,260838,189772
1630932145027,33468,260835,189761
1630932145037,33481,260862,189778
1630932145047,33490,260890,189786
1630932145057,33492,260906,189797
1630932145067,33499,260974,189789
1630932145077,33515,260964,189796
1630932145087,33516,260953,189798
1630932145097,33524,260991,189781
1630932145107,33527,260977,189794
1630932145117,33512,260910,189792
1630932145127,33514,260850,189793
1630932145137,33491,260793,189808
1630932145147,33469,260756,189779
1630932145157,33435,260752,189800
1630932145167,33412,260700,189802
1630932145177,33387,260670,189789
1630932145187,33360,260657,189801
1630932145197,33337,260654,189793
1630932145207,33315,260631,189796
1630932145217,33300,260604,189793
1630932145227,33290,260603,189799
1630932145237,33282,260568,189787
1630932145247,33262,260565,189777
1630932145257,33258,260592,189794
1630932145267,33236,260560,189782
1630932145277,33232,260539,189756
1630932145287,33223,260551,189720
1630932145297,33216,260497,189745
1630932145307,33202,260493,189749
1630932145317,33197,260512,189749
1630932145327,33189,260473,189739
1630932145337,33183,260469,189754
1630932145347,33183,260496,189731
1630932145357,33180,260440,189718
1630932145367,33178,260429,189746
1630932145377,33174,260416,189714
1630932145387,33175,260431,189714
1630932145397,33174,260387,189714
1630932145407,33167,260417,189730
1630932145417,33166,260407,189701
1630932145427,33152,260403,189708
1630932145437,33156,260410,189716
1630932145447,33150,260379,189726
1630932145457,33152,260394,189707
1630932145467,33147,260385,189720
1630932145477,33146,260380,189700
1630932145487,33153,260388,189680
1630932145497,33144,260386,189725
1630932145507,33152,260370,189715
1630932145517,33151,260391,189714
1630932145527,33160,260416,189708
1630932145537,33155,260414,189720
1630932145547,33160,260407,189721
1630932145557,33157,260434,189709
1630932145567,33166,260450,189728
1630932145577,33165,260422,189717
1630932145587,33171,260447,189741
1630932145597,33171,260477,189739
1630932145607,33182,260453,189722
1630932145617,33186,260474,189750
1630932145627,33192,260502,189726
1630932145637,33201,260508,189727
1630932145647,33206,260467,189735
1630932145657,33212,260538,189742
1630932145667,33214,260554,189758
1630932145677,33223,260541,189757
1630932145687,33228,260563,189765
1630932145697,33243,260561,189745
1630932145707,33244,260596,189774
1630932145717,33250,260595,189773
1630932145727,33261,260596,189762
1630932145737,33264,260625,189785
1630932145747,33269,260645,189764
1630932145757,33275,260679,189795
1630932145767,33287,260698,189788
1630932145777,33290,260720,189808
1630932145787,33303,260734,189810
1630932145797,33316,260779,189805
1630932145807,33308,260750,189828
1630932145817,33323,260754,189825
1630932145827,33337,260790,189803
1630932145837,33343,260820,189830
1630932145847,33347,260812,189843
1630932145857,33353,260827,189848
1630932145867,33357,260859,189846
1630932145877,33361,260911,189883
1630932145887,33375,260947,189861
1630932145897,33392,260941,189899
1630932145907,33388,260968,189887
1630932145917,33392,260937,189882
1630932145927,33400,260929,189898
1630932145937,33408,260968,189906
1630932145947,33417,261020,189893
1630932145957,33427,261027,189912
1630932145967,33436,261074,189936
1630932145977,33445,261088,189925
1630932145987,33447,261091,189946
1630932145997,33466,261143,189950
1630932146007,33477,261111,189951
1630932146017,33482,261173,189975
1630932146027,33489,261169,189960
1630932146037,33494,261204,189973
1630932146047,33504,261171,189934
1630932146057,33501,261122,189940
1630932146067,33486,261084,189937
1630932146077,33471,260973,189933
1630932146087,33445,261001,189926
1630932146097,33421,260917,189960
1630932146107,33399,260921,189942
1630932146117,33364,260894,189942
1630932146127,33336,260872,189950
1630932146137,33317,260873,189954
1630932146147,33294,260824,189936
1630932146157,33277,260821,189927
1630932146167,33267,260780,189940
1630932146177,33252,260795,189921
1630932146187,33249,260773,189944
1630932146197,33239,260777,189907
1630932146207,33217,260763,189920
1630932146217,33213,260719,189891
1630932146227,33203,260719,189892
1630932146237,33191,260673,189884
1630932146247,33179,260712,189890
1630932146257,33181,260626,189869
1630932146267,33172,260662,189857
1630932146277,33169,260630,189856
1630932146287,33170,260669,189866
1630932146297,33164,260640,189855
1630932146307,33174,260623,189850
1630932146317,33172,260620,189847
1630932146327,33169,260611,189805
1630932146337,33162,260607,189824
1630932146347,33164,260547,189848
1630932146357,33164,260572,189825
1630932146367,33167,260569,189831
1630932146377,33158,260517,189832
1630932146387,33156,260548,189819
1630932146397,33146,260539,189823
1630932146407,33145,260531,189807
1630932146417,33149,260565,189810
1630932146427,33149,260526,189814
1630932146437,33144,260524,189817
1630932146447,33152,260565,189791
1630932146457,33145,260536,189826
1630932146467,33161,260569,189826
1630932146477,33162,260553,189806
1630932146487,33166,260560,189800
1630932146497,33163,260560,189800
1630932146507,33171,260584,189802
1630932146517,33170,260564,189795
1630932146527,33191,260595,189801
1630932146537,33193,260559,189807
1630932146547,33186,260591,189803
1630932146557,33196,260615,189806
1630932146567,33198,260624,189791
1630932146577,33209,260610,189804
1630932146587,33213,260543,189782
1630932146597,33216,260656,189810
1630932146607,33225,260653,189818
1630932146617,33233,260653,189828
1630932146627,33240,260667,189821
1630932146637,33247,260697,189841
1630932146647,33255,260704,189823
1630932146657,33257,260740,189840
1630932146667,33255,260729,189849
1630932146677,33268,260785,189844
1630932146687,33290,260757,189845
1630932146697,33288,260765,189858
1630932146707,33290,260767,189831
1630932146717,33303,260793,189841
1630932146727,33312,260797,189862
1630932146737,33321,260836,189839
1630932146747,33329,260823,189863
1630932146757,33339,260861,189876
1630932146767,33343,260848,189881
1630932146777,33338,260912,189894
1630932146787,33350,260932,189878
1630932146797,33355,260902,189903
1630932146807,33361,260957,189895
1630932146817,33370,260971,189877
1630932146827,33382,260925,189909
1630932146837,33383,261024,189905
1630932146847,33407,261023,189884
1630932146857,33410,261021,189902
1630932146867,33407,261044,189929
1630932146877,33428,261046,189931
1630932146887,33431,261082,189917
1630932146897,33434,261091,189938
1630932146907,33442,261104,189938
1630932146917,33458,261142,189952
1630932146927,33465,261159,189946
1630932146937,33472,261178,189948
1630932146947,33484,261205,189963
1630932146957,33500,261193,189940
1630932146967,33504,261248,189979
1630932146977,33508,261197,189965
1630932146987,33505,261204,189956
1630932146997,33494,261184,189967
1630932147007,33497,261170,189955
1630932147017,33487,261103,189959
1630932147027,33458,261046,189978
1630932147037,33433,261002,189960
1630932147047,33409,261004,189945
1630932147057,33376,260967,189982
1630932147067,33353,260947,189963
1630932147077,33336,260952,189963
1630932147087,33314,260929,189944
1630932147097,33302,260917,189942
1630932147107,33292,260922,189917
1630932147117,33287,260894,189936
1630932147127,33273,260850,189923
1630932147137,33272,260846,189905
1630932147147,33259,260792,189904
1630932147157,33256,260832,189909
1630932147167,33247,260819,189901
1630932147177,33246,260791,189899
1630932147187,33237,260815,189868
1630932147197,33224,260758,189883
1630932147207,33222,260780,189875
1630932147217,33220,260740,189879
1630932147227,33221,260767,189839
1630932147237,33217,260754,189854
1630932147247,33207,260730,189845
1630932147257,33204,260786,189852
1630932147267,33214,260740,189833
1630932147277,33215,260724,189831
1630932147287,33212,260738,189832
1630932147297,33210,260688,189812
1630932147307,33221,260693,189800
1630932147317,33201,260720,189825
1630932147327,33202,260714,189832
1630932147337,33221,260699,189814
1630932147347,33212,260701,189816
1630932147357,33204,260687,189811
1630932147367,33209,260723,189810
1630932147377,33205,260735,189802
1630932147387,33207,260700,189791
1630932147397,33214,260706,189811
1630932147407,33223,260723,189797
1630932147417,33232,260724,189816
1630932147427,33234,260726,189795
1630932147437,33230,260732,189789
1630932147447,33241,260760,189809
1630932147457,33242,260755,189809
1630932147467,33248,260749,189806
1630932147477,33253,260729,189828
1630932147487,33255,260780,189814
1630932147497,33264,260819,189791
1630932147507,33270,260822,189798
1630932147517,33278,260805,189827
1630932147527,33280,260796,189799
1630932147537,33282,260843,189792
1630932147547,33296,260850,189828
1630932147557,33298,260871,189813
1630932147567,33304,260875,189812
1630932147577,33314,260893,189833
1630932147587,33326,260912,189835
1630932147597,33333,260894,189827
1630932147607,33342,260931,189823
1630932147617,33345,260951,189833
1630932147627,33364,260955,189816
1630932147637,33367,260957,189845
1630932147647,33370,261003,189852
1630932147657,33378,260985,189838
1630932147667,33384,261035,189843
1630932147677,33399,261009,189853
1630932147687,33391,261066,189858
1630932147697,33400,261089,189853
1630932147707,33410,261089,189859
1630932147717,33416,261156,189869
1630932147727,33426,261133,189853
1630932147737,33431,261161,189873
1630932147747,33439,261167,189862
1630932147757,33451,261186,189876
1630932147767,33456,261194,189917
1630932147777,33463,261200,189878
1630932147787,33471,261255,189885
1630932147797,33472,261232,189897
1630932147807,33486,261249,189928
1630932147817,33491,261281,189899
1630932147827,33487,261291,189907
1630932147837,33502,261321,189908
1630932147847,33516,261310,189908
1630932147857,33521,261360,189929
1630932147867,33528,261380,189924
1630932147877,33537,261355,189931
1630932147887,33543,261400,189932
1630932147897,33552,261414,189924
1630932147907,33556,261409,189910
1630932147917,33562,261365,189942
1630932147927,33555,261316,189925
1630932147937,33549,261293,189921
1630932147947,33538,261290,189926
1630932147957,33521,261229,189906
1630932147967,33487,261193,189947
1630932147977,33472,261162,189918
1630932147987,33444,261112,189936
1630932147997,33417,261091,189926
1630932148007,33413,261096,189917
1630932148017,33395,261070,189939
1630932148027,33380,261090,189942
1630932148037,33366,261075,189899
1630932148047,33360,261081,189888
1630932148057,33354,261055,189909
1630932148067,33343,261025,189892
1630932148077,33335,261012,189870
1630932148087,33326,261005,189874
1630932148097,33329,260995,189853
1630932148107,33321,261020,189852
1630932148117,33315,260988,189866
1630932148127,33314,260959,189861
1630932148137,33309,260968,189844
1630932148147,33320,260949,189844
1630932148157,33311,260977,189835
1630932148167,33310,260942,189830
1630932148177,33314,260938,189845
1630932148187,33311,260932,189807
1630932148197,33313,260884,189814
1630932148207,33311,260893,189818
1630932148217,33306,260870,189818
1630932148227,33302,260873,189807
1630932148237,33303,260898,189822
1630932148247,33309,260848,189823
1630932148257,33309,260875,189782
1630932148267,33302,260909,189817
1630932148277,33307,260839,189793
