timestamp,green,ir,red
1630932113000,22329,196502,146145
1630932113010,22332,196524,146134
1630932113020,22333,196514,146136
1630932113030,22335,196533,146131
1630932113040,22346,196540,146142
1630932113050,22340,196577,146131
1630932113060,22341,196517,146106
1630932113070,22322,196490,146053
1630932113080,22313,196466,146019
1630932113090,22292,196403,146018
1630932113100,22272,196410,146000
1630932113110,22248,196351,146002
1630932113120,22229,196376,145998
1630932113130,22207,196339,145970
1630932113140,22190,196277,145958
1630932113150,22179,196301,145973
1630932113160,22167,196270,145961
1630932113170,22165,196275,145961
1630932113180,22157,196248,145955
1630932113190,22146,196266,145957
1630932113200,22144,196233,145978
1630932113210,22141,196224,145972
1630932113220,22132,196233,145945
1630932113230,22134,196229,145982
1630932113240,22126,196213,145954
1630932113250,22113,196194,145959
1630932113260,22118,196214,145938
1630932113270,22103,196187,145947
1630932113280,22102,196176,145949
1630932113290,22109,196160,145960
1630932113300,22100,196149,145961
1630932113310,22103,196200,145950
1630932113320,22103,196152,145987
1630932113330,22114,196154,145946
1630932113340,22110,196160,145956
1630932113350,22109,196131,145964
1630932113360,22113,196191,145971
1630932113370,22111,196178,145956
1630932113380,22115,196154,145969
1630932113390,22129,196178,145972
1630932113400,22113,196150,145993
1630932113410,22113,196160,145981
1630932113420,22119,196184,145970
1630932113430,22121,196155,145980
1630932113440,22116,196160,145988
1630932113450,22115,196188,145991
1630932113460,22117,196177,145994
1630932113470,22121,196166,145988
1630932113480,22122,196139,145992
1630932113490,22129,196200,145994
1630932113500,22132,196171,145984
1630932113510,22134,196161,145981
1630932113520,22137,196181,145982
1630932113530,22143,196203,145993
1630932113540,22143,196231,145994
1630932113550,22150,196217,146006
1630932113560,22157,196209,146006
1630932113570,22156,196215,146017
1630932113580,22158,196227,145993
1630932113590,22164,196215,146018
1630932113600,22174,196240,146012
1630932113610,22177,196222,146011
1630932113620,22173,196285,146017
1630932113630,22183,196289,146044
1630932113640,22188,196254,146030
1630932113650,22193,196291,146021
1630932113660,22194,196289,146021
1630932113670,22196,196296,146041
1630932113680,22204,196323,146036
1630932113690,22212,196318,146045
1630932113700,22210,196324,146045
1630932113710,22219,196339,146034
1630932113720,22215,196317,146055
1630932113730,22228,196352,146065
1630932113740,22219,196365,146054
1630932113750,22229,196374,146050
1630932113760,22242,196393,146065
1630932113770,22240,196396,146038
1630932113780,22242,196418,146047
1630932113790,22249,196416,146048
1630932113800,22256,196432,146047
1630932113810,22254,196453,146063
1630932113820,22258,196461,146062
1630932113830,22264,196427,146069
1630932113840,22273,196472,146068
1630932113850,22272,196449,146077
1630932113860,22277,196450,146089
1630932113870,22282,196482,146068
1630932113880,22293,196464,146066
1630932113890,22289,196458,146080
1630932113900,22297,196474,146053
1630932113910,22288,196513,146081
1630932113920,22297,196497,146066
1630932113930,22303,196519,146073
1630932113940,22315,196561,146079
1630932113950,22315,196540,146082
1630932113960,22319,196549,146078
1630932113970,22317,196576,146077
1630932113980,22322,196562,146075
1630932113990,22330,196589,146067
1630932114000,22328,196555,146070
1630932114010,22334,196567,146085
1630932114020,22343,196600,146075
1630932114030,22342,196588,146081
1630932114040,22355,196601,146078
1630932114050,22353,196595,146077
1630932114060,22356,196603,146066
1630932114070,22348,196591,146057
1630932114080,22349,196575,146018
1630932114090,22332,196523,145994
1630932114100,22319,196491,145991
1630932114110,22301,196436,145939
1630932114120,22278,196412,145952
1630932114130,22251,196395,145903
1630932114140,22227,196305,145891
1630932114150,22208,196300,145876
1630932114160,22191,196280,145871
1630932114170,22177,196220,145860
1630932114180,22162,196179,145862
1630932114190,22156,196193,145860
1630932114200,22143,196184,145858
1630932114210,22151,196144,145873
1630932114220,22127,196133,145862
1630932114230,22124,196126,145832
1630932114240,22122,196122,145850
1630932114250,22110,196091,145834
1630932114260,22104,196083,145833
1630932114270,22096,196071,145831
1630932114280,22093,196047,145796
1630932114290,22089,196043,145808
1630932114300,22079,196011,145822
1630932114310,22081,195990,145794
1630932114320,22078,195986,145808
1630932114330,22077,195990,145813
1630932114340,22079,195979,145813
1630932114350,22075,195963,145789
1630932114360,22068,195987,145785
1630932114370,22080,195953,145772
1630932114380,22082,195932,145788
1630932114390,22069,195954,145790
1630932114400,22073,195930,145766
1630932114410,22063,195889,145772
1630932114420,22068,195895,145752
1630932114430,22063,195889,145760
1630932114440,22063,195893,145752
1630932114450,22059,195900,145738
1630932114460,22065,195875,145739
1630932114470,22059,195868,145748
1630932114480,22063,195825,145735
1630932114490,22059,195833,145729
1630932114500,22055,195835,145719
1630932114510,22061,195830,145705
1630932114520,22060,195827,145692
1630932114530,22069,195828,145717
1630932114540,22069,195793,145686
1630932114550,22064,195812,145662
1630932114560,22066,195778,145665
1630932114570,22067,195756,145650
1630932114580,22069,195769,145647
1630932114590,22073,195776,145630
1630932114600,22067,195741,145617
1630932114610,22069,195720,145579
1630932114620,22068,195711,145584
1630932114630,22075,195695,145566
1630932114640,22075,195670,145536
1630932114650,22072,195661,145532
1630932114660,22069,195655,145492
1630932114670,22068,195630,145477
1630932114680,22069,195591,145433
1630932114690,22083,195565,145414
1630932114700,22071,195556,145402
1630932114710,22060,195558,145380
1630932114720,22064,195511,145333
1630932114730,22074,195506,145318
1630932114740,22071,195478,145315
1630932114750,22068,195473,145298
1630932114760,22062,195464,145256
1630932114770,22063,195439,145249
1630932114780,22060,195410,145202
1630932114790,22060,195366,145187
1630932114800,22059,195396,145178
1630932114810,22049,195365,145148
1630932114820,22058,195388,145131
1630932114830,22051,195365,145108
1630932114840,22049,195358,145100
1630932114850,22060,195346,145096
1630932114860,22051,195355,145082
1630932114870,22051,195366,145079
1630932114880,22047,195340,145092
1630932114890,22052,195363,145092
1630932114900,22050,195364,145068
1630932114910,22059,195362,145065
1630932114920,22053,195384,145086
1630932114930,22057,195378,145080
1630932114940,22057,195389,145070
1630932114950,22058,195399,145080
1630932114960,22058,195398,145056
1630932114970,22061,195393,145057
1630932114980,22063,195410,145050
1630932114990,22063,195395,145029
1630932115000,22065,195350,145020
1630932115010,22066,195354,145010
1630932115020,22068,195364,144984
1630932115030,22075,195334,144976
1630932115040,22076,195302,144963
1630932115050,22075,195331,144975
1630932115060,22083,195289,144959
1630932115070,22087,195303,144960
1630932115080,22090,195284,144965
1630932115090,22079,195259,144946
1630932115100,22066,195233,144920
1630932115110,22054,195165,144906
1630932115120,22035,195117,144888
1630932115130,22013,195081,144888
1630932115140,21994,195024,144899
1630932115150,21972,194998,144896
1630932115160,21961,194960,144906
1630932115170,21947,194923,144910
1630932115180,21933,194881,144900
1630932115190,21919,194868,144924
1630932115200,21912,194847,144925
1630932115210,21909,194842,144926
1630932115220,21906,194842,144948
1630932115230,21905,194813,144959
1630932115240,21901,194812,144964
1630932115250,21898,194775,144960
1630932115260,21895,194800,144973
1630932115270,21887,194790,144968
1630932115280,21883,194766,144977
1630932115290,21877,194769,144969
1630932115300,21877,194766,144945
1630932115310,21880,194735,144985
1630932115320,21880,194727,145020
1630932115330,21887,194746,145034
1630932115340,21893,194772,145046
1630932115350,21906,194769,145080
1630932115360,21897,194757,145084
1630932115370,21908,194775,145101
1630932115380,21907,194793,145132
1630932115390,21910,194825,145144
1630932115400,21915,194817,145168
1630932115410,21914,194823,145175
1630932115420,21915,194807,145180
1630932115430,21921,194837,145196
1630932115440,21918,194824,145233
1630932115450,21928,194851,145230
1630932115460,21929,194858,145246
1630932115470,21939,194876,145276
1630932115480,21946,194912,145327
1630932115490,21951,194938,145342
1630932115500,21958,194982,145387
1630932115510,21967,195001,145396
1630932115520,21969,194987,145387
1630932115530,21968,195019,145408
1630932115540,21992,195009,145425
1630932115550,21981,195031,145443
1630932115560,21997,195053,145453
1630932115570,21995,195071,145463
1630932115580,22010,195110,145470
1630932115590,22012,195118,145485
1630932115600,22015,195129,145496
1630932115610,22025,195128,145482
1630932115620,22028,195137,145508
1630932115630,22035,195139,145489
1630932115640,22038,195151,145481
1630932115650,22031,195150,145477
1630932115660,22045,195158,145501
1630932115670,22050,195195,145502
1630932115680,22056,195199,145491
1630932115690,22050,195205,145529
1630932115700,22060,195190,145516
1630932115710,22063,195214,145529
1630932115720,22077,195221,145501
1630932115730,22077,195238,145507
1630932115740,22087,195260,145542
1630932115750,22090,195288,145539
1630932115760,22096,195289,145528
1630932115770,22104,195287,145538
1630932115780,22109,195307,145560
1630932115790,22119,195328,145556
1630932115800,22119,195360,145568
1630932115810,22125,195382,145585
1630932115820,22131,195381,145569
1630932115830,22148,195387,145569
1630932115840,22139,195402,145576
1630932115850,22158,195417,145601
1630932115860,22150,195430,145604
1630932115870,22153,195457,145584
1630932115880,22164,195469,145607
1630932115890,22165,195479,145605
1630932115900,22171,195471,145613
1630932115910,22181,195476,145612
1630932115920,22183,195507,145611
1630932115930,22192,195505,145646
1630932115940,22194,195515,145636
1630932115950,22198,195558,145640
1630932115960,22208,195565,145627
1630932115970,22210,195563,145644
1630932115980,22215,195569,145650
1630932115990,22221,195585,145649
1630932116000,22229,195581,145650
1630932116010,22239,195607,145634
1630932116020,22234,195633,145629
1630932116030,22241,195640,145627
1630932116040,22234,195592,145616
1630932116050,22229,195579,145590
1630932116060,22207,195549,145549
1630932116070,22191,195527,145528
1630932116080,22166,195443,145521
1630932116090,22152,195443,145530
1630932116100,22133,195387,145508
1630932116110,22111,195384,145500
1630932116120,22092,195347,145501
1630932116130,22073,195297,145483
1630932116140,22072,195312,145485
1630932116150,22057,195334,145490
1630932116160,22061,195275,145481
1630932116170,22050,195299,145499
1630932116180,22041,195302,145496
1630932116190,22044,195283,145513
1630932116200,22031,195297,145501
1630932116210,22034,195272,145503
1630932116220,22030,195251,145505
1630932116230,22029,195275,145482
1630932116240,22015,195235,145473
1630932116250,22020,195227,145467
1630932116260,22017,195235,145475
1630932116270,22011,195219,145456
1630932116280,22013,195206,145471
1630932116290,22017,195219,145471
1630932116300,22016,195218,145478
1630932116310,22019,195242,145490
1630932116320,22020,195242,145486
1630932116330,22016,195215,145455
1630932116340,22020,195226,145466
1630932116350,22018,195236,145493
1630932116360,22027,195235,145474
1630932116370,22019,195238,145472
1630932116380,22023,195238,145477
1630932116390,22021,195242,145479
1630932116400,22022,195277,145484
1630932116410,22025,195235,145474
1630932116420,22022,195265,145491
1630932116430,22024,195276,145492
1630932116440,22030,195261,145500
1630932116450,22030,195265,145487
1630932116460,22035,195299,145520
1630932116470,22034,195321,145506
1630932116480,22042,195328,145498
1630932116490,22051,195297,145509
1630932116500,22046,195299,145529
1630932116510,22046,195360,145514
1630932116520,22054,195337,145533
1630932116530,22058,195361,145541
1630932116540,22065,195378,145528
1630932116550,22065,195409,145563
1630932116560,22072,195428,145566
1630932116570,22076,195432,145566
1630932116580,22080,195418,145553
1630932116590,22084,195427,145587
1630932116600,22095,195417,145580
1630932116610,22097,195430,145578
1630932116620,22097,195464,145580
1630932116630,22102,195446,145576
1630932116640,22117,195469,145603
1630932116650,22102,195485,145577
1630932116660,22114,195463,145584
1630932116670,22132,195521,145584
1630932116680,22114,195501,145569
1630932116690,22122,195535,145588
1630932116700,22127,195524,145568
1630932116710,22137,195536,145575
1630932116720,22138,195536,145592
1630932116730,22142,195573,145581
1630932116740,22145,195557,145581
1630932116750,22150,195561,145581
1630932116760,22151,195589,145580
1630932116770,22156,195600,145586
1630932116780,22160,195605,145584
1630932116790,22168,195618,145594
1630932116800,22164,195658,145598
1630932116810,22174,195649,145595
1630932116820,22177,195656,145619
1630932116830,22183,195684,145603
1630932116840,22190,195704,145631
1630932116850,22194,195729,145624
1630932116860,22208,195720,145624
1630932116870,22207,195738,145618
1630932116880,22204,195722,145601
1630932116890,22202,195691,145581
1630932116900,22187,195698,145584
1630932116910,22171,195647,145563
1630932116920,22149,195626,145562
1630932116930,22135,195561,145537
1630932116940,22116,195575,145547
1630932116950,22096,195538,145517
1630932116960,22082,195523,145526
1630932116970,22070,195515,145545
1630932116980,22074,195461,145538
1630932116990,22061,195517,145545
1630932117000,22055,195492,145553
1630932117010,22051,195501,145557
1630932117020,22048,195513,145583
1630932117030,22045,195485,145566
1630932117040,22044,195505,145572
1630932117050,22042,195485,145582
1630932117060,22040,195486,145586
1630932117070,22035,195500,145571
1630932117080,22036,195514,145588
1630932117090,22036,195482,145598
1630932117100,22039,195502,145593
1630932117110,22037,195482,145605
1630932117120,22042,195516,145617
1630932117130,22051,195498,145630
1630932117140,22053,195490,145628
1630932117150,22043,195522,145615
1630932117160,22065,195521,145649
1630932117170,22053,195532,145632
1630932117180,22060,195508,145641
1630932117190,22065,195522,145619
1630932117200,22061,195503,145654
1630932117210,22067,195538,145617
1630932117220,22064,195540,145629
1630932117230,22064,195566,145627
1630932117240,22066,195530,145644
1630932117250,22068,195557,145659
1630932117260,22074,195540,145647
1630932117270,22073,195540,145655
1630932117280,22074,195588,145655
1630932117290,22081,195564,145650
1630932117300,22080,195580,145660
1630932117310,22081,195601,145658
1630932117320,22094,195600,145660
1630932117330,22107,195630,145663
1630932117340,22095,195599,145676
1630932117350,22103,195621,145677
1630932117360,22110,195631,145681
1630932117370,22112,195645,145695
1630932117380,22113,195666,145705
1630932117390,22119,195682,145710
1630932117400,22121,195665,145701
1630932117410,22130,195692,145717
1630932117420,22134,195697,145720
1630932117430,22141,195709,145723
1630932117440,22144,195736,145721
1630932117450,22148,195735,145732
1630932117460,22158,195722,145737
1630932117470,22150,195745,145745
1630932117480,22164,195775,145731
1630932117490,22174,195782,145744
1630932117500,22176,195815,145758
1630932117510,22179,195783,145746
1630932117520,22186,195820,145748
1630932117530,22185,195758,145747
1630932117540,22196,195793,145752
1630932117550,22194,195829,145749
1630932117560,22201,195836,145735
1630932117570,22202,195843,145766
1630932117580,22208,195875,145756
1630932117590,22214,195889,145760
1630932117600,22219,195883,145765
1630932117610,22226,195896,145744
1630932117620,22237,195929,145757
1630932117630,22231,195906,145792
1630932117640,22247,195952,145791
1630932117650,22246,195944,145787
1630932117660,22250,195969,145796
1630932117670,22251,195948,145775
1630932117680,22256,195976,145795
1630932117690,22267,195970,145798
1630932117700,22265,195986,145797
1630932117710,22263,195983,145766
1630932117720,22257,195969,145742
1630932117730,22242,195940,145723
1630932117740,22226,195893,145699
1630932117750,22202,195878,145676
1630932117760,22182,195827,145676
1630932117770,22160,195806,145697
1630932117780,22138,195781,145661
1630932117790,22124,195770,145655
1630932117800,22111,195720,145654
1630932117810,22098,195709,145650
1630932117820,22085,195714,145648
1630932117830,22074,195702,145640
1630932117840,22075,195717,145682
1630932117850,22074,195688,145669
1630932117860,22069,195702,145665
1630932117870,22067,195663,145673
1630932117880,22062,195676,145663
1630932117890,22055,195688,145669
1630932117900,22054,195619,145674
1630932117910,22053,195625,145658
1630932117920,22042,195624,145664
1630932117930,22042,195607,145658
1630932117940,22046,195615,145645
1630932117950,22034,195599,145696
1630932117960,22035,195636,145686
1630932117970,22057,195625,145681
1630932117980,22058,195634,145685
1630932117990,22048,195637,145664
1630932118000,22045,195619,145668
1630932118010,22054,195646,145652
1630932118020,22050,195601,145673
1630932118030,22056,195634,145667
1630932118040,22054,195616,145684
1630932118050,22046,195620,145692
1630932118060,22057,195618,145680
1630932118070,22061,195586,145691
1630932118080,22059,195634,145677
1630932118090,22061,195633,145705
1630932118100,22062,195626,145705
1630932118110,22060,195628,145687
1630932118120,22064,195624,145683
1630932118130,22075,195647,145678
1630932118140,22064,195634,145692
1630932118150,22075,195659,145692
1630932118160,22080,195663,145717
1630932118170,22089,195693,145734
1630932118180,22090,195685,145721
1630932118190,22098,195679,145734
1630932118200,22095,195697,145732
1630932118210,22105,195709,145735
1630932118220,22106,195726,145732
1630932118230,22114,195745,145740
1630932118240,22121,195738,145754
1630932118250,22122,195762,145752
1630932118260,22140,195761,145747
1630932118270,22124,195774,145756
1630932118280,22136,195789,145755
1630932118290,22142,195819,145768
1630932118300,22152,195785,145759
1630932118310,22154,195812,145781
1630932118320,22161,195808,145788
1630932118330,22170,195834,145785
1630932118340,22170,195822,145785
1630932118350,22173,195873,145797
1630932118360,22177,195852,145808
1630932118370,22186,195896,145819
1630932118380,22186,195924,145825
1630932118390,22198,195917,145831
1630932118400,22197,195935,145816
1630932118410,22208,195912,145820
1630932118420,22210,195935,145857
1630932118430,22219,195939,145843
1630932118440,22218,195978,145843
1630932118450,22233,196004,145842
1630932118460,22222,195986,145847
1630932118470,22233,196007,145840
1630932118480,22234,196042,145859
1630932118490,22238,196024,145867
1630932118500,22244,196034,145868
1630932118510,22252,196067,145863
1630932118520,22257,196078,145880
1630932118530,22263,196060,145892
1630932118540,22267,196105,145897
1630932118550,22271,196155,145898
1630932118560,22276,196165,145905
1630932118570,22272,196174,145915
1630932118580,22266,196163,145877
1630932118590,22249,196146,145868
1630932118600,22245,196126,145850
1630932118610,22213,196073,145859
1630932118620,22183,196045,145848
1630932118630,22167,196023,145863
1630932118640,22151,196018,145838
1630932118650,22130,196010,145851
1630932118660,22114,195996,145841
1630932118670,22105,195971,145855
1630932118680,22093,195972,145869
1630932118690,22087,195965,145859
1630932118700,22076,195981,145860
1630932118710,22069,195965,145853
1630932118720,22064,195973,145852
1630932118730,22060,195983,145859
1630932118740,22052,195978,145854
1630932118750,22046,195953,145851
1630932118760,22045,195951,145822
1630932118770,22036,195960,145816
1630932118780,22021,195930,145791
1630932118790,22025,195946,145802
1630932118800,22011,195915,145779
1630932118810,22014,195922,145785
1630932118820,22010,195917,145755
1630932118830,22008,195895,145755
1630932118840,22010,195910,145736
1630932118850,22014,195889,145726
1630932118860,22005,195887,145710
1630932118870,21998,195874,145708
1630932118880,22001,195845,145703
1630932118890,21996,195852,145655
1630932118900,21999,195812,145649
1630932118910,21984,195778,145611
1630932118920,22000,195773,145591
1630932118930,21983,195754,145596
1630932118940,21988,195747,145570
1630932118950,21985,195718,145565
1630932118960,21982,195699,145525
1630932118970,21981,195686,145509
1630932118980,21982,195694,145513
1630932118990,21982,195663,145507
1630932119000,21991,195670,145500
1630932119010,21995,195649,145480
1630932119020,21999,195679,145470
1630932119030,22003,195644,145480
1630932119040,22008,195692,145484
1630932119050,22014,195709,145464
1630932119060,22019,195686,145468
1630932119070,22021,195714,145478
1630932119080,22027,195665,145464
1630932119090,22036,195668,145484
1630932119100,22046,195714,145457
1630932119110,22047,195738,145440
1630932119120,22050,195722,145461
1630932119130,22059,195738,145467
1630932119140,22065,195759,145468
1630932119150,22069,195752,145474
1630932119160,22071,195774,145467
1630932119170,22084,195761,145463
1630932119180,22081,195803,145463
1630932119190,22095,195816,145443
1630932119200,22095,195835,145468
1630932119210,22106,195858,145495
1630932119220,22107,195864,145476
1630932119230,22106,195822,145477
1630932119240,22119,195838,145426
1630932119250,22113,195826,145426
1630932119260,22111,195848,145402
1630932119270,22114,195845,145400
1630932119280,22120,195845,145382
1630932119290,22119,195867,145374
1630932119300,22128,195868,145371
1630932119310,22127,195923,145383
1630932119320,22146,195948,145407
1630932119330,22156,196024,145437
1630932119340,22167,196083,145465
1630932119350,22182,196098,145474
1630932119360,22187,196134,145514
1630932119370,22196,196184,145519
1630932119380,22210,196219,145527
1630932119390,22226,196273,145551
1630932119400,22240,196319,145574
1630932119410,22247,196336,145588
1630932119420,22272,196380,145641
1630932119430,22266,196384,145657
1630932119440,22282,196417,145678
1630932119450,22279,196423,145684
1630932119460,22279,196395,145661
1630932119470,22259,196372,145645
1630932119480,22233,196330,145642
1630932119490,22219,196300,145673
1630932119500,22201,196270,145655
1630932119510,22181,196265,145673
1630932119520,22168,196272,145683
1630932119530,22153,196235,145657
1630932119540,22147,196208,145681
1630932119550,22142,196194,145679
1630932119560,22133,196169,145698
1630932119570,22146,196164,145680
1630932119580,22137,196156,145685
1630932119590,22144,196125,145668
1630932119600,22134,196098,145664
1630932119610,22141,196062,145688
1630932119620,22144,196055,145677
1630932119630,22148,196030,145692
1630932119640,22153,196008,145687
1630932119650,22150,195989,145665
1630932119660,22148,195950,145644
1630932119670,22145,195908,145618
1630932119680,22145,195871,145604
1630932119690,22141,195856,145588
1630932119700,22142,195815,145560
1630932119710,22135,195807,145524
1630932119720,22131,195794,145507
1630932119730,22122,195741,145483
1630932119740,22115,195737,145452
1630932119750,22115,195685,145417
1630932119760,22106,195668,145416
1630932119770,22096,195619,145369
1630932119780,22085,195595,145313
1630932119790,22073,195563,145280
1630932119800,22063,195528,145197
1630932119810,22051,195486,145189
1630932119820,22045,195482,145161
1630932119830,22042,195498,145136
1630932119840,22036,195431,145107
1630932119850,22035,195453,145109
1630932119860,22021,195395,145042
1630932119870,22013,195365,144979
1630932119880,22015,195387,144998
1630932119890,22035,195411,145052
1630932119900,22048,195454,145125
1630932119910,22056,195492,145143
1630932119920,22060,195482,145147
1630932119930,22056,195484,145118
1630932119940,22047,195468,145089
1630932119950,22042,195495,145051
1630932119960,22040,195477,145034
1630932119970,22042,195464,145036
1630932119980,22051,195485,145033
1630932119990,22042,195498,144990
1630932120000,22043,195464,144964
1630932120010,22040,195498,144962
1630932120020,22039,195473,144950
1630932120030,22041,195457,144921
1630932120040,22039,195479,144900
1630932120050,22035,195448,144899
1630932120060,22034,195453,144861
1630932120070,22036,195474,144859
1630932120080,22035,195448,144816
1630932120090,22041,195495,144834
1630932120100,22038,195476,144826
1630932120110,22048,195453,144830
1630932120120,22045,195488,144829
1630932120130,22051,195480,144829
1630932120140,22062,195490,144819
1630932120150,22062,195516,144844
1630932120160,22065,195531,144842
1630932120170,22081,195539,144879
1630932120180,22076,195561,144876
1630932120190,22088,195576,144904
1630932120200,22084,195591,144925
1630932120210,22109,195622,144919
1630932120220,22110,195665,144951
1630932120230,22107,195683,144936
1630932120240,22106,195673,144960
1630932120250,22121,195705,144978
1630932120260,22118,195684,144964
1630932120270,22132,195709,144962
1630932120280,22130,195731,144947
1630932120290,22136,195736,144932
1630932120300,22135,195733,144915
1630932120310,22130,195708,144895
1630932120320,22120,195684,144854
1630932120330,22104,195618,144801
1630932120340,22085,195602,144779
1630932120350,22064,195569,144763
1630932120360,22045,195521,144756
1630932120370,22024,195491,144757
1630932120380,21996,195462,144737
1630932120390,21981,195424,144736
1630932120400,21976,195438,144738
1630932120410,21948,195450,144740
1630932120420,21944,195449,144740
1630932120430,21938,195398,144742
1630932120440,21926,195415,144710
1630932120450,21924,195396,144736
1630932120460,21920,195378,144738
1630932120470,21915,195357,144723
1630932120480,21911,195390,144716
1630932120490,21914,195413,144743
1630932120500,21920,195398,144788
1630932120510,21922,195403,144805
1630932120520,21917,195418,144803
1630932120530,21921,195373,144790
1630932120540,21924,195426,144814
1630932120550,21921,195400,144799
1630932120560,21928,195416,144811
1630932120570,21925,195433,144815
1630932120580,21927,195420,144797
1630932120590,21925,195421,144769
1630932120600,21923,195420,144763
1630932120610,21916,195391,144756
1630932120620,21918,195402,144736
1630932120630,21919,195386,144740
1630932120640,21913,195389,144720
1630932120650,21917,195364,144728
1630932120660,21913,195369,144707
1630932120670,21910,195355,144669
1630932120680,21910,195363,144695
1630932120690,21904,195364,144703
1630932120700,21910,195382,144688
1630932120710,21913,195374,144698
1630932120720,21913,195385,144718
1630932120730,21911,195379,144710
1630932120740,21918,195371,144701
1630932120750,21922,195356,144729
1630932120760,21932,195437,144748
1630932120770,21943,195459,144797
1630932120780,21953,195496,144834
1630932120790,21963,195504,144856
1630932120800,21967,195555,144867
1630932120810,21972,195534,144883
1630932120820,21979,195571,144908
1630932120830,21986,195566,144897
1630932120840,21985,195597,144925
1630932120850,21986,195621,144935
1630932120860,21997,195639,144927
1630932120870,22004,195655,144924
1630932120880,22008,195677,144951
1630932120890,22020,195686,144946
1630932120900,22017,195695,144951
1630932120910,22030,195735,144986
1630932120920,22033,195741,144987
1630932120930,22035,195750,144969
1630932120940,22034,195760,144975
1630932120950,22046,195759,144977
1630932120960,22051,195756,144993
1630932120970,22056,195799,144994
1630932120980,22065,195810,145002
1630932120990,22074,195835,145015
1630932121000,22073,195783,145028
1630932121010,22079,195814,145028
1630932121020,22081,195827,145025
1630932121030,22096,195832,145034
1630932121040,22104,195874,145036
1630932121050,22105,195888,145051
1630932121060,22104,195892,145055
1630932121070,22107,195918,145059
1630932121080,22108,195922,145067
1630932121090,22120,195939,145065
1630932121100,22120,195923,145049
1630932121110,22117,195925,145033
1630932121120,22105,195894,145005
1630932121130,22089,195845,144994
1630932121140,22069,195814,144977
1630932121150,22056,195757,144971
1630932121160,22046,195771,144991
1630932121170,22026,195726,144975
1630932121180,22010,195712,144987
1630932121190,21998,195700,144980
1630932121200,21995,195701,144979
1630932121210,21970,195648,144978
1630932121220,21981,195676,144992
1630932121230,21976,195596,144985
1630932121240,21963,195632,144981
1630932121250,21957,195614,145005
1630932121260,21956,195623,144998
1630932121270,21956,195613,144998
1630932121280,21955,195608,145028
1630932121290,21954,195611,145031
1630932121300,21955,195658,145053
1630932121310,21959,195651,145079
1630932121320,21963,195671,145101
1630932121330,21964,195657,145116
1630932121340,21967,195720,145148
1630932121350,21978,195717,145149
1630932121360,21992,195742,145174
1630932121370,21997,195760,145155
1630932121380,21990,195772,145230
1630932121390,22009,195810,145246
1630932121400,22008,195842,145291
1630932121410,22010,195854,145303
1630932121420,22010,195875,145317
1630932121430,22013,195876,145323
1630932121440,22012,195927,145300
1630932121450,22012,195916,145295
1630932121460,22005,195897,145276
1630932121470,22003,195916,145263
1630932121480,22002,195913,145253
1630932121490,22000,195944,145258
1630932121500,22004,195940,145249
1630932121510,22003,195959,145255
1630932121520,22004,195987,145278
1630932121530,22015,196030,145298
1630932121540,22023,196088,145307
1630932121550,22034,196132,145354
1630932121560,22039,196176,145399
1630932121570,22053,196242,145417
1630932121580,22065,196319,145469
1630932121590,22074,196401,145510
1630932121600,22091,196447,145558
1630932121610,22105,196524,145623
1630932121620,22117,196636,145688
1630932121630,22137,196681,145746
1630932121640,22158,196723,145793
1630932121650,22172,196810,145846
1630932121660,22189,196891,145872
1630932121670,22198,196931,145923
1630932121680,22219,196987,145963
1630932121690,22218,197030,145981
1630932121700,22230,197061,146009
1630932121710,22254,197123,146042
1630932121720,22256,197138,146091
1630932121730,22269,197182,146107
1630932121740,22284,197236,146128
1630932121750,22288,197254,146133
1630932121760,22304,197294,146155
1630932121770,22303,197356,146202
1630932121780,22317,197336,146219
1630932121790,22328,197380,146245
1630932121800,22338,197404,146272
1630932121810,22345,197420,146284
1630932121820,22347,197424,146272
1630932121830,22360,197422,146277
1630932121840,22351,197474,146277
1630932121850,22364,197491,146268
1630932121860,22350,197457,146272
1630932121870,22339,197462,146237
1630932121880,22330,197430,146245
1630932121890,22313,197377,146235
1630932121900,22301,197332,146259
1630932121910,22283,197340,146267
1630932121920,22264,197320,146285
1630932121930,22235,197289,146289
1630932121940,22225,197273,146281
1630932121950,22205,197275,146255
1630932121960,22183,197223,146214
1630932121970,22166,197217,146207
1630932121980,22150,197165,146180
1630932121990,22139,197155,146167
1630932122000,22134,197146,146125
1630932122010,22121,197132,146121
1630932122020,22098,197125,146129
1630932122030,22086,197121,146116
1630932122040,22082,197087,146112
1630932122050,22069,197054,146047
1630932122060,22059,197065,146026
1630932122070,22047,197005,146013
1630932122080,22037,197025,145973
1630932122090,22035,197062,146014
1630932122100,22037,197026,145992
1630932122110,22034,197060,145980
1630932122120,22029,197049,145970
1630932122130,22027,197030,145975
1630932122140,22025,197060,145947
1630932122150,22017,197061,145944
1630932122160,22023,197060,145943
1630932122170,22017,197068,145955
1630932122180,22020,197106,145941
1630932122190,22024,197087,145951
1630932122200,22016,197088,145950
1630932122210,22021,197130,145956
1630932122220,22022,197118,145968
1630932122230,22024,197145,145965
1630932122240,22025,197158,145984
1630932122250,22025,197136,145983
1630932122260,22027,197140,145970
1630932122270,22030,197157,145992
1630932122280,22036,197156,145988
1630932122290,22034,197141,145993
1630932122300,22041,197159,145987
1630932122310,22048,197206,145983
1630932122320,22037,197199,145993
1630932122330,22054,197236,145968
1630932122340,22067,197230,145990
1630932122350,22053,197224,145981
1630932122360,22052,197271,145996
1630932122370,22056,197286,145979
1630932122380,22068,197271,146000
1630932122390,22069,197292,145993
1630932122400,22071,197331,145997
1630932122410,22075,197298,146006
1630932122420,22072,197320,145994
1630932122430,22072,197352,145996
1630932122440,22085,197348,146007
1630932122450,22075,197360,146002
1630932122460,22088,197353,146028
1630932122470,22090,197378,146001
1630932122480,22097,197407,146017
1630932122490,22104,197398,146007
1630932122500,22103,197392,146009
1630932122510,22103,197466,146023
1630932122520,22113,197465,146030
1630932122530,22121,197464,146025
1630932122540,22121,197462,146045
1630932122550,22128,197492,146055
1630932122560,22131,197495,146025
1630932122570,22139,197497,146031
1630932122580,22142,197486,146041
1630932122590,22143,197497,146023
1630932122600,22149,197488,146021
1630932122610,22147,197524,146002
1630932122620,22155,197511,146019
1630932122630,22158,197519,145988
1630932122640,22167,197482,145980
1630932122650,22139,197477,145931
1630932122660,22121,197406,145898
1630932122670,22107,197355,145883
1630932122680,22081,197323,145881
1630932122690,22059,197277,145849
1630932122700,22033,197214,145851
1630932122710,22012,197195,145841
1630932122720,21994,197129,145822
1630932122730,21977,197129,145829
1630932122740,21969,197104,145816
1630932122750,21958,197093,145802
1630932122760,21947,197062,145821
1630932122770,21942,197050,145821
1630932122780,21939,197043,145816
1630932122790,21930,197042,145841
1630932122800,21930,197020,145817
1630932122810,21918,196994,145826
1630932122820,21914,196996,145810
1630932122830,21921,196983,145801
1630932122840,21923,196967,145812
1630932122850,21904,196942,145800
1630932122860,21910,196958,145806
1630932122870,21904,196977,145820
1630932122880,21903,196940,145816
1630932122890,21905,196940,145822
1630932122900,21913,196921,145823
1630932122910,21910,196960,145828
1630932122920,21915,196940,145822
1630932122930,21915,196918,145819
1630932122940,21917,196943,145818
1630932122950,21915,196951,145830
1630932122960,21923,196922,145840
1630932122970,21923,196943,145841
1630932122980,21924,196897,145847
1630932122990,21914,196911,145833
1630932123000,21932,196906,145820
1630932123010,21927,196920,145824
1630932123020,21927,196915,145835
1630932123030,21933,196915,145834
1630932123040,21938,196936,145841
1630932123050,21940,196931,145841
1630932123060,21947,196943,145839
1630932123070,21949,196917,145864
1630932123080,21952,196963,145871
1630932123090,21960,196983,145880
1630932123100,21965,196979,145889
1630932123110,21969,196988,145901
1630932123120,21973,196972,145901
1630932123130,21979,197020,145899
1630932123140,21982,197012,145915
1630932123150,21981,197020,145894
1630932123160,21993,197024,145915
1630932123170,22007,197019,145888
1630932123180,22003,197035,145915
1630932123190,22006,197036,145919
1630932123200,22017,197051,145911
1630932123210,22022,197071,145920
1630932123220,22025,197072,145924
1630932123230,22033,197064,145919
1630932123240,22038,197083,145943
1630932123250,22048,197071,145944
1630932123260,22052,197076,145942
1630932123270,22059,197096,145966
1630932123280,22061,197134,145961
1630932123290,22075,197127,145963
1630932123300,22080,197144,145972
1630932123310,22088,197148,145974
1630932123320,22093,197159,146014
1630932123330,22106,197185,146000
1630932123340,22105,197196,145991
1630932123350,22108,197198,146003
1630932123360,22119,197212,146000
1630932123370,22122,197234,146002
1630932123380,22127,197251,145991
1630932123390,22135,197257,145987
1630932123400,22140,197247,145983
1630932123410,22134,197224,145960
1630932123420,22125,197189,145934
1630932123430,22111,197172,145924
1630932123440,22097,197120,145911
1630932123450,22066,197082,145899
1630932123460,22067,197079,145899
1630932123470,22036,197005,145880
1630932123480,22022,196985,145850
1630932123490,22004,196957,145875
1630932123500,21999,196930,145851
1630932123510,21990,196914,145853
1630932123520,21985,196879,145852
1630932123530,21977,196861,145837
1630932123540,21978,196871,145826
1630932123550,21973,196852,145852
1630932123560,21976,196865,145851
1630932123570,21976,196845,145835
1630932123580,21971,196835,145835
1630932123590,21971,196828,145849
1630932123600,21971,196774,145842
1630932123610,21964,196796,145837
1630932123620,21963,196779,145814
1630932123630,21969,196802,145834
1630932123640,21980,196774,145830
1630932123650,21981,196794,145806
1630932123660,21982,196779,145829
1630932123670,21988,196779,145801
1630932123680,21986,196767,145807
1630932123690,21987,196781,145811
1630932123700,21986,196790,145789
1630932123710,21990,196775,145803
1630932123720,21993,196772,145801
1630932123730,21995,196789,145807
1630932123740,21991,196773,145819
1630932123750,21996,196777,145807
1630932123760,22000,196766,145794
1630932123770,22004,196786,145808
1630932123780,21999,196792,145798
1630932123790,22011,196827,145793
1630932123800,22019,196814,145797
1630932123810,22010,196814,145819
1630932123820,22015,196800,145840
1630932123830,22028,196858,145835
1630932123840,22042,196854,145856
1630932123850,22041,196850,145856
1630932123860,22051,196858,145856
1630932123870,22057,196868,145879
1630932123880,22057,196930,145866
1630932123890,22057,196894,145862
1630932123900,22070,196888,145875
1630932123910,22073,196902,145872
1630932123920,22078,196900,145878
1630932123930,22084,196925,145883
1630932123940,22087,196907,145861
1630932123950,22098,196942,145890
1630932123960,22099,196929,145867
1630932123970,22095,196959,145859
1630932123980,22108,196952,145868
1630932123990,22111,196951,145868
1630932124000,22118,196959,145851
1630932124010,22124,196958,145867
1630932124020,22132,196964,145864
1630932124030,22132,196983,145872
1630932124040,22140,196996,145850
1630932124050,22144,197032,145870
1630932124060,22150,197018,145867
1630932124070,22158,197043,145880
1630932124080,22167,197011,145873
1630932124090,22169,197007,145880
1630932124100,22164,197066,145872
1630932124110,22186,197050,145878
1630932124120,22193,197034,145880
1630932124130,22193,197065,145874
1630932124140,22200,197096,145888
1630932124150,22207,197090,145880
1630932124160,22208,197071,145884
1630932124170,22212,197070,145871
1630932124180,22215,197042,145835
1630932124190,22203,196993,145797
1630932124200,22187,196937,145768
1630932124210,22169,196889,145730
1630932124220,22150,196861,145728
1630932124230,22134,196806,145728
1630932124240,22112,196794,145702
1630932124250,22091,196727,145705
1630932124260,22086,196696,145682
1630932124270,22055,196658,145664
1630932124280,22053,196640,145682
1630932124290,22062,196653,145684
1630932124300,22049,196626,145674
1630932124310,22043,196604,145665
1630932124320,22042,196608,145673
1630932124330,22040,196605,145673
1630932124340,22034,196592,145666
1630932124350,22027,196599,145669
1630932124360,22031,196563,145672
1630932124370,22029,196558,145649
1630932124380,22030,196525,145649
1630932124390,22022,196536,145657
1630932124400,22032,196532,145648
1630932124410,22037,196514,145663
1630932124420,22050,196493,145662
1630932124430,22057,196494,145644
1630932124440,22061,196475,145642
1630932124450,22064,196438,145631
1630932124460,22068,196446,145612
1630932124470,22063,196403,145597
1630932124480,22073,196340,145611
1630932124490,22078,196383,145588
1630932124500,22083,196364,145594
1630932124510,22087,196364,145611
1630932124520,22093,196384,145601
1630932124530,22093,196373,145619
1630932124540,22094,196387,145600
1630932124550,22100,196408,145617
1630932124560,22106,196398,145619
1630932124570,22110,196444,145644
1630932124580,22119,196467,145649
1630932124590,22125,196468,145659
1630932124600,22122,196485,145682
1630932124610,22134,196501,145684
1630932124620,22138,196514,145704
1630932124630,22143,196557,145712
1630932124640,22154,196566,145721
1630932124650,22161,196581,145735
1630932124660,22172,196593,145727
1630932124670,22181,196610,145752
1630932124680,22180,196644,145760
1630932124690,22188,196649,145767
1630932124700,22191,196662,145772
1630932124710,22196,196701,145771
1630932124720,22203,196722,145769
1630932124730,22214,196733,145781
1630932124740,22218,196781,145794
1630932124750,22234,196764,145807
1630932124760,22231,196783,145823
1630932124770,22241,196815,145807
1630932124780,22246,196831,145838
1630932124790,22257,196865,145822
1630932124800,22254,196870,145835
1630932124810,22261,196914,145862
1630932124820,22274,196921,145849
1630932124830,22278,196933,145868
1630932124840,22288,196945,145884
1630932124850,22304,196957,145898
1630932124860,22310,196963,145895
1630932124870,22313,196987,145920
1630932124880,22326,197000,145902
1630932124890,22337,197028,145920
1630932124900,22338,197035,145919
1630932124910,22350,197044,145888
1630932124920,22344,197017,145876
1630932124930,22337,196978,145842
1630932124940,22321,196938,145804
1630932124950,22304,196867,145769
1630932124960,22288,196860,145780
1630932124970,22262,196809,145774
1630932124980,22246,196771,145763
1630932124990,22230,196733,145751
1630932125000,22213,196723,145747
1630932125010,22203,196717,145749
1630932125020,22199,196684,145749
1630932125030,22193,196687,145746
1630932125040,22189,196682,145760
1630932125050,22182,196637,145751
1630932125060,22185,196677,145755
1630932125070,22176,196627,145769
1630932125080,22190,196654,145752
1630932125090,22177,196669,145766
1630932125100,22185,196650,145746
1630932125110,22189,196616,145778
1630932125120,22181,196655,145775
1630932125130,22185,196620,145757
1630932125140,22188,196627,145775
1630932125150,22188,196636,145771
1630932125160,22198,196614,145794
1630932125170,22206,196636,145806
1630932125180,22210,196645,145819
1630932125190,22214,196647,145789
1630932125200,22208,196624,145800
1630932125210,22210,196641,145803
1630932125220,22214,196590,145814
1630932125230,22223,196618,145821
1630932125240,22213,196618,145800
1630932125250,22213,196624,145792
1630932125260,22217,196587,145786
1630932125270,22206,196577,145791
1630932125280,22212,196627,145800
1630932125290,22215,196587,145807
1630932125300,22217,196587,145794
1630932125310,22226,196597,145801
1630932125320,22230,196600,145793
1630932125330,22234,196600,145802
1630932125340,22238,196602,145825
1630932125350,22234,196597,145815
1630932125360,22241,196595,145820
1630932125370,22245,196608,145836
1630932125380,22253,196609,145817
1630932125390,22254,196608,145822
1630932125400,22263,196592,145838
1630932125410,22267,196624,145828
1630932125420,22274,196621,145835
1630932125430,22281,196636,145844
1630932125440,22279,196638,145856
1630932125450,22283,196646,145872
1630932125460,22296,196678,145854
1630932125470,22295,196681,145857
1630932125480,22302,196697,145875
1630932125490,22314,196673,145890
1630932125500,22314,196720,145890
1630932125510,22328,196711,145904
1630932125520,22330,196723,145912
1630932125530,22336,196723,145916
1630932125540,22340,196751,145929
1630932125550,22339,196733,145928
1630932125560,22354,196753,145912
1630932125570,22365,196755,145938
1630932125580,22363,196788,145959
1630932125590,22366,196813,145953
1630932125600,22377,196812,145954
1630932125610,22378,196799,145957
1630932125620,22384,196794,145970
1630932125630,22390,196845,145970
1630932125640,22392,196804,145964
1630932125650,22383,196791,145942
1630932125660,22369,196772,145916
1630932125670,22356,196735,145893
1630932125680,22340,196677,145899
1630932125690,22311,196643,145892
1630932125700,22293,196607,145888
1630932125710,22277,196563,145882
1630932125720,22261,196542,145880
1630932125730,22249,196512,145915
1630932125740,22228,196502,145906
1630932125750,22231,196490,145904
1630932125760,22220,196500,145892
1630932125770,22217,196489,145907
1630932125780,22207,196462,145908
1630932125790,22209,196431,145896
1630932125800,22202,196456,145904
1630932125810,22197,196449,145898
1630932125820,22195,196453,145882
1630932125830,22189,196458,145908
1630932125840,22189,196447,145918
1630932125850,22185,196443,145911
1630932125860,22185,196418,145923
1630932125870,22183,196442,145918
1630932125880,22180,196403,145932
1630932125890,22197,196401,145913
1630932125900,22193,196418,145924
1630932125910,22188,196405,145925
1630932125920,22190,196412,145934
1630932125930,22193,196412,145926
1630932125940,22192,196416,145920
1630932125950,22198,196447,145919
1630932125960,22191,196404,145925
1630932125970,22195,196415,145902
1630932125980,22197,196354,145902
1630932125990,22194,196362,145891
1630932126000,22189,196384,145890
1630932126010,22187,196374,145894
1630932126020,22187,196371,145875
1630932126030,22186,196330,145849
1630932126040,22171,196367,145857
1630932126050,22189,196352,145821
1630932126060,22182,196296,145799
1630932126070,22188,196366,145822
1630932126080,22193,196329,145808
1630932126090,22189,196337,145810
1630932126100,22198,196313,145789
1630932126110,22197,196320,145800
1630932126120,22196,196317,145786
1630932126130,22197,196299,145769
1630932126140,22190,196293,145756
1630932126150,22198,196268,145764
1630932126160,22199,196261,145727
1630932126170,22202,196235,145720
1630932126180,22208,196256,145738
1630932126190,22214,196269,145729
1630932126200,22221,196275,145723
1630932126210,22225,196256,145741
1630932126220,22229,196291,145739
1630932126230,22229,196299,145744
1630932126240,22241,196310,145731
1630932126250,22239,196306,145728
1630932126260,22240,196304,145745
1630932126270,22242,196313,145731
1630932126280,22246,196339,145746
1630932126290,22255,196344,145757
1630932126300,22259,196338,145759
1630932126310,22262,196356,145751
1630932126320,22266,196384,145781
1630932126330,22271,196377,145758
1630932126340,22273,196400,145755
1630932126350,22272,196381,145745
1630932126360,22276,196408,145767
1630932126370,22279,196414,145766
1630932126380,22292,196443,145765
1630932126390,22292,196425,145763
1630932126400,22283,196444,145758
1630932126410,22288,196422,145744
1630932126420,22283,196430,145723
1630932126430,22279,196399,145679
1630932126440,22252,196339,145631
1630932126450,22233,196294,145605
1630932126460,22208,196279,145582
1630932126470,22179,196238,145570
1630932126480,22155,196199,145569
1630932126490,22135,196137,145567
1630932126500,22117,196126,145524
1630932126510,22095,196146,145534
1630932126520,22091,196089,145535
1630932126530,22070,196085,145527
1630932126540,22069,196068,145539
1630932126550,22048,196045,145519
1630932126560,22058,196057,145513
1630932126570,22051,196054,145503
1630932126580,22048,196038,145502
1630932126590,22040,196040,145521
1630932126600,22044,196030,145495
1630932126610,22038,196009,145485
1630932126620,22039,196011,145486
1630932126630,22039,195966,145494
1630932126640,22038,195982,145488
1630932126650,22041,196003,145502
1630932126660,22041,195992,145495
1630932126670,22045,195993,145493
1630932126680,22050,195978,145508
1630932126690,22051,195964,145509
1630932126700,22056,195973,145499
1630932126710,22064,195968,145545
1630932126720,22060,195993,145524
1630932126730,22066,196012,145535
1630932126740,22064,196015,145554
1630932126750,22072,195997,145543
1630932126760,22078,195994,145552
1630932126770,22075,196011,145579
1630932126780,22079,196013,145575
1630932126790,22081,195992,145581
1630932126800,22080,196014,145570
1630932126810,22084,196006,145583
1630932126820,22089,196027,145568
1630932126830,22088,196017,145601
1630932126840,22098,196043,145600
1630932126850,22100,196043,145594
1630932126860,22107,196032,145601
1630932126870,22103,196037,145607
1630932126880,22119,196047,145603
1630932126890,22125,196058,145626
1630932126900,22120,196086,145635
1630932126910,22134,196092,145657
1630932126920,22139,196097,145641
1630932126930,22147,196090,145642
1630932126940,22148,196119,145665
1630932126950,22162,196143,145687
1630932126960,22156,196154,145691
1630932126970,22166,196150,145674
1630932126980,22172,196170,145695
1630932126990,22169,196148,145695
1630932127000,22180,196134,145717
1630932127010,22182,196200,145710
1630932127020,22184,196235,145714
1630932127030,22191,196210,145731
1630932127040,22202,196235,145725
1630932127050,22205,196215,145721
1630932127060,22215,196222,145738
1630932127070,22214,196265,145733
1630932127080,22219,196265,145739
1630932127090,22222,196277,145737
1630932127100,22227,196278,145742
1630932127110,22229,196288,145747
1630932127120,22238,196311,145746
1630932127130,22238,196308,145734
1630932127140,22245,196304,145747
1630932127150,22250,196312,145764
1630932127160,22257,196319,145757
1630932127170,22262,196339,145767
1630932127180,22263,196356,145755
1630932127190,22273,196368,145761
1630932127200,22270,196351,145724
1630932127210,22263,196367,145723
1630932127220,22256,196297,145708
1630932127230,22235,196261,145668
1630932127240,22232,196214,145670
1630932127250,22212,196180,145631
1630932127260,22196,196194,145647
1630932127270,22167,196126,145649
1630932127280,22155,196106,145646
1630932127290,22140,196067,145629
1630932127300,22128,196070,145615
1630932127310,22118,196027,145608
1630932127320,22110,196033,145632
1630932127330,22102,196023,145606
1630932127340,22098,196011,145607
1630932127350,22085,195962,145616
1630932127360,22096,195989,145618
1630932127370,22100,195990,145619
1630932127380,22089,195969,145603
1630932127390,22081,196015,145596
1630932127400,22087,195952,145618
1630932127410,22085,195978,145620
1630932127420,22083,195957,145596
1630932127430,22090,195946,145599
1630932127440,22093,195985,145602
1630932127450,22089,195989,145601
1630932127460,22098,195950,145595
1630932127470,22097,195924,145590
1630932127480,22094,195934,145582
1630932127490,22097,195964,145583
1630932127500,22096,195956,145584
1630932127510,22090,195948,145608
1630932127520,22093,195954,145605
1630932127530,22101,195906,145584
1630932127540,22105,195918,145585
1630932127550,22092,195930,145572
1630932127560,22099,195928,145581
1630932127570,22090,195931,145586
1630932127580,22095,195919,145594
1630932127590,22104,195940,145575
1630932127600,22100,195939,145591
1630932127610,22109,195965,145582
1630932127620,22112,195929,145600
1630932127630,22119,195925,145597
1630932127640,22122,195931,145612
1630932127650,22121,195955,145608
1630932127660,22128,195963,145587
1630932127670,22139,195944,145587
1630932127680,22145,195977,145608
1630932127690,22143,195943,145607
1630932127700,22145,195973,145603
1630932127710,22146,195968,145592
1630932127720,22149,195968,145604
1630932127730,22160,195990,145596
1630932127740,22160,195987,145612
1630932127750,22170,195999,145605
1630932127760,22168,195992,145597
1630932127770,22175,196008,145601
1630932127780,22177,196037,145612
1630932127790,22184,196002,145601
1630932127800,22191,196023,145590
1630932127810,22193,196041,145615
1630932127820,22193,196011,145615
1630932127830,22204,196045,145601
1630932127840,22201,196029,145594
1630932127850,22207,196028,145606
1630932127860,22208,196060,145612
1630932127870,22214,196065,145612
1630932127880,22226,196035,145623
1630932127890,22225,196078,145625
1630932127900,22227,196064,145616
1630932127910,22233,196087,145607
1630932127920,22238,196065,145596
1630932127930,22241,196090,145606
1630932127940,22248,196094,145626
1630932127950,22249,196081,145597
1630932127960,22258,196102,145596
1630932127970,22262,196126,145617
1630932127980,22260,196105,145595
1630932127990,22269,196116,145604
1630932128000,22275,196115,145615
1630932128010,22267,196100,145578
1630932128020,22263,196087,145535
1630932128030,22248,196026,145523
1630932128040,22244,195972,145498
1630932128050,22233,195943,145502
1630932128060,22208,195901,145505
1630932128070,22181,195864,145498
1630932128080,22169,195798,145483
1630932128090,22154,195794,145475
1630932128100,22146,195765,145457
1630932128110,22134,195742,145465
1630932128120,22129,195717,145469
1630932128130,22127,195735,145478
1630932128140,22120,195726,145500
1630932128150,22116,195702,145484
1630932128160,22129,195712,145496
1630932128170,22117,195699,145450
1630932128180,22116,195689,145474
1630932128190,22110,195676,145462
1630932128200,22109,195657,145454
1630932128210,22102,195671,145451
1630932128220,22106,195693,145464
1630932128230,22113,195668,145483
1630932128240,22110,195654,145475
1630932128250,22111,195676,145458
1630932128260,22110,195669,145458
1630932128270,22109,195664,145461
1630932128280,22109,195666,145461
1630932128290,22117,195675,145463
1630932128300,22111,195678,145455
1630932128310,22109,195654,145436
1630932128320,22118,195667,145452
1630932128330,22116,195648,145430
1630932128340,22108,195637,145459
1630932128350,22110,195626,145440
1630932128360,22118,195621,145439
1630932128370,22113,195645,145439
1630932128380,22111,195633,145446
1630932128390,22115,195629,145438
1630932128400,22116,195655,145446
1630932128410,22115,195639,145434
1630932128420,22123,195652,145465
1630932128430,22126,195635,145455
1630932128440,22129,195665,145436
1630932128450,22128,195642,145437
1630932128460,22137,195653,145428
1630932128470,22138,195673,145429
1630932128480,22138,195645,145457
1630932128490,22138,195669,145463
1630932128500,22150,195678,145447
1630932128510,22148,195652,145435
1630932128520,22144,195671,145435
1630932128530,22153,195676,145434
1630932128540,22158,195669,145439
1630932128550,22159,195667,145436
1630932128560,22162,195668,145441
1630932128570,22174,195726,145435
1630932128580,22172,195702,145458
1630932128590,22178,195715,145442
1630932128600,22180,195750,145463
1630932128610,22192,195704,145472
1630932128620,22189,195750,145449
1630932128630,22191,195727,145469
1630932128640,22194,195744,145462
1630932128650,22194,195766,145463
1630932128660,22200,195761,145449
1630932128670,22207,195768,145475
1630932128680,22215,195779,145466
1630932128690,22218,195772,145464
1630932128700,22223,195788,145463
1630932128710,22226,195750,145464
1630932128720,22233,195806,145475
1630932128730,22236,195806,145482
1630932128740,22242,195799,145477
1630932128750,22246,195825,145459
1630932128760,22246,195844,145476
1630932128770,22254,195826,145475
1630932128780,22255,195809,145460
1630932128790,22247,195806,145450
1630932128800,22237,195771,145411
1630932128810,22216,195740,145399
1630932128820,22212,195666,145367
1630932128830,22184,195694,145401
1630932128840,22158,195648,145394
1630932128850,22155,195621,145372
1630932128860,22130,195604,145378
1630932128870,22123,195566,145377
1630932128880,22118,195576,145369
1630932128890,22112,195543,145385
1630932128900,22107,195534,145374
1630932128910,22107,195518,145385
1630932128920,22104,195538,145381
1630932128930,22102,195507,145387
1630932128940,22100,195532,145402
1630932128950,22098,195498,145406
1630932128960,22100,195489,145402
1630932128970,22102,195500,145394
1630932128980,22109,195524,145391
1630932128990,22107,195541,145396
1630932129000,22108,195521,145407
1630932129010,22099,195517,145430
1630932129020,22110,195534,145425
1630932129030,22114,195545,145423
1630932129040,22112,195559,145418
1630932129050,22113,195504,145413
1630932129060,22118,195526,145392
1630932129070,22110,195509,145407
1630932129080,22113,195510,145409
1630932129090,22108,195502,145414
1630932129100,22111,195528,145411
1630932129110,22109,195517,145406
1630932129120,22107,195538,145418
1630932129130,22109,195523,145414
1630932129140,22116,195511,145401
1630932129150,22119,195539,145402
1630932129160,22117,195542,145403
1630932129170,22124,195523,145409
1630932129180,22121,195527,145411
1630932129190,22127,195557,145419
1630932129200,22130,195529,145426
1630932129210,22136,195603,145417
1630932129220,22137,195585,145436
1630932129230,22142,195588,145429
1630932129240,22143,195589,145440
1630932129250,22154,195610,145439
1630932129260,22156,195602,145456
1630932129270,22159,195609,145461
1630932129280,22162,195620,145467
1630932129290,22168,195636,145471
1630932129300,22170,195605,145439
1630932129310,22170,195648,145464
1630932129320,22175,195678,145466
1630932129330,22182,195645,145471
1630932129340,22188,195691,145487
1630932129350,22189,195679,145471
1630932129360,22193,195715,145491
1630932129370,22195,195716,145474
1630932129380,22198,195708,145462
1630932129390,22208,195717,145492
1630932129400,22217,195744,145484
1630932129410,22225,195764,145503
1630932129420,22233,195762,145515
1630932129430,22251,195832,145574
1630932129440,22268,195895,145592
1630932129450,22288,195994,145646
1630932129460,22307,196098,145674
1630932129470,22316,196180,145753
1630932129480,22350,196255,145793
1630932129490,22357,196366,145851
1630932129500,22378,196442,145902
1630932129510,22401,196546,145944
1630932129520,22416,196602,145976
1630932129530,22428,196665,146025
1630932129540,22434,196757,146027
1630932129550,22438,196760,146018
1630932129560,22428,196773,146022
1630932129570,22416,196781,146024
1630932129580,22399,196772,146016
1630932129590,22380,196768,146040
1630932129600,22364,196767,146062
1630932129610,22352,196774,146070
1630932129620,22345,196792,146071
1630932129630,22326,196805,146089
1630932129640,22316,196792,146090
1630932129650,22317,196798,146094
1630932129660,22308,196802,146112
1630932129670,22307,196811,146111
1630932129680,22290,196849,146139
1630932129690,22295,196857,146143
1630932129700,22297,196889,146152
1630932129710,22293,196835,146166
1630932129720,22294,196862,146147
1630932129730,22293,196880,146175
1630932129740,22292,196868,146176
1630932129750,22291,196861,146187
1630932129760,22292,196899,146191
1630932129770,22298,196902,146211
1630932129780,22303,196915,146215
1630932129790,22293,196935,146241
1630932129800,22308,196944,146250
1630932129810,22309,196942,146244
1630932129820,22309,196956,146244
1630932129830,22315,196999,146250
1630932129840,22312,196977,146260
1630932129850,22315,196993,146262
1630932129860,22310,196992,146276
1630932129870,22321,196989,146274
1630932129880,22325,197024,146304
1630932129890,22316,197015,146309
1630932129900,22319,197055,146282
1630932129910,22323,197036,146294
1630932129920,22325,197036,146309
1630932129930,22328,197042,146301
1630932129940,22335,197051,146313
1630932129950,22337,197059,146318
1630932129960,22340,197085,146353
1630932129970,22346,197079,146339
1630932129980,22342,197116,146333
1630932129990,22350,197098,146324
1630932130000,22352,197083,146326
1630932130010,22350,197116,146347
1630932130020,22365,197148,146354
1630932130030,22359,197141,146376
1630932130040,22362,197166,146385
1630932130050,22372,197203,146369
1630932130060,22377,197187,146381
1630932130070,22378,197169,146376
1630932130080,22383,197207,146389
1630932130090,22386,197236,146396
1630932130100,22383,197241,146393
1630932130110,22401,197233,146388
1630932130120,22387,197270,146402
1630932130130,22400,197286,146420
1630932130140,22417,197285,146412
1630932130150,22415,197309,146409
1630932130160,22424,197311,146408
1630932130170,22424,197326,146414
1630932130180,22432,197335,146417
1630932130190,22431,197370,146420
1630932130200,22430,197360,146425
1630932130210,22439,197384,146427
1630932130220,22442,197377,146440
1630932130230,22450,197412,146420
1630932130240,22446,197364,146413
1630932130250,22445,197434,146389
1630932130260,22454,197415,146409
1630932130270,22450,197444,146389
1630932130280,22454,197478,146395
1630932130290,22454,197430,146361
1630932130300,22452,197433,146335
1630932130310,22441,197449,146298
1630932130320,22435,197412,146235
1630932130330,22418,197394,146194
1630932130340,22416,197367,146143
1630932130350,22395,197351,146056
1630932130360,22389,197311,145986
1630932130370,22363,197266,145884
1630932130380,22334,197186,145806
1630932130390,22302,197118,145701
1630932130400,22265,197027,145601
1630932130410,22227,196959,145544
1630932130420,22192,196879,145480
1630932130430,22160,196862,145430
1630932130440,22130,196802,145379
1630932130450,22092,196739,145335
1630932130460,22078,196678,145309
1630932130470,22064,196678,145276
1630932130480,22040,196671,145265
1630932130490,22042,196637,145258
1630932130500,22037,196639,145276
1630932130510,22035,196674,145253
1630932130520,22039,196653,145290
1630932130530,22035,196659,145294
1630932130540,22033,196680,145320
1630932130550,22036,196719,145337
1630932130560,22045,196692,145357
1630932130570,22054,196716,145414
1630932130580,22062,196742,145442
1630932130590,22084,196753,145517
1630932130600,22097,196826,145572
1630932130610,22108,196838,145641
1630932130620,22121,196926,145726
1630932130630,22145,196970,145822
1630932130640,22171,197041,145919
1630932130650,22200,197101,146026
1630932130660,22217,197152,146109
1630932130670,22232,197219,146186
1630932130680,22246,197235,146237
1630932130690,22258,197313,146309
1630932130700,22269,197311,146364
1630932130710,22279,197327,146407
1630932130720,22287,197398,146441
1630932130730,22291,197398,146476
1630932130740,22305,197445,146532
1630932130750,22312,197480,146553
1630932130760,22314,197484,146557
1630932130770,22317,197468,146551
1630932130780,22319,197502,146557
1630932130790,22295,197509,146552
1630932130800,22304,197530,146541
1630932130810,22310,197558,146535
1630932130820,22302,197583,146514
1630932130830,22295,197564,146496
1630932130840,22299,197562,146491
1630932130850,22302,197604,146491
1630932130860,22295,197579,146454
1630932130870,22301,197597,146456
1630932130880,22294,197596,146462
1630932130890,22304,197629,146463
1630932130900,22306,197630,146468
1630932130910,22310,197631,146452
1630932130920,22319,197634,146460
1630932130930,22321,197644,146464
1630932130940,22318,197661,146467
1630932130950,22333,197627,146449
1630932130960,22333,197642,146450
1630932130970,22337,197639,146458
1630932130980,22345,197675,146435
1630932130990,22345,197649,146447
1630932131000,22351,197656,146447
1630932131010,22358,197665,146442
1630932131020,22362,197689,146427
1630932131030,22366,197631,146424
1630932131040,22371,197662,146437
1630932131050,22374,197683,146434
1630932131060,22378,197661,146423
1630932131070,22378,197699,146422
1630932131080,22385,197675,146394
1630932131090,22395,197688,146409
1630932131100,22392,197662,146416
1630932131110,22393,197676,146405
1630932131120,22406,197665,146406
1630932131130,22410,197674,146395
1630932131140,22415,197684,146404
1630932131150,22422,197696,146405
1630932131160,22423,197682,146397
1630932131170,22433,197696,146413
1630932131180,22436,197722,146429
1630932131190,22436,197711,146410
1630932131200,22444,197746,146404
1630932131210,22445,197724,146411
1630932131220,22448,197710,146398
1630932131230,22441,197713,146369
1630932131240,22429,197663,146337
1630932131250,22419,197629,146311
1630932131260,22392,197574,146308
1630932131270,22374,197529,146294
1630932131280,22358,197477,146268
1630932131290,22327,197469,146293
1630932131300,22312,197414,146265
1630932131310,22295,197358,146261
1630932131320,22288,197380,146256
1630932131330,22279,197348,146249
1630932131340,22266,197333,146250
1630932131350,22267,197310,146247
1630932131360,22266,197308,146258
1630932131370,22264,197296,146249
1630932131380,22258,197292,146224
1630932131390,22262,197271,146237
1630932131400,22256,197245,146220
1630932131410,22249,197235,146188
1630932131420,22267,197211,146206
1630932131430,22256,197184,146217
1630932131440,22261,197199,146224
1630932131450,22266,197198,146228
1630932131460,22272,197189,146199
1630932131470,22273,197146,146206
1630932131480,22271,197171,146195
1630932131490,22271,197150,146204
1630932131500,22282,197165,146195
1630932131510,22281,197142,146202
1630932131520,22281,197148,146195
1630932131530,22286,197131,146209
1630932131540,22283,197131,146201
1630932131550,22285,197132,146196
1630932131560,22291,197131,146218
1630932131570,22290,197122,146193
1630932131580,22289,197111,146212
1630932131590,22282,197128,146195
1630932131600,22290,197142,146207
1630932131610,22295,197170,146208
1630932131620,22290,197133,146234
1630932131630,22293,197164,146252
1630932131640,22294,197211,146237
1630932131650,22290,197196,146237
1630932131660,22291,197199,146217
1630932131670,22294,197246,146235
1630932131680,22293,197241,146215
1630932131690,22287,197272,146216
1630932131700,22290,197254,146212
1630932131710,22295,197278,146203
1630932131720,22304,197263,146203
1630932131730,22296,197297,146189
1630932131740,22286,197308,146180
1630932131750,22305,197327,146199
1630932131760,22307,197272,146174
1630932131770,22301,197314,146172
1630932131780,22299,197331,146182
1630932131790,22299,197327,146171
1630932131800,22302,197323,146151
1630932131810,22307,197357,146172
1630932131820,22308,197362,146172
1630932131830,22309,197337,146145
1630932131840,22310,197347,146144
1630932131850,22315,197381,146158
1630932131860,22320,197398,146133
1630932131870,22320,197394,146143
1630932131880,22330,197396,146121
1630932131890,22333,197376,146122
1630932131900,22329,197395,146112
1630932131910,22326,197422,146114
1630932131920,22330,197420,146123
1630932131930,22335,197415,146088
1630932131940,22340,197405,146089
1630932131950,22347,197390,146084
1630932131960,22346,197408,146081
1630932131970,22349,197420,146068
1630932131980,22351,197411,146060
1630932131990,22356,197442,146074
1630932132000,22359,197425,146087
1630932132010,22364,197463,146079
1630932132020,22367,197458,146071
1630932132030,22369,197457,146053
1630932132040,22375,197481,146065
1630932132050,22383,197456,146054
1630932132060,22379,197482,146039
1630932132070,22377,197465,145984
1630932132080,22357,197391,145949
1630932132090,22333,197326,145928
1630932132100,22324,197327,145928
1630932132110,22298,197261,145909
1630932132120,22270,197197,145893
1630932132130,22253,197177,145875
1630932132140,22230,197125,145850
1630932132150,22214,197112,145853
1630932132160,22201,197137,145870
1630932132170,22191,197145,145844
1630932132180,22186,197121,145854
1630932132190,22172,197089,145826
1630932132200,22174,197094,145832
1630932132210,22174,197099,145805
1630932132220,22157,197082,145804
1630932132230,22148,197076,145791
1630932132240,22160,197075,145784
1630932132250,22151,197114,145787
1630932132260,22149,197110,145759
1630932132270,22149,197100,145764
1630932132280,22144,197104,145794
1630932132290,22139,197117,145783
1630932132300,22146,197118,145787
1630932132310,22148,197106,145759
1630932132320,22142,197110,145761
1630932132330,22138,197087,145759
1630932132340,22138,197083,145741
1630932132350,22137,197100,145738
1630932132360,22134,197070,145745
1630932132370,22133,197078,145718
1630932132380,22131,197055,145726
1630932132390,22119,197107,145746
1630932132400,22122,197081,145728
1630932132410,22128,197082,145733
1630932132420,22128,197060,145714
1630932132430,22129,197049,145723
1630932132440,22129,197050,145718
1630932132450,22143,197063,145704
1630932132460,22135,197099,145709
1630932132470,22139,197085,145727
1630932132480,22141,197107,145731
1630932132490,22150,197104,145714
1630932132500,22148,197140,145740
1630932132510,22157,197111,145741
1630932132520,22159,197103,145743
1630932132530,22153,197111,145744
1630932132540,22170,197147,145735
1630932132550,22160,197162,145746
1630932132560,22172,197151,145750
1630932132570,22169,197143,145751
1630932132580,22186,197187,145762
1630932132590,22188,197186,145778
1630932132600,22196,197193,145757
1630932132610,22198,197202,145770
1630932132620,22206,197171,145764
1630932132630,22209,197219,145780
1630932132640,22210,197206,145776
1630932132650,22215,197199,145765
1630932132660,22219,197215,145766
1630932132670,22225,197209,145785
1630932132680,22231,197232,145773
1630932132690,22235,197240,145784
1630932132700,22246,197236,145756
1630932132710,22238,197244,145778
1630932132720,22248,197264,145785
1630932132730,22253,197266,145799
1630932132740,22255,197269,145789
1630932132750,22256,197254,145784
1630932132760,22264,197286,145778
1630932132770,22266,197262,145782
1630932132780,22272,197296,145801
1630932132790,22274,197297,145809
1630932132800,22282,197282,145784
1630932132810,22290,197316,145808
1630932132820,22289,197347,145786
1630932132830,22290,197301,145790
1630932132840,22291,197309,145757
1630932132850,22277,197282,145755
1630932132860,22264,197202,145721
1630932132870,22238,197165,145712
1630932132880,22222,197118,145702
1630932132890,22212,197072,145708
1630932132900,22194,197054,145698
1630932132910,22180,197029,145694
1630932132920,22164,196977,145707
1630932132930,22155,197009,145695
1630932132940,22140,196995,145712
1630932132950,22142,196971,145696
1630932132960,22130,196915,145719
1630932132970,22131,196953,145706
1630932132980,22128,196913,145724
1630932132990,22124,196934,145718
1630932133000,22123,196920,145750
1630932133010,22127,196913,145758
1630932133020,22123,196924,145739
1630932133030,22119,196893,145745
1630932133040,22104,196909,145748
1630932133050,22123,196889,145737
1630932133060,22126,196916,145742
1630932133070,22125,196903,145747
1630932133080,22127,196912,145749
1630932133090,22130,196894,145749
1630932133100,22128,196890,145743
1630932133110,22126,196890,145730
1630932133120,22123,196859,145726
1630932133130,22117,196873,145722
1630932133140,22121,196832,145722
1630932133150,22118,196864,145719
1630932133160,22120,196855,145713
1630932133170,22117,196849,145730
1630932133180,22122,196848,145714
1630932133190,22123,196841,145722
1630932133200,22129,196837,145713
1630932133210,22120,196810,145712
1630932133220,22118,196857,145709
1630932133230,22117,196823,145695
1630932133240,22120,196825,145697
1630932133250,22120,196848,145713
1630932133260,22132,196864,145713
1630932133270,22129,196854,145708
1630932133280,22135,196858,145717
1630932133290,22137,196873,145704
1630932133300,22136,196862,145701
1630932133310,22139,196892,145720
1630932133320,22140,196906,145708
1630932133330,22144,196909,145700
1630932133340,22151,196913,145689
1630932133350,22148,196904,145723
1630932133360,22144,196902,145689
1630932133370,22157,196914,145696
1630932133380,22155,196901,145712
1630932133390,22170,196922,145699
1630932133400,22167,196980,145704
1630932133410,22173,197001,145710
1630932133420,22167,196991,145722
1630932133430,22177,196992,145726
1630932133440,22181,196994,145717
1630932133450,22184,197019,145721
1630932133460,22185,197051,145708
1630932133470,22188,197043,145726
1630932133480,22191,197057,145717
1630932133490,22194,197041,145729
1630932133500,22200,197097,145739
1630932133510,22207,197096,145737
1630932133520,22206,197088,145752
1630932133530,22221,197142,145760
1630932133540,22213,197144,145753
1630932133550,22232,197141,145753
1630932133560,22228,197167,145773
1630932133570,22234,197170,145769
1630932133580,22237,197198,145788
1630932133590,22242,197194,145806
1630932133600,22247,197215,145801
1630932133610,22247,197228,145780
1630932133620,22240,197198,145759
1630932133630,22226,197168,145743
1630932133640,22210,197121,145739
1630932133650,22187,197077,145748
1630932133660,22170,197031,145731
1630932133670,22143,197009,145757
1630932133680,22132,197013,145761
1630932133690,22102,196987,145762
1630932133700,22105,196991,145772
1630932133710,22077,196939,145780
1630932133720,22072,196973,145793
1630932133730,22073,196955,145790
1630932133740,22059,196960,145788
1630932133750,22065,196948,145804
1630932133760,22054,196966,145799
1630932133770,22045,196940,145797
1630932133780,22040,196931,145780
1630932133790,22034,196907,145782
1630932133800,22026,196910,145744
1630932133810,22020,196884,145764
1630932133820,22014,196866,145746
1630932133830,22010,196881,145746
1630932133840,22013,196840,145735
1630932133850,21999,196876,145756
1630932133860,22015,196841,145728
1630932133870,22011,196849,145742
1630932133880,21998,196837,145718
1630932133890,22001,196849,145702
1630932133900,21988,196834,145679
1630932133910,21984,196830,145648
1630932133920,21980,196812,145648
1630932133930,21983,196769,145633
1630932133940,21978,196737,145620
1630932133950,21979,196752,145602
1630932133960,21980,196732,145596
1630932133970,21979,196732,145590
1630932133980,21976,196706,145586
1630932133990,21984,196722,145604
1630932134000,21980,196724,145586
1630932134010,21986,196741,145603
1630932134020,21984,196678,145588
1630932134030,21985,196725,145600
1630932134040,21987,196691,145601
1630932134050,21997,196713,145599
1630932134060,21995,196694,145613
1630932134070,22000,196694,145615
1630932134080,22007,196735,145613
1630932134090,22016,196726,145628
1630932134100,22015,196747,145634
1630932134110,22013,196735,145622
1630932134120,22020,196753,145632
1630932134130,22025,196745,145630
1630932134140,22029,196741,145627
1630932134150,22029,196774,145627
1630932134160,22038,196774,145620
1630932134170,22033,196781,145610
1630932134180,22037,196764,145596
1630932134190,22044,196788,145600
1630932134200,22040,196778,145598
1630932134210,22043,196787,145598
1630932134220,22050,196784,145589
1630932134230,22051,196782,145591
1630932134240,22059,196788,145598
1630932134250,22066,196804,145599
1630932134260,22067,196810,145593
1630932134270,22073,196801,145610
1630932134280,22076,196827,145591
1630932134290,22075,196808,145612
1630932134300,22083,196837,145594
1630932134310,22090,196831,145609
1630932134320,22090,196896,145626
1630932134330,22093,196871,145607
1630932134340,22109,196875,145635
1630932134350,22105,196893,145623
1630932134360,22098,196893,145617
1630932134370,22103,196877,145582
1630932134380,22094,196854,145565
1630932134390,22077,196821,145511
1630932134400,22059,196784,145512
1630932134410,22034,196736,145483
1630932134420,22016,196703,145480
1630932134430,22000,196665,145488
1630932134440,21975,196631,145480
1630932134450,21971,196610,145471
1630932134460,21948,196628,145475
1630932134470,21939,196588,145466
1630932134480,21931,196572,145484
1630932134490,21927,196590,145477
1630932134500,21928,196581,145499
1630932134510,21923,196603,145483
1630932134520,21926,196564,145502
1630932134530,21919,196590,145504
1630932134540,21910,196572,145507
1630932134550,21907,196581,145519
1630932134560,21903,196596,145500
1630932134570,21906,196598,145512
1630932134580,21904,196579,145502
1630932134590,21908,196576,145511
1630932134600,21900,196572,145514
1630932134610,21907,196586,145523
1630932134620,21914,196588,145530
1630932134630,21914,196604,145503
1630932134640,21912,196592,145493
1630932134650,21914,196579,145527
1630932134660,21911,196558,145520
1630932134670,21909,196574,145510
1630932134680,21912,196616,145535
1630932134690,21909,196556,145506
1630932134700,21914,196575,145524
1630932134710,21916,196588,145514
1630932134720,21923,196595,145554
1630932134730,21925,196588,145525
1630932134740,21924,196581,145525
1630932134750,21921,196589,145537
1630932134760,21929,196611,145539
1630932134770,21935,196564,145539
1630932134780,21936,196594,145553
1630932134790,21940,196629,145556
1630932134800,21945,196619,145576
1630932134810,21952,196634,145593
1630932134820,21960,196631,145589
1630932134830,21958,196643,145591
1630932134840,21958,196645,145601
1630932134850,21979,196673,145611
1630932134860,21987,196679,145613
1630932134870,21993,196685,145629
1630932134880,21990,196715,145646
1630932134890,21996,196707,145642
1630932134900,22001,196761,145644
1630932134910,22008,196740,145689
1630932134920,22014,196754,145659
1630932134930,22016,196732,145657
1630932134940,22022,196759,145667
1630932134950,22021,196744,145675
1630932134960,22031,196794,145666
1630932134970,22037,196798,145688
1630932134980,22045,196791,145675
1630932134990,22043,196802,145698
1630932135000,22048,196803,145730
1630932135010,22069,196855,145706
1630932135020,22072,196832,145716
1630932135030,22061,196842,145713
1630932135040,22081,196852,145717
1630932135050,22085,196851,145719
1630932135060,22093,196853,145749
1630932135070,22094,196888,145746
1630932135080,22103,196890,145735
1630932135090,22101,196917,145747
1630932135100,22107,196913,145725
1630932135110,22108,196923,145722
1630932135120,22107,196917,145728
1630932135130,22101,196866,145691
1630932135140,22088,196838,145673
1630932135150,22069,196802,145638
1630932135160,22051,196736,145636
1630932135170,22016,196718,145639
1630932135180,22014,196683,145632
1630932135190,21997,196703,145632
1630932135200,21982,196650,145617
1630932135210,21965,196640,145630
1630932135220,21960,196655,145620
1630932135230,21951,196600,145601
1630932135240,21950,196608,145614
1630932135250,21951,196595,145618
1630932135260,21945,196603,145624
1630932135270,21942,196604,145609
1630932135280,21941,196590,145617
1630932135290,21936,196550,145602
1630932135300,21926,196586,145598
1630932135310,21938,196571,145611
1630932135320,21934,196527,145589
1630932135330,21932,196554,145609
1630932135340,21938,196568,145605
1630932135350,21945,196563,145641
1630932135360,21943,196563,145615
1630932135370,21941,196562,145616
1630932135380,21954,196570,145606
1630932135390,21950,196564,145598
1630932135400,21949,196525,145614
1630932135410,21950,196546,145610
1630932135420,21948,196546,145619
1630932135430,21948,196541,145586
1630932135440,21944,196520,145599
1630932135450,21947,196511,145606
1630932135460,21947,196523,145576
1630932135470,21949,196547,145593
1630932135480,21947,196544,145599
1630932135490,21951,196531,145620
1630932135500,21955,196536,145623
1630932135510,21959,196520,145599
1630932135520,21957,196565,145596
1630932135530,21964,196560,145602
1630932135540,21970,196536,145587
1630932135550,21972,196547,145618
1630932135560,21976,196550,145588
1630932135570,21974,196553,145582
1630932135580,21976,196557,145598
1630932135590,21981,196545,145577
1630932135600,21990,196535,145577
1630932135610,21988,196548,145612
1630932135620,22002,196550,145587
1630932135630,21995,196549,145583
1630932135640,21992,196587,145588
1630932135650,22004,196566,145570
1630932135660,22009,196577,145563
1630932135670,22014,196573,145582
1630932135680,22028,196570,145583
1630932135690,22021,196563,145608
1630932135700,22025,196566,145584
1630932135710,22030,196583,145591
1630932135720,22037,196575,145585
1630932135730,22042,196612,145586
1630932135740,22044,196593,145590
1630932135750,22051,196609,145616
1630932135760,22054,196607,145603
1630932135770,22058,196607,145603
1630932135780,22068,196643,145608
1630932135790,22078,196654,145600
1630932135800,22082,196638,145621
1630932135810,22086,196672,145615
1630932135820,22080,196685,145616
1630932135830,22086,196687,145596
1630932135840,22097,196661,145615
1630932135850,22100,196665,145622
1630932135860,22108,196690,145612
1630932135870,22113,196713,145612
1630932135880,22120,196717,145628
1630932135890,22115,196697,145608
1630932135900,22115,196655,145611
1630932135910,22103,196651,145566
1630932135920,22088,196605,145547
1630932135930,22072,196602,145518
1630932135940,22062,196572,145557
1630932135950,22039,196542,145541
1630932135960,22009,196526,145544
1630932135970,21998,196460,145530
1630932135980,21983,196474,145531
1630932135990,21987,196429,145522
1630932136000,21981,196437,145529
1630932136010,21977,196444,145527
1630932136020,21976,196436,145522
1630932136030,21969,196428,145548
1630932136040,21970,196397,145530
1630932136050,21966,196411,145564
1630932136060,21968,196411,145521
1630932136070,21972,196403,145537
1630932136080,21963,196382,145528
1630932136090,21967,196388,145535
1630932136100,21963,196397,145513
1630932136110,21975,196418,145532
1630932136120,21980,196430,145551
1630932136130,21975,196406,145549
1630932136140,21983,196404,145533
1630932136150,21980,196407,145519
1630932136160,21981,196424,145524
1630932136170,21980,196396,145533
1630932136180,21977,196358,145523
1630932136190,21976,196374,145496
1630932136200,21980,196357,145495
1630932136210,21985,196337,145512
1630932136220,21976,196330,145500
1630932136230,21977,196353,145500
1630932136240,21980,196335,145512
1630932136250,21984,196327,145479
1630932136260,21987,196334,145491
1630932136270,21995,196310,145487
1630932136280,21993,196349,145497
1630932136290,21989,196321,145493
1630932136300,22004,196320,145495
1630932136310,22004,196334,145512
1630932136320,22006,196394,145490
1630932136330,22008,196352,145511
1630932136340,22017,196352,145511
1630932136350,22018,196381,145522
1630932136360,22025,196381,145518
1630932136370,22027,196376,145527
1630932136380,22033,196378,145516
1630932136390,22036,196393,145528
1630932136400,22041,196380,145523
1630932136410,22041,196390,145538
1630932136420,22050,196425,145523
1630932136430,22046,196412,145522
1630932136440,22054,196430,145505
1630932136450,22061,196394,145536
1630932136460,22058,196419,145522
1630932136470,22068,196436,145519
1630932136480,22078,196449,145527
1630932136490,22080,196458,145527
1630932136500,22081,196435,145533
1630932136510,22085,196451,145517
1630932136520,22090,196469,145537
1630932136530,22095,196493,145546
1630932136540,22103,196496,145551
1630932136550,22100,196491,145535
1630932136560,22114,196469,145544
1630932136570,22111,196496,145533
1630932136580,22115,196526,145531
1630932136590,22116,196544,145547
1630932136600,22120,196546,145545
1630932136610,22124,196534,145573
1630932136620,22134,196513,145540
1630932136630,22145,196546,145573
1630932136640,22139,196556,145545
1630932136650,22147,196561,145565
1630932136660,22146,196549,145558
1630932136670,22158,196563,145554
1630932136680,22160,196589,145579
1630932136690,22166,196605,145557
1630932136700,22167,196596,145553
1630932136710,22160,196560,145510
1630932136720,22149,196545,145501
1630932136730,22131,196528,145465
1630932136740,22112,196466,145472
1630932136750,22099,196424,145491
1630932136760,22087,196405,145469
1630932136770,22056,196349,145466
1630932136780,22033,196344,145437
1630932136790,22025,196310,145424
1630932136800,22019,196304,145403
1630932136810,22007,196266,145392
1630932136820,21997,196204,145384
1630932136830,21993,196220,145368
1630932136840,21987,196196,145362
1630932136850,21984,196172,145343
1630932136860,21979,196172,145359
1630932136870,21974,196172,145354
1630932136880,21976,196158,145337
1630932136890,21970,196107,145357
1630932136900,21970,196147,145329
1630932136910,21970,196132,145343
1630932136920,21970,196151,145356
1630932136930,21980,196120,145366
1630932136940,21973,196111,145358
1630932136950,21978,196115,145357
1630932136960,21975,196153,145374
1630932136970,21980,196148,145366
1630932136980,21981,196132,145374
1630932136990,21984,196156,145363
1630932137000,21984,196144,145361
1630932137010,21988,196145,145371
1630932137020,21986,196159,145387
1630932137030,21985,196152,145401
1630932137040,21993,196167,145395
1630932137050,21988,196158,145404
1630932137060,21992,196176,145399
1630932137070,21995,196176,145409
1630932137080,22004,196176,145426
1630932137090,22001,196194,145423
1630932137100,21995,196227,145414
1630932137110,22013,196211,145433
1630932137120,22014,196205,145466
1630932137130,22014,196221,145464
1630932137140,22021,196214,145471
1630932137150,22030,196248,145462
1630932137160,22032,196237,145478
1630932137170,22033,196237,145458
1630932137180,22039,196258,145486
1630932137190,22047,196262,145493
1630932137200,22047,196281,145504
1630932137210,22051,196246,145483
1630932137220,22057,196280,145506
1630932137230,22058,196289,145533
1630932137240,22071,196294,145531
1630932137250,22073,196303,145522
1630932137260,22083,196307,145532
1630932137270,22079,196329,145544
1630932137280,22093,196353,145525
1630932137290,22091,196342,145534
1630932137300,22090,196357,145543
1630932137310,22103,196364,145551
1630932137320,22104,196380,145541
1630932137330,22111,196382,145541
1630932137340,22118,196377,145568
1630932137350,22119,196408,145568
1630932137360,22124,196411,145556
1630932137370,22129,196396,145573
1630932137380,22133,196416,145566
1630932137390,22134,196410,145570
1630932137400,22146,196436,145568
1630932137410,22146,196473,145583
1630932137420,22147,196436,145583
1630932137430,22147,196460,145595
1630932137440,22149,196449,145590
1630932137450,22160,196466,145580
1630932137460,22169,196498,145593
1630932137470,22169,196458,145574
1630932137480,22176,196496,145582
1630932137490,22177,196515,145582
1630932137500,22180,196494,145595
1630932137510,22184,196505,145598
1630932137520,22186,196538,145598
1630932137530,22198,196524,145586
1630932137540,22197,196542,145604
1630932137550,22201,196514,145584
1630932137560,22210,196505,145575
1630932137570,22196,196495,145514
1630932137580,22169,196451,145500
1630932137590,22159,196437,145504
1630932137600,22140,196393,145501
1630932137610,22114,196354,145497
1630932137620,22100,196356,145506
1630932137630,22080,196304,145505
1630932137640,22065,196285,145476
1630932137650,22050,196289,145494
1630932137660,22043,196261,145469
1630932137670,22037,196227,145489
1630932137680,22036,196251,145477
1630932137690,22032,196250,145476
1630932137700,22025,196234,145500
1630932137710,22022,196234,145491
1630932137720,22016,196223,145503
1630932137730,22015,196191,145498
1630932137740,22014,196212,145475
1630932137750,22013,196197,145453
1630932137760,22007,196194,145455
1630932137770,22005,196179,145457
1630932137780,22002,196148,145477
1630932137790,22003,196141,145478
1630932137800,22003,196164,145468
1630932137810,22002,196183,145468
1630932137820,22005,196161,145479
1630932137830,22008,196155,145475
1630932137840,22003,196144,145464
1630932137850,22007,196131,145485
1630932137860,22007,196160,145469
1630932137870,22000,196152,145471
1630932137880,22010,196127,145482
1630932137890,22001,196141,145483
1630932137900,22006,196146,145483
1630932137910,21991,196125,145491
1630932137920,22013,196118,145481
1630932137930,22003,196133,145492
1630932137940,22004,196134,145502
1630932137950,22009,196129,145472
1630932137960,22004,196140,145473
1630932137970,22009,196130,145498
1630932137980,22007,196126,145488
1630932137990,22017,196125,145472
1630932138000,22022,196153,145476
1630932138010,22018,196116,145482
1630932138020,22023,196125,145478
1630932138030,22024,196155,145500
1630932138040,22028,196154,145498
1630932138050,22038,196167,145489
1630932138060,22041,196154,145483
1630932138070,22042,196144,145505
1630932138080,22050,196176,145493
1630932138090,22052,196191,145494
1630932138100,22050,196207,145510
1630932138110,22054,196216,145524
1630932138120,22060,196176,145517
1630932138130,22068,196196,145509
1630932138140,22065,196186,145510
1630932138150,22073,196212,145520
1630932138160,22072,196236,145512
1630932138170,22080,196219,145531
1630932138180,22082,196257,145552
1630932138190,22090,196239,145526
1630932138200,22090,196246,145531
1630932138210,22100,196240,145546
1630932138220,22104,196246,145519
1630932138230,22115,196278,145531
1630932138240,22109,196284,145530
1630932138250,22107,196277,145540
1630932138260,22122,196284,145524
1630932138270,22130,196295,145528
1630932138280,22124,196324,145535
1630932138290,22131,196304,145541
1630932138300,22137,196307,145537
1630932138310,22141,196331,145560
1630932138320,22141,196293,145552
1630932138330,22141,196322,145564
1630932138340,22146,196343,145559
1630932138350,22154,196324,145559
1630932138360,22157,196325,145568
1630932138370,22164,196341,145557
1630932138380,22168,196401,145567
1630932138390,22177,196405,145542
1630932138400,22170,196395,145570
1630932138410,22171,196388,145553
1630932138420,22173,196409,145556
1630932138430,22188,196404,145564
1630932138440,22193,196421,145562
1630932138450,22195,196417,145573
1630932138460,22195,196427,145577
1630932138470,22201,196443,145566
1630932138480,22207,196441,145571
1630932138490,22214,196466,145565
1630932138500,22214,196468,145568
1630932138510,22218,196471,145564
1630932138520,22216,196457,145527
1630932138530,22204,196445,145518
1630932138540,22184,196378,145476
1630932138550,22171,196352,145477
1630932138560,22157,196310,145471
1630932138570,22131,196293,145467
1630932138580,22111,196253,145437
1630932138590,22088,196247,145438
1630932138600,22070,196232,145423
1630932138610,22062,196193,145438
1630932138620,22045,196211,145422
1630932138630,22044,196184,145425
1630932138640,22041,196145,145436
1630932138650,22032,196158,145432
1630932138660,22026,196095,145418
1630932138670,22025,196118,145429
1630932138680,22023,196112,145448
1630932138690,22015,196113,145426
1630932138700,22007,196098,145415
1630932138710,22015,196068,145421
1630932138720,22007,196089,145413
1630932138730,22008,196058,145399
1630932138740,22005,196100,145403
1630932138750,21999,196077,145417
1630932138760,21998,196066,145415
1630932138770,22005,196086,145412
1630932138780,22002,196062,145396
1630932138790,22000,196076,145409
1630932138800,21999,196031,145412
1630932138810,22001,196053,145400
1630932138820,21996,196046,145418
1630932138830,21993,196042,145399
1630932138840,21990,196058,145411
1630932138850,21994,196000,145404
1630932138860,21989,196022,145401
1630932138870,21996,196041,145423
1630932138880,22002,196023,145409
1630932138890,22001,196047,145402
1630932138900,21998,196042,145413
1630932138910,21999,196021,145428
1630932138920,21994,196055,145425
1630932138930,21993,196030,145416
1630932138940,21994,196079,145415
1630932138950,22002,196053,145438
1630932138960,22008,196085,145433
1630932138970,22006,196082,145450
1630932138980,22009,196088,145430
1630932138990,22014,196096,145452
1630932139000,22020,196073,145441
1630932139010,22021,196090,145454
1630932139020,22024,196142,145471
1630932139030,22032,196135,145471
1630932139040,22034,196141,145476
1630932139050,22027,196158,145469
1630932139060,22051,196151,145483
1630932139070,22040,196197,145498
1630932139080,22046,196177,145492
1630932139090,22048,196196,145500
1630932139100,22060,196212,145498
1630932139110,22059,196241,145530
1630932139120,22068,196259,145512
1630932139130,22071,196278,145518
1630932139140,22069,196287,145528
1630932139150,22082,196299,145541
1630932139160,22084,196359,145571
1630932139170,22090,196342,145568
1630932139180,22092,196368,145577
1630932139190,22106,196369,145571
1630932139200,22104,196417,145585
1630932139210,22118,196425,145616
1630932139220,22109,196431,145606
1630932139230,22111,196474,145631
1630932139240,22124,196489,145639
1630932139250,22123,196478,145660
1630932139260,22136,196514,145627
1630932139270,22134,196541,145646
1630932139280,22139,196539,145644
1630932139290,22141,196559,145655
1630932139300,22147,196559,145661
1630932139310,22153,196607,145658
1630932139320,22159,196660,145685
1630932139330,22165,196695,145717
1630932139340,22174,196707,145736
1630932139350,22180,196768,145739
1630932139360,22189,196788,145753
1630932139370,22200,196836,145763
1630932139380,22204,196898,145788
1630932139390,22203,196932,145823
1630932139400,22222,197014,145872
1630932139410,22233,197054,145875
1630932139420,22240,197088,145906
1630932139430,22243,197180,145932
1630932139440,22255,197211,145972
1630932139450,22259,197228,145956
1630932139460,22251,197284,145955
1630932139470,22246,197253,145938
1630932139480,22226,197252,145936
1630932139490,22210,197203,145922
1630932139500,22186,197211,145913
1630932139510,22169,197206,145893
1630932139520,22147,197177,145943
1630932139530,22134,197254,145955
1630932139540,22117,197228,145964
1630932139550,22102,197243,145957
1630932139560,22098,197240,145981
1630932139570,22093,197288,146010
1630932139580,22091,197324,146031
1630932139590,22083,197325,146062
1630932139600,22076,197355,146079
1630932139610,22076,197426,146103
1630932139620,22072,197433,146133
1630932139630,22072,197466,146125
1630932139640,22071,197481,146163
1630932139650,22066,197502,146172
1630932139660,22062,197527,146186
1630932139670,22063,197562,146214
1630932139680,22058,197582,146255
1630932139690,22062,197615,146263
1630932139700,22062,197622,146297
1630932139710,22072,197647,146307
1630932139720,22076,197662,146335
1630932139730,22082,197667,146333
1630932139740,22082,197685,146349
1630932139750,22083,197696,146385
1630932139760,22083,197743,146424
1630932139770,22094,197747,146441
1630932139780,22091,197778,146471
1630932139790,22103,197819,146496
1630932139800,22103,197828,146526
1630932139810,22109,197846,146564
1630932139820,22110,197882,146602
1630932139830,22115,197891,146605
1630932139840,22115,197916,146632
1630932139850,22110,197944,146657
1630932139860,22121,197937,146690
1630932139870,22119,197980,146686
1630932139880,22114,198002,146681
1630932139890,22118,198002,146689
1630932139900,22112,198060,146696
1630932139910,22106,198044,146700
1630932139920,22106,198067,146663
1630932139930,22104,198072,146679
1630932139940,22107,198105,146702
1630932139950,22110,198163,146713
1630932139960,22111,198168,146727
1630932139970,22116,198191,146749
1630932139980,22119,198226,146768
1630932139990,22117,198228,146750
1630932140000,22126,198209,146776
1630932140010,22122,198265,146805
1630932140020,22134,198257,146796
1630932140030,22140,198286,146804
1630932140040,22135,198317,146811
1630932140050,22136,198297,146815
1630932140060,22138,198298,146805
1630932140070,22147,198305,146821
1630932140080,22149,198348,146819
1630932140090,22149,198355,146825
1630932140100,22153,198379,146826
1630932140110,22155,198376,146841
1630932140120,22156,198395,146816
1630932140130,22160,198364,146818
1630932140140,22154,198356,146818
1630932140150,22156,198390,146815
1630932140160,22166,198384,146769
1630932140170,22153,198430,146770
1630932140180,22163,198382,146753
1630932140190,22165,198405,146761
1630932140200,22169,198415,146747
1630932140210,22167,198414,146752
1630932140220,22173,198434,146731
1630932140230,22169,198433,146731
1630932140240,22176,198423,146722
1630932140250,22175,198460,146734
1630932140260,22177,198437,146728
1630932140270,22178,198452,146729
1630932140280,22184,198448,146733
1630932140290,22185,198443,146720
1630932140300,22188,198470,146731
1630932140310,22192,198505,146720
1630932140320,22204,198518,146681
1630932140330,22193,198521,146696
1630932140340,22195,198530,146689
1630932140350,22196,198534,146678
1630932140360,22201,198512,146679
1630932140370,22197,198532,146645
1630932140380,22188,198506,146619
1630932140390,22176,198493,146581
1630932140400,22151,198461,146518
1630932140410,22126,198352,146491
1630932140420,22094,198347,146450
1630932140430,22066,198251,146420
1630932140440,22044,198214,146408
1630932140450,22034,198152,146381
1630932140460,22023,198123,146421
1630932140470,22021,198140,146449
1630932140480,22016,198128,146478
1630932140490,22013,198091,146481
1630932140500,22010,198057,146478
1630932140510,21987,198034,146439
1630932140520,21992,197976,146446
1630932140530,21976,197948,146418
1630932140540,21966,197904,146367
1630932140550,21959,197830,146327
1630932140560,21946,197811,146302
1630932140570,21936,197762,146253
1630932140580,21920,197715,146215
1630932140590,21905,197676,146163
1630932140600,21895,197623,146132
1630932140610,21889,197588,146109
1630932140620,21888,197587,146074
1630932140630,21879,197554,146050
1630932140640,21883,197518,146033
1630932140650,21885,197499,146008
1630932140660,21880,197491,145983
1630932140670,21880,197470,145957
1630932140680,21875,197425,145957
1630932140690,21872,197397,145938
1630932140700,21869,197373,145913
1630932140710,21866,197364,145887
1630932140720,21865,197352,145859
1630932140730,21866,197337,145874
1630932140740,21864,197328,145870
1630932140750,21870,197331,145884
1630932140760,21866,197316,145871
1630932140770,21868,197318,145852
1630932140780,21866,197292,145877
1630932140790,21871,197280,145844
1630932140800,21869,197277,145821
1630932140810,21864,197277,145816
1630932140820,21872,197266,145799
1630932140830,21864,197238,145802
1630932140840,21883,197253,145783
1630932140850,21881,197242,145777
1630932140860,21889,197221,145786
1630932140870,21877,197216,145757
1630932140880,21884,197238,145750
1630932140890,21883,197234,145750
1630932140900,21884,197259,145739
1630932140910,21884,197269,145755
1630932140920,21888,197276,145755
1630932140930,21893,197291,145767
1630932140940,21899,197305,145775
1630932140950,21901,197291,145763
1630932140960,21906,197308,145759
1630932140970,21917,197312,145752
1630932140980,21914,197326,145767
1630932140990,21933,197331,145775
1630932141000,21935,197318,145786
1630932141010,21945,197374,145805
1630932141020,21955,197358,145820
1630932141030,21966,197395,145841
1630932141040,21968,197375,145842
1630932141050,21982,197376,145858
1630932141060,21981,197404,145881
1630932141070,21999,197397,145904
1630932141080,22006,197437,145916
1630932141090,22014,197413,145943
1630932141100,22021,197445,145922
1630932141110,22023,197451,145950
1630932141120,22032,197478,145965
1630932141130,22042,197512,145976
1630932141140,22049,197525,145966
1630932141150,22055,197530,145995
1630932141160,22062,197564,146020
1630932141170,22063,197582,146023
1630932141180,22070,197589,146041
1630932141190,22072,197593,146034
1630932141200,22080,197616,146049
1630932141210,22086,197640,146049
1630932141220,22091,197650,146070
1630932141230,22089,197660,146043
1630932141240,22105,197681,146083
1630932141250,22114,197698,146093
1630932141260,22114,197694,146076
1630932141270,22118,197736,146079
1630932141280,22124,197712,146082
1630932141290,22127,197713,146065
1630932141300,22120,197681,146064
1630932141310,22089,197658,146026
1630932141320,22096,197621,145990
1630932141330,22072,197560,145961
1630932141340,22050,197517,145964
1630932141350,22031,197466,145976
1630932141360,22009,197457,145955
1630932141370,21996,197419,145956
1630932141380,21981,197401,145937
1630932141390,21969,197360,145930
1630932141400,21960,197336,145917
1630932141410,21948,197323,145920
1630932141420,21944,197334,145920
1630932141430,21934,197280,145917
1630932141440,21929,197290,145900
1630932141450,21921,197278,145907
1630932141460,21921,197241,145896
1630932141470,21919,197244,145913
1630932141480,21915,197232,145885
1630932141490,21908,197213,145901
1630932141500,21906,197216,145883
1630932141510,21905,197204,145886
1630932141520,21906,197186,145887
1630932141530,21908,197179,145883
1630932141540,21913,197151,145902
1630932141550,21915,197166,145869
1630932141560,21913,197187,145891
1630932141570,21913,197144,145878
1630932141580,21908,197129,145875
1630932141590,21907,197137,145889
1630932141600,21908,197107,145888
1630932141610,21911,197109,145878
1630932141620,21910,197082,145889
1630932141630,21903,197106,145867
1630932141640,21908,197081,145877
1630932141650,21910,197081,145875
1630932141660,21921,197099,145891
1630932141670,21920,197096,145875
1630932141680,21924,197092,145875
1630932141690,21920,197108,145858
1630932141700,21918,197082,145868
1630932141710,21924,197082,145865
1630932141720,21925,197062,145865
1630932141730,21933,197077,145854
1630932141740,21936,197071,145873
1630932141750,21936,197088,145850
1630932141760,21939,197083,145842
1630932141770,21946,197068,145855
1630932141780,21954,197071,145869
1630932141790,21958,197067,145860
1630932141800,21963,197088,145878
1630932141810,21976,197092,145867
1630932141820,21970,197075,145888
1630932141830,21978,197079,145897
1630932141840,21981,197099,145894
1630932141850,21983,197115,145897
1630932141860,21989,197126,145890
1630932141870,21993,197126,145895
1630932141880,21999,197147,145894
1630932141890,22002,197175,145890
1630932141900,22009,197184,145898
1630932141910,22019,197192,145910
1630932141920,22020,197172,145913
1630932141930,22023,197172,145919
1630932141940,22032,197200,145936
1630932141950,22028,197216,145914
1630932141960,22039,197231,145953
1630932141970,22034,197231,145917
1630932141980,22046,197269,145945
1630932141990,22052,197253,145932
1630932142000,22051,197250,145943
1630932142010,22060,197275,145931
1630932142020,22063,197283,145955
1630932142030,22068,197312,145965
1630932142040,22078,197309,145966
1630932142050,22072,197277,145985
1630932142060,22082,197346,145969
1630932142070,22087,197359,145970
1630932142080,22088,197357,145937
1630932142090,22089,197349,145930
1630932142100,22089,197343,145888
1630932142110,22074,197299,145851
1630932142120,22060,197251,145803
1630932142130,22047,197216,145745
1630932142140,22002,197175,145684
1630932142150,21979,197107,145664
1630932142160,21953,197013,145616
1630932142170,21919,196942,145527
1630932142180,21896,196878,145502
1630932142190,21883,196837,145474
1630932142200,21872,196742,145437
1630932142210,21862,196712,145433
1630932142220,21857,196731,145439
1630932142230,21862,196702,145473
1630932142240,21866,196735,145497
1630932142250,21876,196757,145555
1630932142260,21877,196759,145567
1630932142270,21879,196803,145565
1630932142280,21893,196803,145578
1630932142290,21881,196794,145623
1630932142300,21883,196801,145608
1630932142310,21883,196831,145617
1630932142320,21893,196850,145632
1630932142330,21893,196843,145674
1630932142340,21897,196881,145676
1630932142350,21904,196900,145686
1630932142360,21908,196914,145682
1630932142370,21909,196901,145687
1630932142380,21918,196938,145718
1630932142390,21926,196945,145713
1630932142400,21928,196941,145742
1630932142410,21930,196964,145728
1630932142420,21938,196968,145744
1630932142430,21932,196968,145755
1630932142440,21944,196963,145776
1630932142450,21953,196978,145790
1630932142460,21956,196998,145790
1630932142470,21953,197030,145807
1630932142480,21957,197032,145829
1630932142490,21965,197041,145828
1630932142500,21970,197085,145841
1630932142510,21979,197068,145851
1630932142520,21979,197115,145899
1630932142530,21982,197112,145881
1630932142540,21987,197099,145889
1630932142550,21993,197103,145882
1630932142560,21997,197103,145876
1630932142570,22005,197149,145894
1630932142580,22009,197144,145904
1630932142590,22014,197147,145888
1630932142600,22019,197179,145923
1630932142610,22032,197252,145927
1630932142620,22046,197221,145947
1630932142630,22035,197234,145962
1630932142640,22047,197247,145955
1630932142650,22053,197272,145967
1630932142660,22055,197307,145974
1630932142670,22062,197329,146007
1630932142680,22072,197339,146000
1630932142690,22076,197356,145991
1630932142700,22079,197374,145998
1630932142710,22089,197358,146008
1630932142720,22093,197405,146023
1630932142730,22101,197411,146042
1630932142740,22105,197436,146034
1630932142750,22116,197447,146042
1630932142760,22121,197424,146033
1630932142770,22124,197473,146014
1630932142780,22126,197450,146030
1630932142790,22125,197480,146031
1630932142800,22140,197481,146037
1630932142810,22135,197506,146043
1630932142820,22146,197499,146048
1630932142830,22152,197514,146054
1630932142840,22160,197560,146049
1630932142850,22158,197570,146062
1630932142860,22166,197609,146064
1630932142870,22173,197574,146070
1630932142880,22181,197598,146057
1630932142890,22185,197631,146068
1630932142900,22185,197625,146077
1630932142910,22192,197662,146083
1630932142920,22201,197661,146068
1630932142930,22194,197618,146038
1630932142940,22177,197581,146024
1630932142950,22157,197575,146008
1630932142960,22146,197507,146015
1630932142970,22130,197453,146000
1630932142980,22109,197447,145971
1630932142990,22086,197413,145978
1630932143000,22069,197388,145963
1630932143010,22059,197382,145971
1630932143020,22051,197336,145967
1630932143030,22047,197329,145960
1630932143040,22035,197352,145965
1630932143050,22036,197340,145971
1630932143060,22030,197333,145969
1630932143070,22030,197350,145956
1630932143080,22016,197351,145959
1630932143090,22024,197359,145976
1630932143100,22026,197309,145964
1630932143110,22016,197265,145983
1630932143120,22016,197276,145959
1630932143130,22020,197310,145965
1630932143140,22018,197329,145966
1630932143150,22025,197323,145985
1630932143160,22021,197293,145999
1630932143170,22026,197274,145989
1630932143180,22026,197310,145997
1630932143190,22028,197276,145973
1630932143200,22027,197317,145980
1630932143210,22030,197314,145982
1630932143220,22028,197310,145977
1630932143230,22024,197316,145984
1630932143240,22021,197279,145997
1630932143250,22021,197312,145986
1630932143260,22025,197326,145988
1630932143270,22030,197275,145982
1630932143280,22019,197300,145980
1630932143290,22034,197298,145987
1630932143300,22023,197320,145981
1630932143310,22031,197277,145987
1630932143320,22034,197318,145996
1630932143330,22032,197312,145988
1630932143340,22035,197309,145972
1630932143350,22041,197330,145978
1630932143360,22039,197348,145983
1630932143370,22044,197340,145982
1630932143380,22048,197329,145991
1630932143390,22049,197345,145992
1630932143400,22044,197341,146001
1630932143410,22048,197361,145981
1630932143420,22064,197380,145987
1630932143430,22069,197343,145990
1630932143440,22063,197362,146012
1630932143450,22077,197406,145999
1630932143460,22077,197409,146005
1630932143470,22084,197432,145999
1630932143480,22085,197404,146034
1630932143490,22090,197425,146019
1630932143500,22096,197447,146020
1630932143510,22098,197486,146019
1630932143520,22106,197467,146023
1630932143530,22108,197480,146011
1630932143540,22113,197500,146021
1630932143550,22114,197465,146038
1630932143560,22118,197487,146024
1630932143570,22130,197493,146043
1630932143580,22138,197479,146010
1630932143590,22136,197491,146044
1630932143600,22151,197535,146021
1630932143610,22149,197515,146034
1630932143620,22151,197532,146043
1630932143630,22157,197541,146019
1630932143640,22156,197556,146046
1630932143650,22163,197537,146028
1630932143660,22166,197544,146045
1630932143670,22170,197541,146042
1630932143680,22176,197586,146053
1630932143690,22178,197572,146035
1630932143700,22183,197616,146047
1630932143710,22183,197627,146037
1630932143720,22193,197598,146035
1630932143730,22183,197596,146002
1630932143740,22170,197554,145961
1630932143750,22148,197526,145908
1630932143760,22143,197474,145901
1630932143770,22120,197420,145880
1630932143780,22096,197417,145876
1630932143790,22074,197385,145877
1630932143800,22059,197367,145864
1630932143810,22047,197327,145859
1630932143820,22022,197335,145856
1630932143830,22017,197303,145869
1630932143840,22007,197308,145835
1630932143850,21999,197294,145850
1630932143860,21996,197264,145837
1630932143870,21990,197280,145840
1630932143880,21993,197292,145842
1630932143890,21991,197297,145839
1630932143900,21989,197274,145832
1630932143910,21984,197269,145851
1630932143920,21979,197308,145845
1630932143930,21983,197283,145851
1630932143940,21985,197282,145860
1630932143950,21985,197301,145846
1630932143960,21985,197302,145874
1630932143970,21991,197277,145872
1630932143980,21999,197300,145885
1630932143990,21993,197303,145879
1630932144000,21993,197299,145864
1630932144010,21994,197305,145876
1630932144020,21995,197293,145864
1630932144030,21992,197272,145877
1630932144040,21992,197311,145871
1630932144050,21995,197280,145882
1630932144060,22000,197301,145881
1630932144070,21994,197313,145871
1630932144080,22005,197303,145884
1630932144090,21995,197319,145893
1630932144100,21997,197289,145885
1630932144110,21999,197337,145896
1630932144120,22001,197310,145898
1630932144130,22007,197340,145891
1630932144140,22014,197318,145911
1630932144150,22012,197348,145913
1630932144160,22018,197338,145905
1630932144170,22025,197354,145903
1630932144180,22029,197366,145924
1630932144190,22028,197372,145922
1630932144200,22040,197392,145921
1630932144210,22041,197391,145926
1630932144220,22039,197398,145927
1630932144230,22045,197432,145945
1630932144240,22063,197448,145911
1630932144250,22061,197417,145927
1630932144260,22068,197432,145917
1630932144270,22074,197451,145938
1630932144280,22069,197458,145946
1630932144290,22077,197474,145939
1630932144300,22083,197506,145945
1630932144310,22090,197501,145932
1630932144320,22095,197495,145958
1630932144330,22094,197493,145964
1630932144340,22098,197505,145965
1630932144350,22107,197552,145964
1630932144360,22116,197563,145980
1630932144370,22116,197590,145986
1630932144380,22120,197568,146003
1630932144390,22124,197583,146001
1630932144400,22135,197629,146006
1630932144410,22140,197630,146022
1630932144420,22142,197653,146018
1630932144430,22157,197676,146036
1630932144440,22169,197681,146042
1630932144450,22171,197665,146043
1630932144460,22183,197678,146061
1630932144470,22193,197718,146071
1630932144480,22198,197746,146104
1630932144490,22208,197764,146122
1630932144500,22222,197780,146141
1630932144510,22234,197811,146174
1630932144520,22243,197828,146185
1630932144530,22250,197850,146212
1630932144540,22274,197852,146240
1630932144550,22280,197875,146269
1630932144560,22271,197913,146239
1630932144570,22281,197849,146264
1630932144580,22267,197816,146225
1630932144590,22252,197762,146207
1630932144600,22232,197752,146198
1630932144610,22211,197692,146197
1630932144620,22190,197694,146227
1630932144630,22182,197616,146214
1630932144640,22162,197611,146228
1630932144650,22145,197607,146218
1630932144660,22139,197581,146223
1630932144670,22128,197553,146208
1630932144680,22119,197517,146210
1630932144690,22114,197496,146216
1630932144700,22114,197475,146203
1630932144710,22119,197499,146206
1630932144720,22104,197484,146217
1630932144730,22112,197443,146220
1630932144740,22093,197468,146226
1630932144750,22099,197462,146240
1630932144760,22089,197447,146245
1630932144770,22093,197465,146246
1630932144780,22091,197449,146226
1630932144790,22089,197430,146228
1630932144800,22087,197460,146251
1630932144810,22089,197437,146254
1630932144820,22088,197463,146255
1630932144830,22096,197449,146247
1630932144840,22093,197437,146244
1630932144850,22086,197448,146239
1630932144860,22089,197428,146255
1630932144870,22088,197425,146251
1630932144880,22091,197403,146246
1630932144890,22096,197403,146235
1630932144900,22084,197416,146240
1630932144910,22087,197402,146254
1630932144920,22087,197400,146222
1630932144930,22094,197405,146230
1630932144940,22096,197403,146227
1630932144950,22095,197381,146228
1630932144960,22092,197379,146242
1630932144970,22095,197378,146241
1630932144980,22101,197373,146243
1630932144990,22106,197372,146226
1630932145000,22107,197400,146226
1630932145010,22108,197398,146235
1630932145020,22112,197398,146237
1630932145030,22119,197425,146217
1630932145040,22124,197371,146220
1630932145050,22123,197397,146205
1630932145060,22131,197413,146224
1630932145070,22137,197423,146235
1630932145080,22135,197414,146231
1630932145090,22140,197425,146243
1630932145100,22149,197435,146241
1630932145110,22151,197428,146233
1630932145120,22155,197432,146244
1630932145130,22154,197411,146236
1630932145140,22163,197461,146234
1630932145150,22166,197439,146215
1630932145160,22171,197431,146250
1630932145170,22173,197452,146237
1630932145180,22186,197450,146252
1630932145190,22192,197447,146236
1630932145200,22180,197476,146231
1630932145210,22188,197502,146221
1630932145220,22195,197478,146245
1630932145230,22214,197473,146254
1630932145240,22209,197502,146241
1630932145250,22216,197527,146250
1630932145260,22217,197511,146241
1630932145270,22227,197531,146271
1630932145280,22225,197524,146246
1630932145290,22231,197540,146263
1630932145300,22239,197531,146257
1630932145310,22244,197539,146251
1630932145320,22247,197556,146271
1630932145330,22252,197567,146254
1630932145340,22255,197574,146261
1630932145350,22267,197590,146252
1630932145360,22266,197607,146283
1630932145370,22267,197616,146279
1630932145380,22278,197630,146279
1630932145390,22289,197629,146265
1630932145400,22290,197660,146276
1630932145410,22292,197634,146285
1630932145420,22303,197646,146276
1630932145430,22300,197662,146270
1630932145440,22300,197657,146301
1630932145450,22296,197654,146246
1630932145460,22293,197643,146223
1630932145470,22279,197608,146190
1630932145480,22261,197544,146167
1630932145490,22242,197484,146143
1630932145500,22221,197430,146145
1630932145510,22200,197416,146143
1630932145520,22181,197401,146146
1630932145530,22160,197366,146146
1630932145540,22147,197309,146130
1630932145550,22144,197324,146120
1630932145560,22118,197297,146134
1630932145570,22120,197240,146134
1630932145580,22116,197268,146140
1630932145590,22113,197292,146138
1630932145600,22105,197250,146105
1630932145610,22101,197251,146118
1630932145620,22095,197228,146104
1630932145630,22090,197216,146107
1630932145640,22089,197184,146101
1630932145650,22085,197200,146116
1630932145660,22075,197174,146087
1630932145670,22078,197153,146113
1630932145680,22071,197182,146115
1630932145690,22080,197144,146095
1630932145700,22067,197158,146097
1630932145710,22080,197139,146090
1630932145720,22081,197157,146093
1630932145730,22081,197164,146082
1630932145740,22080,197121,146085
1630932145750,22080,197117,146085
1630932145760,22077,197108,146081
1630932145770,22074,197087,146083
1630932145780,22075,197125,146071
1630932145790,22075,197126,146065
1630932145800,22074,197112,146065
1630932145810,22072,197106,146050
1630932145820,22078,197080,146080
1630932145830,22075,197101,146067
1630932145840,22078,197078,146086
1630932145850,22068,197079,146072
1630932145860,22084,197101,146053
1630932145870,22096,197090,146068
1630932145880,22095,197119,146076
1630932145890,22088,197107,146092
1630932145900,22096,197099,146065
1630932145910,22099,197117,146069
1630932145920,22106,197116,146070
1630932145930,22101,197139,146106
1630932145940,22105,197095,146084
1630932145950,22117,197111,146095
1630932145960,22119,197145,146095
1630932145970,22123,197128,146086
1630932145980,22130,197137,146092
1630932145990,22130,197163,146095
1630932146000,22134,197123,146091
1630932146010,22126,197149,146099
1630932146020,22148,197169,146086
1630932146030,22149,197193,146105
1630932146040,22160,197164,146097
1630932146050,22162,197200,146130
1630932146060,22165,197182,146116
1630932146070,22166,197202,146116
1630932146080,22170,197185,146111
1630932146090,22176,197204,146118
1630932146100,22178,197217,146113
1630932146110,22183,197225,146119
1630932146120,22189,197239,146130
1630932146130,22188,197252,146137
1630932146140,22201,197271,146131
1630932146150,22206,197262,146125
1630932146160,22208,197243,146126
1630932146170,22207,197271,146112
1630932146180,22218,197286,146119
1630932146190,22222,197243,146122
1630932146200,22221,197279,146142
1630932146210,22228,197301,146132
1630932146220,22237,197301,146135
1630932146230,22244,197325,146130
1630932146240,22245,197324,146124
1630932146250,22251,197333,146142
1630932146260,22251,197315,146144
1630932146270,22258,197340,146132
1630932146280,22264,197331,146161
1630932146290,22265,197368,146142
1630932146300,22271,197362,146143
1630932146310,22278,197371,146165
1630932146320,22283,197393,146160
1630932146330,22284,197415,146154
1630932146340,22287,197426,146146
1630932146350,22303,197438,146160
1630932146360,22290,197457,146156
1630932146370,22307,197432,146164
1630932146380,22322,197451,146168
1630932146390,22315,197449,146159
1630932146400,22308,197435,146140
1630932146410,22298,197385,146098
1630932146420,22281,197360,146062
1630932146430,22266,197290,146038
1630932146440,22240,197271,146057
1630932146450,22227,197196,146057
1630932146460,22197,197191,146046
1630932146470,22180,197158,146046
1630932146480,22165,197121,146027
1630932146490,22161,197111,146027
1630932146500,22141,197104,146024
1630932146510,22141,197078,145995
1630932146520,22130,197061,146017
1630932146530,22121,197039,146009
1630932146540,22119,197040,146027
1630932146550,22111,197030,146013
1630932146560,22114,197034,146036
1630932146570,22112,197026,146007
1630932146580,22102,197007,146050
1630932146590,22101,196976,146002
1630932146600,22094,196978,146003
1630932146610,22094,196956,146002
1630932146620,22091,196967,146005
1630932146630,22092,196970,146019
1630932146640,22094,196975,146025
1630932146650,22099,197001,146021
1630932146660,22097,196972,146006
1630932146670,22097,196973,146015
1630932146680,22092,196942,146016
1630932146690,22086,196968,146011
1630932146700,22092,196928,146003
1630932146710,22090,196928,146015
1630932146720,22091,196917,146001
1630932146730,22089,196921,146006
1630932146740,22089,196921,146014
1630932146750,22086,196921,146016
1630932146760,22086,196925,146011
1630932146770,22086,196867,146004
1630932146780,22089,196908,145995
1630932146790,22091,196905,146010
1630932146800,22096,196924,146010
1630932146810,22094,196914,146024
1630932146820,22097,196893,146020
1630932146830,22107,196909,146021
1630932146840,22093,196889,146022
1630932146850,22115,196890,146027
1630932146860,22110,196907,146019
1630932146870,22112,196922,145998
1630932146880,22115,196906,146019
1630932146890,22126,196946,146019
1630932146900,22132,196952,146030
1630932146910,22126,196950,146043
1630932146920,22131,196970,146021
1630932146930,22135,196946,146034
1630932146940,22138,196960,146028
1630932146950,22141,196940,146045
1630932146960,22146,196975,146041
1630932146970,22145,196991,146051
1630932146980,22163,196981,146037
1630932146990,22159,197006,146050
1630932147000,22155,197021,146060
1630932147010,22173,196993,146030
1630932147020,22171,196993,146045
1630932147030,22178,197033,146062
1630932147040,22188,197047,146053
1630932147050,22192,197030,146065
1630932147060,22198,197049,146075
1630932147070,22201,197077,146072
1630932147080,22204,197056,146085
1630932147090,22213,197065,146068
1630932147100,22216,197071,146073
1630932147110,22222,197074,146083
1630932147120,22224,197102,146084
1630932147130,22231,197125,146083
1630932147140,22230,197127,146067
1630932147150,22229,197104,146050
1630932147160,22230,197152,146084
1630932147170,22243,197136,146085
1630932147180,22241,197135,146080
1630932147190,22253,197164,146091
1630932147200,22256,197155,146092
1630932147210,22260,197188,146096
1630932147220,22266,197157,146105
1630932147230,22279,197163,146099
1630932147240,22272,197173,146096
1630932147250,22283,197197,146108
1630932147260,22284,197223,146093
1630932147270,22288,197240,146114
1630932147280,22293,197246,146096
1630932147290,22294,197230,146128
1630932147300,22306,197257,146111
1630932147310,22317,197248,146113
1630932147320,22311,197254,146110
1630932147330,22325,197280,146116
1630932147340,22327,197264,146100
1630932147350,22301,197200,146068
1630932147360,22284,197182,146014
1630932147370,22266,197113,146005
1630932147380,22249,197091,146020
1630932147390,22227,197033,145994
1630932147400,22206,197010,145989
1630932147410,22192,196991,145986
1630932147420,22172,196940,145962
1630932147430,22156,196907,145947
1630932147440,22151,196900,145950
1630932147450,22142,196876,145960
1630932147460,22128,196877,145976
1630932147470,22128,196886,145959
1630932147480,22123,196840,145973
1630932147490,22109,196852,145999
1630932147500,22110,196855,145975
1630932147510,22115,196830,145972
1630932147520,22114,196819,145973
1630932147530,22114,196824,145981
1630932147540,22106,196803,145982
1630932147550,22096,196784,145958
1630932147560,22104,196788,145982
1630932147570,22107,196816,145990
1630932147580,22107,196795,145970
1630932147590,22102,196800,145970
1630932147600,22105,196801,145958
1630932147610,22109,196799,145977
1630932147620,22105,196771,145946
1630932147630,22102,196765,145954
1630932147640,22101,196735,145941
1630932147650,22102,196785,145939
1630932147660,22098,196763,145954
1630932147670,22096,196753,145972
1630932147680,22088,196746,145957
1630932147690,22096,196739,145969
1630932147700,22101,196748,145946
1630932147710,22093,196747,145972
1630932147720,22102,196724,145950
1630932147730,22098,196758,145956
1630932147740,22098,196728,145943
1630932147750,22106,196743,145927
1630932147760,22103,196725,145944
1630932147770,22110,196706,145947
1630932147780,22104,196757,145935
1630932147790,22117,196778,145951
1630932147800,22113,196751,145952
1630932147810,22119,196750,145927
1630932147820,22126,196756,145952
1630932147830,22123,196770,145926
1630932147840,22128,196752,145928
1630932147850,22128,196798,145959
1630932147860,22136,196769,145951
1630932147870,22133,196767,145948
1630932147880,22149,196749,145948
1630932147890,22146,196786,145956
1630932147900,22150,196808,145931
1630932147910,22153,196810,145968
1630932147920,22158,196776,145966
1630932147930,22161,196828,145950
1630932147940,22166,196812,145957
1630932147950,22163,196828,145963
1630932147960,22184,196823,145976
1630932147970,22177,196847,145964
1630932147980,22176,196837,145960
1630932147990,22180,196890,145988
1630932148000,22194,196867,145979
1630932148010,22198,196889,145979
1630932148020,22198,196898,145991
1630932148030,22209,196895,145997
1630932148040,22209,196885,145992
1630932148050,22217,196899,146001
1630932148060,22223,196943,145992
1630932148070,22223,196898,145972
1630932148080,22228,196909,145998
1630932148090,22232,196954,145992
1630932148100,22236,196953,145970
1630932148110,22237,196976,145972
1630932148120,22247,196962,145978
1630932148130,22247,196966,145977
1630932148140,22261,196978,145981
1630932148150,22252,196991,145992
1630932148160,22260,197015,145981
1630932148170,22266,197011,146000
1630932148180,22269,196993,146002
1630932148190,22268,197002,146003
1630932148200,22276,197003,145997
1630932148210,22278,197036,145999
1630932148220,22286,197020,146004
1630932148230,22290,197042,146011
1630932148240,22299,197066,146005
1630932148250,22297,197070,146003
1630932148260,22295,197060,146001
1630932148270,22286,197030,145959
