timestamp,ecg_waveform
1629376330003,2037
1629376330007,2036
1629376330011,2034
1629376330015,2033
1629376330019,2033
1629376330023,2033
1629376330027,2034
1629376330031,2034
1629376330035,2034
1629376330039,2033
1629376330043,2032
1629376330047,2031
1629376330051,2031
1629376330055,2031
1629376330059,2032
1629376330063,2032
1629376330067,2033
1629376330071,2033
1629376330075,2033
1629376330079,2031
1629376330083,2030
1629376330087,2029
1629376330091,2028
1629376330095,2027
1629376330099,2027
1629376330103,2027
1629376330107,2027
1629376330111,2026
1629376330115,2025
1629376330119,2025
1629376330123,2025
1629376330127,2026
1629376330131,2026
1629376330135,2027
1629376330139,2027
1629376330143,2027
1629376330147,2027
1629376330151,2027
1629376330155,2026
1629376330159,2026
1629376330163,2026
1629376330167,2026
1629376330171,2025
1629376330175,2026
1629376330179,2027
1629376330183,2028
1629376330187,2029
1629376330191,2030
1629376330195,2031
1629376330199,2031
1629376330203,2031
1629376330207,2032
1629376330211,2033
1629376330215,2034
1629376330219,2035
1629376330223,2036
1629376330227,2038
1629376330231,2039
1629376330235,2041
1629376330239,2042
1629376330243,2043
1629376330247,2044
1629376330251,2044
1629376330255,2045
1629376330259,2047
1629376330263,2048
1629376330267,2051
1629376330271,2053
1629376330275,2054
1629376330279,2053
1629376330283,2052
1629376330287,2049
1629376330291,2048
1629376330295,2046
1629376330299,2043
1629376330303,2041
1629376330307,2039
1629376330311,2038
1629376330315,2038
1629376330319,2039
1629376330323,2040
1629376330327,2041
1629376330331,2042
1629376330335,2043
1629376330339,2045
1629376330343,2046
1629376330347,2048
1629376330351,2048
1629376330355,2049
1629376330359,2050
1629376330363,2051
1629376330367,2052
1629376330371,2053
1629376330375,2055
1629376330379,2056
1629376330383,2056
1629376330387,2057
1629376330391,2056
1629376330395,2055
1629376330399,2054
1629376330403,2053
1629376330407,2054
1629376330411,2055
1629376330415,2057
1629376330419,2060
1629376330423,2062
1629376330427,2063
1629376330431,2063
1629376330435,2062
1629376330439,2062
1629376330443,2061
1629376330447,2060
1629376330451,2061
1629376330455,2062
1629376330459,2064
1629376330463,2065
1629376330467,2066
1629376330471,2066
1629376330475,2065
1629376330479,2064
1629376330483,2064
1629376330487,2065
1629376330491,2067
1629376330495,2069
1629376330499,2070
1629376330503,2069
1629376330507,2067
1629376330511,2063
1629376330515,2060
1629376330519,2059
1629376330523,2059
1629376330527,2060
1629376330531,2061
1629376330535,2060
1629376330539,2059
1629376330543,2058
1629376330547,2058
1629376330551,2057
1629376330555,2057
1629376330559,2058
1629376330563,2059
1629376330567,2059
1629376330571,2058
1629376330575,2057
1629376330579,2055
1629376330583,2054
1629376330587,2058
1629376330591,2067
1629376330595,2082
1629376330599,2097
1629376330603,2108
1629376330607,2110
1629376330611,2101
1629376330615,2088
1629376330619,2073
1629376330623,2062
1629376330627,2056
1629376330631,2053
1629376330635,2053
1629376330639,2052
1629376330643,2053
1629376330647,2055
1629376330651,2057
1629376330655,2059
1629376330659,2058
1629376330663,2056
1629376330667,2053
1629376330671,2052
1629376330675,2053
1629376330679,2055
1629376330683,2056
1629376330687,2057
1629376330691,2056
1629376330695,2055
1629376330699,2055
1629376330703,2056
1629376330707,2056
1629376330711,2056
1629376330715,2055
1629376330719,2054
1629376330723,2053
1629376330727,2054
1629376330731,2055
1629376330735,2056
1629376330739,2057
1629376330743,2057
1629376330747,2057
1629376330751,2056
1629376330755,2054
1629376330759,2052
1629376330763,2051
1629376330767,2050
1629376330771,2051
1629376330775,2053
1629376330779,2055
1629376330783,2057
1629376330787,2058
1629376330791,2059
1629376330795,2058
1629376330799,2057
1629376330803,2056
1629376330807,2054
1629376330811,2054
1629376330815,2055
1629376330819,2057
1629376330823,2060
1629376330827,2062
1629376330831,2063
1629376330835,2064
1629376330839,2065
1629376330843,2064
1629376330847,2064
1629376330851,2063
1629376330855,2063
1629376330859,2063
1629376330863,2064
1629376330867,2064
1629376330871,2064
1629376330875,2062
1629376330879,2061
1629376330883,2060
1629376330887,2059
1629376330891,2058
1629376330895,2057
1629376330899,2055
1629376330903,2054
1629376330907,2052
1629376330911,2051
1629376330915,2050
1629376330919,2049
1629376330923,2048
1629376330927,2048
1629376330931,2047
1629376330935,2046
1629376330939,2044
1629376330943,2043
1629376330947,2042
1629376330951,2042
1629376330955,2043
1629376330959,2044
1629376330963,2045
1629376330967,2046
1629376330971,2046
1629376330975,2047
1629376330979,2046
1629376330983,2045
1629376330987,2043
1629376330991,2042
1629376330995,2042
1629376330999,2044
1629376331003,2046
1629376331007,2048
1629376331011,2048
1629376331015,2048
1629376331019,2047
1629376331023,2047
1629376331027,2047
1629376331031,2047
1629376331035,2047
1629376331039,2046
1629376331043,2046
1629376331047,2046
1629376331051,2047
1629376331055,2048
1629376331059,2049
1629376331063,2050
1629376331067,2050
1629376331071,2049
1629376331075,2048
1629376331079,2048
1629376331083,2047
1629376331087,2047
1629376331091,2047
1629376331095,2047
1629376331099,2046
1629376331103,2045
1629376331107,2045
1629376331111,2045
1629376331115,2045
1629376331119,2045
1629376331123,2047
1629376331127,2048
1629376331131,2048
1629376331135,2048
1629376331139,2048
1629376331143,2048
1629376331147,2047
1629376331151,2047
1629376331155,2047
1629376331159,2046
1629376331163,2046
1629376331167,2046
1629376331171,2046
1629376331175,2046
1629376331179,2046
1629376331183,2047
1629376331187,2047
1629376331191,2046
1629376331195,2046
1629376331199,2046
1629376331203,2046
1629376331207,2046
1629376331211,2045
1629376331215,2046
1629376331219,2046
1629376331223,2047
1629376331227,2047
1629376331231,2047
1629376331235,2047
1629376331239,2046
1629376331243,2046
1629376331247,2046
1629376331251,2046
1629376331255,2047
1629376331259,2047
1629376331263,2047
1629376331267,2047
1629376331271,2047
1629376331275,2046
1629376331279,2046
1629376331283,2046
1629376331287,2046
1629376331291,2046
1629376331295,2046
1629376331299,2046
1629376331303,2047
1629376331307,2046
1629376331311,2046
1629376331315,2046
1629376331319,2046
1629376331323,2046
1629376331327,2047
1629376331331,2047
1629376331335,2048
1629376331339,2048
1629376331343,2048
1629376331347,2048
1629376331351,2048
1629376331355,2048
1629376331359,2049
1629376331363,2050
1629376331367,2050
1629376331371,2051
1629376331375,2051
1629376331379,2051
1629376331383,2051
1629376331387,2051
1629376331391,2051
1629376331395,2050
1629376331399,2049
1629376331403,2048
1629376331407,2047
1629376331411,2046
1629376331415,2047
1629376331419,2048
1629376331423,2048
1629376331427,2048
1629376331431,2048
1629376331435,2046
1629376331439,2044
1629376331443,2044
1629376331447,2044
1629376331451,2044
1629376331455,2046
1629376331459,2047
1629376331463,2048
1629376331467,2048
1629376331471,2048
1629376331475,2047
1629376331479,2045
1629376331483,2041
1629376331487,2039
1629376331491,2042
1629376331495,2050
1629376331499,2066
1629376331503,2083
1629376331507,2095
1629376331511,2098
1629376331515,2090
1629376331519,2076
1629376331523,2062
1629376331527,2050
1629376331531,2045
1629376331535,2044
1629376331539,2046
1629376331543,2048
1629376331547,2049
1629376331551,2051
1629376331555,2051
1629376331559,2050
1629376331563,2049
1629376331567,2049
1629376331571,2049
1629376331575,2049
1629376331579,2050
1629376331583,2051
1629376331587,2051
1629376331591,2051
1629376331595,2052
1629376331599,2051
1629376331603,2051
1629376331607,2051
1629376331611,2050
1629376331615,2051
1629376331619,2052
1629376331623,2053
1629376331627,2055
1629376331631,2056
1629376331635,2056
1629376331639,2055
1629376331643,2054
1629376331647,2053
1629376331651,2053
1629376331655,2054
1629376331659,2056
1629376331663,2058
1629376331667,2059
1629376331671,2058
1629376331675,2058
1629376331679,2057
1629376331683,2056
1629376331687,2057
1629376331691,2058
1629376331695,2059
1629376331699,2061
1629376331703,2062
1629376331707,2062
1629376331711,2062
1629376331715,2062
1629376331719,2063
1629376331723,2064
1629376331727,2065
1629376331731,2066
1629376331735,2067
1629376331739,2068
1629376331743,2069
1629376331747,2069
1629376331751,2069
1629376331755,2070
1629376331759,2070
1629376331763,2070
1629376331767,2070
1629376331771,2070
1629376331775,2070
1629376331779,2070
1629376331783,2069
1629376331787,2068
1629376331791,2067
1629376331795,2065
1629376331799,2064
1629376331803,2062
1629376331807,2061
1629376331811,2059
1629376331815,2058
1629376331819,2057
1629376331823,2056
1629376331827,2056
1629376331831,2055
1629376331835,2055
1629376331839,2054
1629376331843,2054
1629376331847,2054
1629376331851,2054
1629376331855,2054
1629376331859,2054
1629376331863,2053
1629376331867,2053
1629376331871,2053
1629376331875,2052
1629376331879,2052
1629376331883,2052
1629376331887,2053
1629376331891,2054
1629376331895,2056
1629376331899,2056
1629376331903,2056
1629376331907,2054
1629376331911,2053
1629376331915,2052
1629376331919,2052
1629376331923,2054
1629376331927,2055
1629376331931,2057
1629376331935,2057
1629376331939,2057
1629376331943,2058
1629376331947,2057
1629376331951,2057
1629376331955,2057
1629376331959,2057
1629376331963,2057
1629376331967,2058
1629376331971,2058
1629376331975,2058
1629376331979,2058
1629376331983,2057
1629376331987,2057
1629376331991,2058
1629376331995,2059
1629376331999,2059
1629376332003,2060
1629376332007,2059
1629376332011,2058
1629376332015,2058
1629376332019,2058
1629376332023,2059
1629376332027,2059
1629376332031,2059
1629376332035,2058
1629376332039,2058
1629376332043,2057
1629376332047,2057
1629376332051,2057
1629376332055,2057
1629376332059,2058
1629376332063,2058
1629376332067,2059
1629376332071,2059
1629376332075,2059
1629376332079,2059
1629376332083,2058
1629376332087,2058
1629376332091,2058
1629376332095,2059
1629376332099,2060
1629376332103,2060
1629376332107,2060
1629376332111,2060
1629376332115,2059
1629376332119,2058
1629376332123,2057
1629376332127,2057
1629376332131,2057
1629376332135,2058
1629376332139,2060
1629376332143,2061
1629376332147,2061
1629376332151,2061
1629376332155,2060
1629376332159,2059
1629376332163,2058
1629376332167,2057
1629376332171,2057
1629376332175,2058
1629376332179,2059
1629376332183,2060
1629376332187,2060
1629376332191,2059
1629376332195,2059
1629376332199,2058
1629376332203,2058
1629376332207,2058
1629376332211,2059
1629376332215,2060
1629376332219,2060
1629376332223,2060
1629376332227,2060
1629376332231,2059
1629376332235,2059
1629376332239,2059
1629376332243,2060
1629376332247,2060
1629376332251,2061
1629376332255,2063
1629376332259,2064
1629376332263,2066
1629376332267,2066
1629376332271,2066
1629376332275,2065
1629376332279,2064
1629376332283,2063
1629376332287,2063
1629376332291,2063
1629376332295,2063
1629376332299,2063
1629376332303,2063
1629376332307,2062
1629376332311,2060
1629376332315,2059
1629376332319,2058
1629376332323,2057
1629376332327,2057
1629376332331,2057
1629376332335,2057
1629376332339,2057
1629376332343,2056
1629376332347,2056
1629376332351,2056
1629376332355,2056
1629376332359,2056
1629376332363,2057
1629376332367,2057
1629376332371,2056
1629376332375,2054
1629376332379,2052
1629376332383,2049
1629376332387,2048
1629376332391,2052
1629376332395,2062
1629376332399,2078
1629376332403,2094
1629376332407,2104
1629376332411,2105
1629376332415,2096
1629376332419,2081
1629376332423,2065
1629376332427,2055
1629376332431,2049
1629376332435,2049
1629376332439,2050
1629376332443,2052
1629376332447,2054
1629376332451,2056
1629376332455,2057
1629376332459,2057
1629376332463,2057
1629376332467,2056
1629376332471,2055
1629376332475,2055
1629376332479,2055
1629376332483,2056
1629376332487,2056
1629376332491,2056
1629376332495,2057
1629376332499,2056
1629376332503,2056
1629376332507,2056
1629376332511,2056
1629376332515,2055
1629376332519,2055
1629376332523,2055
1629376332527,2055
1629376332531,2055
1629376332535,2056
1629376332539,2057
1629376332543,2058
1629376332547,2058
1629376332551,2058
1629376332555,2057
1629376332559,2056
1629376332563,2057
1629376332567,2057
1629376332571,2058
1629376332575,2059
1629376332579,2060
1629376332583,2060
1629376332587,2060
1629376332591,2060
1629376332595,2060
1629376332599,2060
1629376332603,2060
1629376332607,2061
1629376332611,2062
1629376332615,2063
1629376332619,2064
1629376332623,2065
1629376332627,2064
1629376332631,2064
1629376332635,2064
1629376332639,2065
1629376332643,2066
1629376332647,2067
1629376332651,2068
1629376332655,2069
1629376332659,2069
1629376332663,2070
1629376332667,2070
1629376332671,2069
1629376332675,2068
1629376332679,2067
1629376332683,2066
1629376332687,2065
1629376332691,2064
1629376332695,2063
1629376332699,2062
1629376332703,2060
1629376332707,2059
1629376332711,2058
1629376332715,2057
1629376332719,2055
1629376332723,2053
1629376332727,2052
1629376332731,2052
1629376332735,2052
1629376332739,2052
1629376332743,2052
1629376332747,2051
1629376332751,2051
1629376332755,2050
1629376332759,2050
1629376332763,2050
1629376332767,2050
1629376332771,2051
1629376332775,2051
1629376332779,2052
1629376332783,2053
1629376332787,2052
1629376332791,2052
1629376332795,2051
1629376332799,2050
1629376332803,2049
1629376332807,2050
1629376332811,2050
1629376332815,2051
1629376332819,2051
1629376332823,2052
1629376332827,2052
1629376332831,2052
1629376332835,2052
1629376332839,2051
1629376332843,2051
1629376332847,2051
1629376332851,2052
1629376332855,2053
1629376332859,2053
1629376332863,2054
1629376332867,2055
1629376332871,2055
1629376332875,2054
1629376332879,2054
1629376332883,2053
1629376332887,2052
1629376332891,2052
1629376332895,2052
1629376332899,2053
1629376332903,2054
1629376332907,2055
1629376332911,2055
1629376332915,2054
1629376332919,2053
1629376332923,2052
1629376332927,2051
1629376332931,2052
1629376332935,2053
1629376332939,2053
1629376332943,2053
1629376332947,2053
1629376332951,2053
1629376332955,2053
1629376332959,2052
1629376332963,2052
1629376332967,2052
1629376332971,2052
1629376332975,2053
1629376332979,2054
1629376332983,2055
1629376332987,2055
1629376332991,2054
1629376332995,2053
1629376332999,2052
1629376333003,2051
1629376333007,2051
1629376333011,2051
1629376333015,2051
1629376333019,2052
1629376333023,2052
1629376333027,2052
1629376333031,2052
1629376333035,2052
1629376333039,2052
1629376333043,2051
1629376333047,2051
1629376333051,2051
1629376333055,2052
1629376333059,2052
1629376333063,2053
1629376333067,2053
1629376333071,2052
1629376333075,2052
1629376333079,2051
1629376333083,2051
1629376333087,2051
1629376333091,2051
1629376333095,2052
1629376333099,2053
1629376333103,2053
1629376333107,2053
1629376333111,2052
1629376333115,2051
1629376333119,2051
1629376333123,2050
1629376333127,2050
1629376333131,2051
1629376333135,2052
1629376333139,2052
1629376333143,2052
1629376333147,2052
1629376333151,2051
1629376333155,2051
1629376333159,2051
1629376333163,2051
1629376333167,2052
1629376333171,2052
1629376333175,2053
1629376333179,2054
1629376333183,2055
1629376333187,2056
1629376333191,2057
1629376333195,2057
1629376333199,2056
1629376333203,2055
1629376333207,2055
1629376333211,2056
1629376333215,2058
1629376333219,2059
1629376333223,2060
1629376333227,2058
1629376333231,2057
1629376333235,2055
1629376333239,2054
1629376333243,2054
1629376333247,2055
1629376333251,2057
1629376333255,2058
1629376333259,2058
1629376333263,2057
1629376333267,2055
1629376333271,2053
1629376333275,2052
1629376333279,2051
1629376333283,2052
1629376333287,2052
1629376333291,2052
1629376333295,2052
1629376333299,2051
1629376333303,2050
1629376333307,2050
1629376333311,2051
1629376333315,2051
1629376333319,2051
1629376333323,2050
1629376333327,2048
1629376333331,2047
1629376333335,2045
1629376333339,2045
1629376333343,2050
1629376333347,2061
1629376333351,2076
1629376333355,2090
1629376333359,2098
1629376333363,2097
1629376333367,2087
1629376333371,2073
1629376333375,2060
1629376333379,2050
1629376333383,2047
1629376333387,2047
1629376333391,2048
1629376333395,2050
1629376333399,2052
1629376333403,2053
1629376333407,2053
1629376333411,2052
1629376333415,2052
1629376333419,2052
1629376333423,2052
1629376333427,2052
1629376333431,2052
1629376333435,2051
1629376333439,2051
1629376333443,2051
1629376333447,2052
1629376333451,2053
1629376333455,2053
1629376333459,2054
1629376333463,2054
1629376333467,2054
1629376333471,2054
1629376333475,2053
1629376333479,2053
1629376333483,2053
1629376333487,2053
1629376333491,2053
1629376333495,2054
1629376333499,2055
1629376333503,2055
1629376333507,2055
1629376333511,2055
1629376333515,2055
1629376333519,2054
1629376333523,2055
1629376333527,2055
1629376333531,2056
1629376333535,2058
1629376333539,2058
1629376333543,2057
1629376333547,2057
1629376333551,2056
1629376333555,2055
1629376333559,2056
1629376333563,2057
1629376333567,2059
1629376333571,2060
1629376333575,2062
1629376333579,2064
1629376333583,2066
1629376333587,2066
1629376333591,2066
1629376333595,2066
1629376333599,2065
1629376333603,2065
1629376333607,2065
1629376333611,2066
1629376333615,2066
1629376333619,2067
1629376333623,2067
1629376333627,2068
1629376333631,2068
1629376333635,2068
1629376333639,2066
1629376333643,2064
1629376333647,2061
1629376333651,2058
1629376333655,2056
1629376333659,2056
1629376333663,2056
1629376333667,2056
1629376333671,2055
1629376333675,2054
1629376333679,2052
1629376333683,2051
1629376333687,2050
1629376333691,2050
1629376333695,2050
1629376333699,2051
1629376333703,2051
1629376333707,2051
1629376333711,2051
1629376333715,2051
1629376333719,2051
1629376333723,2050
1629376333727,2050
1629376333731,2050
1629376333735,2050
1629376333739,2050
1629376333743,2050
1629376333747,2050
1629376333751,2050
1629376333755,2049
1629376333759,2050
1629376333763,2050
1629376333767,2051
1629376333771,2051
1629376333775,2051
1629376333779,2051
1629376333783,2050
1629376333787,2050
1629376333791,2050
1629376333795,2050
1629376333799,2050
1629376333803,2049
1629376333807,2049
1629376333811,2050
1629376333815,2051
1629376333819,2053
1629376333823,2054
1629376333827,2053
1629376333831,2052
1629376333835,2051
1629376333839,2050
1629376333843,2051
1629376333847,2053
1629376333851,2054
1629376333855,2055
1629376333859,2054
1629376333863,2053
1629376333867,2052
1629376333871,2052
1629376333875,2052
1629376333879,2052
1629376333883,2052
1629376333887,2052
1629376333891,2052
1629376333895,2052
1629376333899,2052
1629376333903,2052
1629376333907,2052
1629376333911,2052
1629376333915,2052
1629376333919,2052
1629376333923,2052
1629376333927,2052
1629376333931,2052
1629376333935,2052
1629376333939,2052
1629376333943,2052
1629376333947,2052
1629376333951,2052
1629376333955,2053
1629376333959,2054
1629376333963,2054
1629376333967,2053
1629376333971,2052
1629376333975,2051
1629376333979,2051
1629376333983,2052
1629376333987,2054
1629376333991,2056
1629376333995,2056
1629376333999,2054
1629376334003,2050
1629376334007,2048
1629376334011,2047
1629376334015,2048
1629376334019,2051
1629376334023,2054
1629376334027,2055
1629376334031,2055
1629376334035,2054
1629376334039,2053
1629376334043,2053
1629376334047,2053
1629376334051,2054
1629376334055,2054
1629376334059,2054
1629376334063,2054
1629376334067,2054
1629376334071,2054
1629376334075,2053
1629376334079,2053
1629376334083,2053
1629376334087,2052
1629376334091,2053
1629376334095,2053
1629376334099,2053
1629376334103,2054
1629376334107,2054
1629376334111,2053
1629376334115,2053
1629376334119,2052
1629376334123,2053
1629376334127,2054
1629376334131,2054
1629376334135,2056
1629376334139,2057
1629376334143,2057
1629376334147,2058
1629376334151,2059
1629376334155,2059
1629376334159,2060
1629376334163,2060
1629376334167,2060
1629376334171,2059
1629376334175,2058
1629376334179,2057
1629376334183,2057
1629376334187,2057
1629376334191,2057
1629376334195,2057
1629376334199,2055
1629376334203,2054
1629376334207,2053
1629376334211,2052
1629376334215,2052
1629376334219,2053
1629376334223,2053
1629376334227,2053
1629376334231,2052
1629376334235,2051
1629376334239,2050
1629376334243,2050
1629376334247,2050
1629376334251,2051
1629376334255,2051
1629376334259,2050
1629376334263,2049
1629376334267,2048
1629376334271,2046
1629376334275,2045
1629376334279,2047
1629376334283,2054
1629376334287,2067
1629376334291,2082
1629376334295,2094
1629376334299,2098
1629376334303,2092
1629376334307,2079
1629376334311,2065
1629376334315,2053
1629376334319,2047
1629376334323,2045
1629376334327,2047
1629376334331,2048
1629376334335,2051
1629376334339,2053
1629376334343,2053
1629376334347,2052
1629376334351,2051
1629376334355,2050
1629376334359,2050
1629376334363,2051
1629376334367,2051
1629376334371,2051
1629376334375,2051
1629376334379,2051
1629376334383,2051
1629376334387,2050
1629376334391,2050
1629376334395,2051
1629376334399,2051
1629376334403,2051
1629376334407,2051
1629376334411,2051
1629376334415,2052
1629376334419,2053
1629376334423,2054
1629376334427,2054
1629376334431,2054
1629376334435,2054
1629376334439,2054
1629376334443,2054
1629376334447,2055
1629376334451,2055
1629376334455,2056
1629376334459,2056
1629376334463,2056
1629376334467,2056
1629376334471,2056
1629376334475,2056
1629376334479,2056
1629376334483,2056
1629376334487,2056
1629376334491,2057
1629376334495,2058
1629376334499,2059
1629376334503,2059
1629376334507,2060
1629376334511,2060
1629376334515,2061
1629376334519,2062
1629376334523,2063
1629376334527,2064
1629376334531,2064
1629376334535,2064
1629376334539,2064
1629376334543,2064
1629376334547,2065
1629376334551,2066
1629376334555,2066
1629376334559,2066
1629376334563,2065
1629376334567,2064
1629376334571,2064
1629376334575,2064
1629376334579,2063
1629376334583,2063
1629376334587,2062
1629376334591,2060
1629376334595,2058
1629376334599,2057
1629376334603,2056
1629376334607,2055
1629376334611,2054
1629376334615,2053
1629376334619,2053
1629376334623,2052
1629376334627,2052
1629376334631,2051
1629376334635,2050
1629376334639,2048
1629376334643,2048
1629376334647,2049
1629376334651,2050
1629376334655,2052
1629376334659,2053
1629376334663,2053
1629376334667,2052
1629376334671,2051
1629376334675,2051
1629376334679,2050
1629376334683,2049
1629376334687,2049
1629376334691,2050
1629376334695,2051
1629376334699,2052
1629376334703,2053
1629376334707,2053
1629376334711,2053
1629376334715,2051
1629376334719,2050
1629376334723,2050
1629376334727,2050
1629376334731,2051
1629376334735,2053
1629376334739,2054
1629376334743,2054
1629376334747,2054
1629376334751,2053
1629376334755,2052
1629376334759,2052
1629376334763,2052
1629376334767,2052
1629376334771,2052
1629376334775,2052
1629376334779,2053
1629376334783,2054
1629376334787,2054
1629376334791,2054
1629376334795,2054
1629376334799,2053
1629376334803,2053
1629376334807,2053
1629376334811,2053
1629376334815,2053
1629376334819,2053
1629376334823,2054
1629376334827,2054
1629376334831,2054
1629376334835,2053
1629376334839,2053
1629376334843,2053
1629376334847,2053
1629376334851,2053
1629376334855,2053
1629376334859,2053
1629376334863,2053
1629376334867,2053
1629376334871,2052
1629376334875,2053
1629376334879,2053
1629376334883,2054
1629376334887,2054
1629376334891,2054
1629376334895,2054
1629376334899,2054
1629376334903,2054
1629376334907,2053
1629376334911,2053
1629376334915,2052
1629376334919,2052
1629376334923,2053
1629376334927,2054
1629376334931,2055
1629376334935,2055
1629376334939,2054
1629376334943,2053
1629376334947,2052
1629376334951,2052
1629376334955,2053
1629376334959,2054
1629376334963,2055
1629376334967,2056
1629376334971,2056
1629376334975,2056
1629376334979,2057
1629376334983,2057
1629376334987,2057
1629376334991,2057
1629376334995,2058
1629376334999,2058
1629376335003,2058
1629376335007,2059
1629376335011,2059
1629376335015,2060
1629376335019,2059
1629376335023,2058
1629376335027,2057
1629376335031,2055
1629376335035,2054
1629376335039,2054
1629376335043,2053
1629376335047,2054
1629376335051,2054
1629376335055,2054
1629376335059,2054
1629376335063,2054
1629376335067,2054
1629376335071,2053
1629376335075,2053
1629376335079,2052
1629376335083,2052
1629376335087,2051
1629376335091,2051
1629376335095,2051
1629376335099,2051
1629376335103,2052
1629376335107,2052
1629376335111,2050
1629376335115,2048
1629376335119,2047
1629376335123,2049
1629376335127,2059
1629376335131,2075
1629376335135,2091
1629376335139,2101
1629376335143,2101
1629376335147,2092
1629376335151,2076
1629376335155,2061
1629376335159,2050
1629376335163,2047
1629376335167,2047
1629376335171,2048
1629376335175,2051
1629376335179,2054
1629376335183,2055
1629376335187,2055
1629376335191,2055
1629376335195,2054
1629376335199,2053
1629376335203,2053
1629376335207,2053
1629376335211,2053
1629376335215,2053
1629376335219,2053
1629376335223,2054
1629376335227,2054
1629376335231,2054
1629376335235,2055
1629376335239,2055
1629376335243,2055
1629376335247,2055
1629376335251,2056
1629376335255,2056
1629376335259,2056
1629376335263,2056
1629376335267,2056
1629376335271,2056
1629376335275,2056
1629376335279,2055
1629376335283,2056
1629376335287,2056
1629376335291,2056
1629376335295,2057
1629376335299,2058
1629376335303,2059
1629376335307,2060
1629376335311,2060
1629376335315,2060
1629376335319,2059
1629376335323,2059
1629376335327,2059
1629376335331,2060
1629376335335,2060
1629376335339,2060
1629376335343,2061
1629376335347,2061
1629376335351,2061
1629376335355,2061
1629376335359,2061
1629376335363,2062
1629376335367,2062
1629376335371,2063
1629376335375,2065
1629376335379,2066
1629376335383,2068
1629376335387,2069
1629376335391,2069
1629376335395,2069
1629376335399,2068
1629376335403,2067
1629376335407,2066
1629376335411,2065
1629376335415,2064
1629376335419,2063
1629376335423,2062
1629376335427,2061
1629376335431,2060
1629376335435,2058
1629376335439,2057
1629376335443,2057
1629376335447,2056
1629376335451,2054
1629376335455,2053
1629376335459,2052
1629376335463,2052
1629376335467,2052
1629376335471,2052
1629376335475,2053
1629376335479,2052
1629376335483,2051
1629376335487,2050
1629376335491,2049
1629376335495,2050
1629376335499,2050
1629376335503,2051
1629376335507,2052
1629376335511,2053
1629376335515,2053
1629376335519,2053
1629376335523,2052
1629376335527,2052
1629376335531,2052
1629376335535,2052
1629376335539,2053
1629376335543,2053
1629376335547,2053
1629376335551,2053
1629376335555,2053
1629376335559,2053
1629376335563,2052
1629376335567,2052
1629376335571,2053
1629376335575,2054
1629376335579,2055
1629376335583,2055
1629376335587,2055
1629376335591,2054
1629376335595,2053
1629376335599,2052
1629376335603,2052
1629376335607,2051
1629376335611,2052
1629376335615,2053
1629376335619,2053
1629376335623,2054
1629376335627,2054
1629376335631,2053
1629376335635,2052
1629376335639,2052
1629376335643,2051
1629376335647,2051
1629376335651,2052
1629376335655,2052
1629376335659,2052
1629376335663,2052
1629376335667,2051
1629376335671,2051
1629376335675,2051
1629376335679,2052
1629376335683,2052
1629376335687,2052
1629376335691,2052
1629376335695,2052
1629376335699,2052
1629376335703,2052
1629376335707,2052
1629376335711,2052
1629376335715,2052
1629376335719,2052
1629376335723,2052
1629376335727,2053
1629376335731,2054
1629376335735,2055
1629376335739,2055
1629376335743,2054
1629376335747,2054
1629376335751,2055
1629376335755,2056
1629376335759,2058
1629376335763,2060
1629376335767,2060
1629376335771,2059
1629376335775,2058
1629376335779,2057
1629376335783,2057
1629376335787,2057
1629376335791,2057
1629376335795,2056
1629376335799,2055
1629376335803,2054
1629376335807,2052
1629376335811,2051
1629376335815,2051
1629376335819,2051
1629376335823,2052
1629376335827,2052
1629376335831,2052
1629376335835,2051
1629376335839,2050
1629376335843,2049
1629376335847,2049
1629376335851,2049
1629376335855,2049
1629376335859,2050
1629376335863,2050
1629376335867,2050
1629376335871,2049
1629376335875,2047
1629376335879,2045
1629376335883,2047
1629376335887,2055
1629376335891,2070
1629376335895,2087
1629376335899,2099
1629376335903,2101
1629376335907,2094
1629376335911,2079
1629376335915,2064
1629376335919,2052
1629376335923,2047
1629376335927,2046
1629376335931,2047
1629376335935,2048
1629376335939,2051
1629376335943,2052
1629376335947,2053
1629376335951,2053
1629376335955,2052
1629376335959,2052
1629376335963,2051
1629376335967,2051
1629376335971,2051
1629376335975,2052
1629376335979,2053
1629376335983,2053
1629376335987,2053
1629376335991,2053
1629376335995,2052
1629376335999,2051
1629376336003,2051
1629376336007,2050
1629376336011,2050
1629376336015,2051
1629376336019,2051
1629376336023,2053
1629376336027,2054
1629376336031,2055
1629376336035,2055
1629376336039,2054
1629376336043,2054
1629376336047,2054
1629376336051,2054
1629376336055,2055
1629376336059,2056
1629376336063,2056
1629376336067,2056
1629376336071,2055
1629376336075,2055
1629376336079,2055
1629376336083,2056
1629376336087,2057
1629376336091,2058
1629376336095,2059
1629376336099,2060
1629376336103,2060
1629376336107,2061
1629376336111,2061
1629376336115,2061
1629376336119,2061
1629376336123,2062
1629376336127,2063
1629376336131,2064
1629376336135,2065
1629376336139,2066
1629376336143,2066
1629376336147,2066
1629376336151,2066
1629376336155,2066
1629376336159,2065
1629376336163,2065
1629376336167,2064
1629376336171,2064
1629376336175,2064
1629376336179,2063
1629376336183,2062
1629376336187,2060
1629376336191,2058
1629376336195,2055
1629376336199,2053
1629376336203,2052
1629376336207,2051
1629376336211,2051
1629376336215,2052
1629376336219,2053
1629376336223,2052
1629376336227,2052
1629376336231,2050
1629376336235,2049
1629376336239,2048
1629376336243,2047
1629376336247,2048
1629376336251,2048
1629376336255,2048
1629376336259,2049
1629376336263,2049
1629376336267,2049
1629376336271,2049
1629376336275,2048
1629376336279,2048
1629376336283,2048
1629376336287,2048
1629376336291,2048
1629376336295,2048
1629376336299,2048
1629376336303,2049
1629376336307,2050
1629376336311,2050
1629376336315,2050
1629376336319,2050
1629376336323,2049
1629376336327,2049
1629376336331,2049
1629376336335,2050
1629376336339,2051
1629376336343,2051
1629376336347,2051
1629376336351,2051
1629376336355,2051
1629376336359,2050
1629376336363,2050
1629376336367,2051
1629376336371,2051
1629376336375,2051
1629376336379,2051
1629376336383,2051
1629376336387,2051
1629376336391,2051
1629376336395,2051
1629376336399,2051
1629376336403,2051
1629376336407,2050
1629376336411,2050
1629376336415,2051
1629376336419,2051
1629376336423,2051
1629376336427,2051
1629376336431,2051
1629376336435,2051
1629376336439,2050
1629376336443,2049
1629376336447,2049
1629376336451,2049
1629376336455,2049
1629376336459,2049
1629376336463,2050
1629376336467,2051
1629376336471,2053
1629376336475,2054
1629376336479,2053
1629376336483,2053
1629376336487,2052
1629376336491,2052
1629376336495,2053
1629376336499,2055
1629376336503,2057
1629376336507,2058
1629376336511,2058
1629376336515,2058
1629376336519,2057
1629376336523,2056
1629376336527,2056
1629376336531,2056
1629376336535,2056
1629376336539,2056
1629376336543,2056
1629376336547,2055
1629376336551,2053
1629376336555,2051
1629376336559,2049
1629376336563,2049
1629376336567,2048
1629376336571,2049
1629376336575,2049
1629376336579,2049
1629376336583,2049
1629376336587,2049
1629376336591,2049
1629376336595,2048
1629376336599,2048
1629376336603,2048
1629376336607,2048
1629376336611,2048
1629376336615,2048
1629376336619,2048
1629376336623,2047
1629376336627,2045
1629376336631,2045
1629376336635,2048
1629376336639,2058
1629376336643,2073
1629376336647,2088
1629376336651,2097
1629376336655,2096
1629376336659,2086
1629376336663,2071
1629376336667,2056
1629376336671,2048
1629376336675,2044
1629376336679,2044
1629376336683,2047
1629376336687,2048
1629376336691,2050
1629376336695,2052
1629376336699,2052
1629376336703,2052
1629376336707,2051
1629376336711,2050
1629376336715,2050
1629376336719,2049
1629376336723,2049
1629376336727,2049
1629376336731,2050
1629376336735,2051
1629376336739,2052
1629376336743,2052
1629376336747,2052
1629376336751,2052
1629376336755,2051
1629376336759,2051
1629376336763,2051
1629376336767,2051
1629376336771,2051
1629376336775,2051
1629376336779,2052
1629376336783,2052
1629376336787,2053
1629376336791,2053
1629376336795,2054
1629376336799,2054
1629376336803,2054
1629376336807,2054
1629376336811,2054
1629376336815,2055
1629376336819,2055
1629376336823,2056
1629376336827,2056
1629376336831,2056
1629376336835,2056
1629376336839,2057
1629376336843,2057
1629376336847,2057
1629376336851,2057
1629376336855,2058
1629376336859,2059
1629376336863,2060
1629376336867,2061
1629376336871,2062
1629376336875,2063
1629376336879,2063
1629376336883,2063
1629376336887,2064
1629376336891,2064
1629376336895,2065
1629376336899,2066
1629376336903,2067
1629376336907,2067
1629376336911,2066
1629376336915,2065
1629376336919,2064
1629376336923,2062
1629376336927,2061
1629376336931,2060
1629376336935,2059
1629376336939,2058
1629376336943,2057
1629376336947,2055
1629376336951,2054
1629376336955,2053
1629376336959,2052
1629376336963,2051
1629376336967,2050
1629376336971,2050
1629376336975,2049
1629376336979,2049
1629376336983,2048
1629376336987,2048
1629376336991,2048
1629376336995,2048
1629376336999,2048
1629376337003,2048
1629376337007,2047
1629376337011,2048
1629376337015,2048
1629376337019,2048
1629376337023,2048
1629376337027,2048
1629376337031,2048
1629376337035,2048
1629376337039,2048
1629376337043,2048
1629376337047,2048
1629376337051,2048
1629376337055,2048
1629376337059,2048
1629376337063,2049
1629376337067,2049
1629376337071,2049
1629376337075,2049
1629376337079,2049
1629376337083,2050
1629376337087,2049
1629376337091,2049
1629376337095,2049
1629376337099,2050
1629376337103,2050
1629376337107,2051
1629376337111,2051
1629376337115,2051
1629376337119,2050
1629376337123,2050
1629376337127,2050
1629376337131,2050
1629376337135,2050
1629376337139,2050
1629376337143,2050
1629376337147,2049
1629376337151,2049
1629376337155,2050
1629376337159,2050
1629376337163,2050
1629376337167,2050
1629376337171,2050
1629376337175,2050
1629376337179,2050
1629376337183,2050
1629376337187,2050
1629376337191,2050
1629376337195,2050
1629376337199,2050
1629376337203,2049
1629376337207,2049
1629376337211,2049
1629376337215,2050
1629376337219,2050
1629376337223,2050
1629376337227,2050
1629376337231,2050
1629376337235,2051
1629376337239,2050
1629376337243,2050
1629376337247,2050
1629376337251,2050
1629376337255,2050
1629376337259,2050
1629376337263,2050
1629376337267,2050
1629376337271,2050
1629376337275,2049
1629376337279,2049
1629376337283,2049
1629376337287,2049
1629376337291,2050
1629376337295,2051
1629376337299,2051
1629376337303,2050
1629376337307,2050
1629376337311,2050
1629376337315,2050
1629376337319,2051
1629376337323,2052
1629376337327,2053
1629376337331,2053
1629376337335,2054
1629376337339,2054
1629376337343,2055
1629376337347,2056
1629376337351,2058
1629376337355,2058
1629376337359,2058
1629376337363,2057
1629376337367,2056
1629376337371,2055
1629376337375,2055
1629376337379,2055
1629376337383,2055
1629376337387,2055
1629376337391,2055
1629376337395,2054
1629376337399,2053
1629376337403,2051
1629376337407,2049
1629376337411,2049
1629376337415,2049
1629376337419,2050
1629376337423,2050
1629376337427,2051
1629376337431,2050
1629376337435,2049
1629376337439,2048
1629376337443,2048
1629376337447,2049
1629376337451,2050
1629376337455,2051
1629376337459,2051
1629376337463,2049
1629376337467,2048
1629376337471,2044
1629376337475,2043
1629376337479,2047
1629376337483,2056
1629376337487,2070
1629376337491,2086
1629376337495,2096
1629376337499,2096
1629376337503,2087
1629376337507,2072
1629376337511,2057
1629376337515,2048
1629376337519,2044
1629376337523,2045
1629376337527,2048
1629376337531,2050
1629376337535,2052
1629376337539,2053
1629376337543,2053
1629376337547,2052
1629376337551,2051
1629376337555,2051
1629376337559,2050
1629376337563,2050
1629376337567,2050
1629376337571,2050
1629376337575,2050
1629376337579,2050
1629376337583,2050
1629376337587,2050
1629376337591,2050
1629376337595,2051
1629376337599,2051
1629376337603,2051
1629376337607,2051
1629376337611,2051
1629376337615,2052
1629376337619,2053
1629376337623,2053
1629376337627,2054
1629376337631,2053
1629376337635,2053
1629376337639,2053
1629376337643,2053
1629376337647,2053
1629376337651,2054
1629376337655,2054
1629376337659,2055
1629376337663,2055
1629376337667,2055
1629376337671,2056
1629376337675,2057
1629376337679,2057
1629376337683,2058
1629376337687,2058
1629376337691,2058
1629376337695,2059
1629376337699,2059
1629376337703,2060
1629376337707,2061
1629376337711,2061
1629376337715,2062
1629376337719,2062
1629376337723,2062
1629376337727,2062
1629376337731,2063
1629376337735,2064
1629376337739,2065
1629376337743,2066
1629376337747,2066
1629376337751,2065
1629376337755,2065
1629376337759,2064
1629376337763,2064
1629376337767,2064
1629376337771,2063
1629376337775,2063
1629376337779,2062
1629376337783,2060
1629376337787,2059
1629376337791,2057
1629376337795,2056
1629376337799,2054
1629376337803,2053
1629376337807,2053
1629376337811,2052
1629376337815,2052
1629376337819,2052
1629376337823,2051
1629376337827,2050
1629376337831,2049
1629376337835,2048
1629376337839,2048
1629376337843,2048
1629376337847,2048
1629376337851,2048
1629376337855,2048
1629376337859,2049
1629376337863,2049
1629376337867,2049
1629376337871,2048
1629376337875,2048
1629376337879,2049
1629376337883,2049
1629376337887,2050
1629376337891,2050
1629376337895,2050
1629376337899,2050
1629376337903,2049
1629376337907,2049
1629376337911,2049
1629376337915,2049
1629376337919,2049
1629376337923,2049
1629376337927,2050
1629376337931,2050
1629376337935,2051
1629376337939,2051
1629376337943,2051
1629376337947,2051
1629376337951,2050
1629376337955,2050
1629376337959,2049
1629376337963,2049
1629376337967,2050
1629376337971,2050
1629376337975,2050
1629376337979,2051
1629376337983,2052
1629376337987,2052
1629376337991,2052
1629376337995,2052
1629376337999,2051
1629376338003,2051
1629376338007,2050
1629376338011,2049
1629376338015,2049
1629376338019,2050
1629376338023,2050
1629376338027,2051
1629376338031,2052
1629376338035,2052
1629376338039,2052
1629376338043,2052
1629376338047,2051
1629376338051,2050
1629376338055,2050
1629376338059,2051
1629376338063,2051
1629376338067,2052
1629376338071,2052
1629376338075,2052
1629376338079,2051
1629376338083,2051
1629376338087,2051
1629376338091,2051
1629376338095,2051
1629376338099,2051
1629376338103,2051
1629376338107,2050
1629376338111,2050
1629376338115,2050
1629376338119,2050
1629376338123,2051
1629376338127,2052
1629376338131,2052
1629376338135,2051
1629376338139,2051
1629376338143,2051
1629376338147,2051
1629376338151,2052
1629376338155,2052
1629376338159,2052
1629376338163,2052
1629376338167,2052
1629376338171,2052
1629376338175,2053
1629376338179,2053
1629376338183,2053
1629376338187,2053
1629376338191,2052
1629376338195,2052
1629376338199,2051
1629376338203,2051
1629376338207,2052
1629376338211,2052
1629376338215,2053
1629376338219,2053
1629376338223,2053
1629376338227,2053
1629376338231,2053
1629376338235,2053
1629376338239,2053
1629376338243,2053
1629376338247,2054
1629376338251,2053
1629376338255,2054
1629376338259,2054
1629376338263,2054
1629376338267,2055
1629376338271,2055
1629376338275,2055
1629376338279,2055
1629376338283,2055
1629376338287,2056
1629376338291,2057
1629376338295,2059
1629376338299,2060
1629376338303,2061
1629376338307,2061
1629376338311,2060
1629376338315,2059
1629376338319,2057
1629376338323,2057
1629376338327,2056
1629376338331,2057
1629376338335,2057
1629376338339,2057
1629376338343,2056
1629376338347,2054
1629376338351,2053
1629376338355,2052
1629376338359,2051
1629376338363,2051
1629376338367,2051
1629376338371,2051
1629376338375,2051
1629376338379,2051
1629376338383,2051
1629376338387,2051
1629376338391,2052
1629376338395,2052
1629376338399,2052
1629376338403,2051
1629376338407,2050
1629376338411,2048
1629376338415,2045
1629376338419,2044
1629376338423,2048
1629376338427,2057
1629376338431,2072
1629376338435,2089
1629376338439,2099
1629376338443,2101
1629376338447,2092
1629376338451,2077
1629376338455,2062
1629376338459,2051
1629376338463,2047
1629376338467,2047
1629376338471,2048
1629376338475,2050
1629376338479,2052
1629376338483,2053
1629376338487,2053
1629376338491,2053
1629376338495,2053
1629376338499,2053
1629376338503,2054
1629376338507,2054
1629376338511,2053
1629376338515,2052
1629376338519,2052
1629376338523,2052
1629376338527,2052
1629376338531,2053
1629376338535,2053
1629376338539,2053
1629376338543,2054
1629376338547,2053
1629376338551,2054
1629376338555,2054
1629376338559,2053
1629376338563,2054
1629376338567,2054
1629376338571,2055
1629376338575,2056
1629376338579,2056
1629376338583,2056
1629376338587,2056
1629376338591,2056
1629376338595,2056
1629376338599,2055
1629376338603,2055
1629376338607,2055
1629376338611,2056
1629376338615,2057
1629376338619,2058
1629376338623,2059
1629376338627,2059
1629376338631,2059
1629376338635,2059
1629376338639,2059
1629376338643,2059
1629376338647,2059
1629376338651,2059
1629376338655,2061
1629376338659,2062
1629376338663,2064
1629376338667,2066
1629376338671,2066
1629376338675,2066
1629376338679,2065
1629376338683,2065
1629376338687,2064
1629376338691,2065
1629376338695,2066
1629376338699,2066
1629376338703,2067
1629376338707,2066
1629376338711,2066
1629376338715,2065
1629376338719,2064
1629376338723,2063
1629376338727,2062
1629376338731,2060
1629376338735,2059
1629376338739,2058
1629376338743,2057
1629376338747,2056
1629376338751,2054
1629376338755,2053
1629376338759,2053
1629376338763,2052
1629376338767,2052
1629376338771,2052
1629376338775,2052
1629376338779,2051
1629376338783,2050
1629376338787,2050
1629376338791,2050
1629376338795,2050
1629376338799,2049
1629376338803,2049
1629376338807,2049
1629376338811,2049
1629376338815,2049
1629376338819,2050
1629376338823,2051
1629376338827,2051
1629376338831,2052
1629376338835,2052
1629376338839,2051
1629376338843,2050
1629376338847,2050
1629376338851,2050
1629376338855,2051
1629376338859,2052
1629376338863,2052
1629376338867,2053
1629376338871,2053
1629376338875,2053
1629376338879,2052
1629376338883,2052
1629376338887,2051
1629376338891,2051
1629376338895,2052
1629376338899,2053
1629376338903,2054
1629376338907,2054
1629376338911,2053
1629376338915,2052
1629376338919,2051
1629376338923,2051
1629376338927,2052
1629376338931,2053
1629376338935,2053
1629376338939,2053
1629376338943,2053
1629376338947,2052
1629376338951,2052
1629376338955,2052
1629376338959,2052
1629376338963,2052
1629376338967,2052
1629376338971,2052
1629376338975,2052
1629376338979,2052
1629376338983,2051
1629376338987,2051
1629376338991,2051
1629376338995,2052
1629376338999,2052
1629376339003,2052
1629376339007,2052
1629376339011,2052
1629376339015,2052
1629376339019,2052
1629376339023,2052
1629376339027,2052
1629376339031,2052
1629376339035,2052
1629376339039,2051
1629376339043,2052
1629376339047,2052
1629376339051,2052
1629376339055,2052
1629376339059,2053
1629376339063,2053
1629376339067,2053
1629376339071,2053
1629376339075,2052
1629376339079,2052
1629376339083,2052
1629376339087,2052
1629376339091,2052
1629376339095,2053
1629376339099,2053
1629376339103,2053
1629376339107,2053
1629376339111,2052
1629376339115,2052
1629376339119,2052
1629376339123,2052
1629376339127,2053
1629376339131,2053
1629376339135,2053
1629376339139,2053
1629376339143,2053
1629376339147,2053
1629376339151,2054
1629376339155,2055
1629376339159,2055
1629376339163,2054
1629376339167,2053
1629376339171,2052
1629376339175,2052
1629376339179,2052
1629376339183,2053
1629376339187,2053
1629376339191,2053
1629376339195,2052
1629376339199,2052
1629376339203,2052
1629376339207,2053
1629376339211,2054
1629376339215,2055
1629376339219,2056
1629376339223,2057
1629376339227,2057
1629376339231,2058
1629376339235,2058
1629376339239,2058
1629376339243,2059
1629376339247,2058
1629376339251,2058
1629376339255,2058
1629376339259,2058
1629376339263,2059
1629376339267,2059
1629376339271,2059
1629376339275,2058
1629376339279,2056
1629376339283,2055
1629376339287,2053
1629376339291,2052
1629376339295,2052
1629376339299,2051
1629376339303,2051
1629376339307,2050
1629376339311,2050
1629376339315,2050
1629376339319,2050
1629376339323,2050
1629376339327,2051
1629376339331,2052
1629376339335,2052
1629376339339,2052
1629376339343,2051
1629376339347,2048
1629376339351,2045
1629376339355,2044
1629376339359,2049
1629376339363,2062
1629376339367,2079
1629376339371,2095
1629376339375,2103
1629376339379,2100
1629376339383,2088
1629376339387,2072
1629376339391,2058
1629376339395,2049
1629376339399,2046
1629376339403,2047
1629376339407,2048
1629376339411,2050
1629376339415,2053
1629376339419,2054
1629376339423,2054
1629376339427,2053
1629376339431,2053
1629376339435,2052
1629376339439,2051
1629376339443,2051
1629376339447,2051
1629376339451,2052
1629376339455,2053
1629376339459,2054
1629376339463,2055
1629376339467,2055
1629376339471,2055
1629376339475,2054
1629376339479,2053
1629376339483,2053
1629376339487,2053
1629376339491,2053
1629376339495,2054
1629376339499,2054
1629376339503,2055
1629376339507,2056
1629376339511,2056
1629376339515,2055
1629376339519,2054
1629376339523,2054
1629376339527,2055
1629376339531,2056
1629376339535,2057
1629376339539,2057
1629376339543,2057
1629376339547,2057
1629376339551,2057
1629376339555,2058
1629376339559,2058
1629376339563,2059
1629376339567,2059
1629376339571,2059
1629376339575,2059
1629376339579,2060
1629376339583,2061
1629376339587,2062
1629376339591,2063
1629376339595,2063
1629376339599,2064
1629376339603,2064
1629376339607,2065
1629376339611,2065
1629376339615,2066
1629376339619,2066
1629376339623,2066
1629376339627,2066
1629376339631,2067
1629376339635,2067
1629376339639,2066
1629376339643,2065
1629376339647,2064
1629376339651,2064
1629376339655,2064
1629376339659,2063
1629376339663,2062
1629376339667,2059
1629376339671,2057
1629376339675,2056
1629376339679,2054
1629376339683,2054
1629376339687,2053
1629376339691,2052
1629376339695,2052
1629376339699,2051
1629376339703,2051
1629376339707,2051
1629376339711,2050
1629376339715,2050
1629376339719,2049
1629376339723,2049
1629376339727,2049
1629376339731,2049
1629376339735,2050
1629376339739,2050
1629376339743,2050
1629376339747,2050
1629376339751,2050
1629376339755,2049
1629376339759,2049
1629376339763,2049
1629376339767,2049
1629376339771,2050
1629376339775,2051
1629376339779,2052
1629376339783,2052
1629376339787,2051
1629376339791,2051
1629376339795,2050
1629376339799,2049
1629376339803,2049
1629376339807,2050
1629376339811,2050
1629376339815,2051
1629376339819,2051
1629376339823,2052
1629376339827,2051
1629376339831,2051
1629376339835,2051
1629376339839,2051
1629376339843,2051
1629376339847,2051
1629376339851,2051
1629376339855,2051
1629376339859,2052
1629376339863,2053
1629376339867,2053
1629376339871,2053
1629376339875,2052
1629376339879,2051
1629376339883,2051
1629376339887,2050
1629376339891,2050
1629376339895,2050
1629376339899,2051
1629376339903,2051
1629376339907,2051
1629376339911,2051
1629376339915,2051
1629376339919,2050
1629376339923,2050
1629376339927,2050
1629376339931,2050
1629376339935,2051
1629376339939,2051
1629376339943,2051
1629376339947,2051
1629376339951,2050
1629376339955,2050
1629376339959,2049
1629376339963,2050
1629376339967,2050
1629376339971,2050
1629376339975,2051
1629376339979,2051
1629376339983,2051
1629376339987,2052
1629376339991,2052
1629376339995,2052
1629376339999,2051
1629376340003,2050
1629376340007,2050
1629376340011,2050
1629376340015,2050
1629376340019,2051
1629376340023,2052
1629376340027,2052
1629376340031,2052
1629376340035,2051
1629376340039,2050
1629376340043,2050
1629376340047,2049
1629376340051,2050
1629376340055,2051
1629376340059,2052
1629376340063,2052
1629376340067,2052
1629376340071,2052
1629376340075,2051
1629376340079,2050
1629376340083,2051
1629376340087,2051
1629376340091,2051
1629376340095,2052
1629376340099,2052
1629376340103,2052
1629376340107,2052
1629376340111,2052
1629376340115,2051
1629376340119,2051
1629376340123,2051
1629376340127,2052
1629376340131,2052
1629376340135,2052
1629376340139,2052
1629376340143,2052
1629376340147,2052
1629376340151,2052
1629376340155,2052
1629376340159,2052
1629376340163,2051
1629376340167,2051
1629376340171,2052
1629376340175,2052
1629376340179,2053
1629376340183,2054
1629376340187,2054
1629376340191,2055
1629376340195,2055
1629376340199,2055
1629376340203,2057
1629376340207,2058
1629376340211,2059
1629376340215,2059
1629376340219,2059
1629376340223,2059
1629376340227,2058
1629376340231,2057
1629376340235,2056
1629376340239,2055
1629376340243,2054
1629376340247,2054
1629376340251,2053
1629376340255,2053
1629376340259,2053
1629376340263,2052
1629376340267,2051
1629376340271,2051
1629376340275,2050
1629376340279,2050
1629376340283,2050
1629376340287,2049
1629376340291,2049
1629376340295,2050
1629376340299,2050
1629376340303,2050
1629376340307,2050
1629376340311,2050
1629376340315,2049
1629376340319,2048
1629376340323,2047
1629376340327,2045
1629376340331,2046
1629376340335,2049
1629376340339,2060
1629376340343,2076
1629376340347,2091
1629376340351,2100
1629376340355,2098
1629376340359,2087
1629376340363,2072
1629376340367,2057
1629376340371,2048
1629376340375,2045
1629376340379,2046
1629376340383,2048
1629376340387,2049
1629376340391,2051
1629376340395,2052
1629376340399,2052
1629376340403,2052
1629376340407,2051
1629376340411,2051
1629376340415,2051
1629376340419,2051
1629376340423,2051
1629376340427,2051
1629376340431,2051
1629376340435,2050
1629376340439,2050
1629376340443,2050
1629376340447,2051
1629376340451,2052
1629376340455,2052
1629376340459,2053
1629376340463,2053
1629376340467,2053
1629376340471,2052
1629376340475,2052
1629376340479,2052
1629376340483,2052
1629376340487,2053
1629376340491,2053
1629376340495,2054
1629376340499,2054
1629376340503,2055
1629376340507,2055
1629376340511,2054
1629376340515,2054
1629376340519,2055
1629376340523,2055
1629376340527,2056
1629376340531,2056
1629376340535,2056
1629376340539,2056
1629376340543,2057
1629376340547,2058
1629376340551,2058
1629376340555,2058
1629376340559,2058
1629376340563,2058
1629376340567,2059
1629376340571,2060
1629376340575,2061
1629376340579,2062
1629376340583,2064
1629376340587,2064
1629376340591,2064
1629376340595,2065
1629376340599,2065
1629376340603,2065
1629376340607,2065
1629376340611,2066
1629376340615,2066
1629376340619,2066
1629376340623,2065
1629376340627,2064
1629376340631,2063
1629376340635,2062
1629376340639,2060
1629376340643,2059
1629376340647,2058
1629376340651,2057
1629376340655,2056
1629376340659,2055
1629376340663,2054
1629376340667,2053
1629376340671,2053
1629376340675,2052
1629376340679,2051
1629376340683,2050
1629376340687,2048
1629376340691,2048
1629376340695,2048
1629376340699,2049
1629376340703,2050
1629376340707,2050
1629376340711,2050
1629376340715,2049
1629376340719,2048
1629376340723,2048
1629376340727,2049
1629376340731,2049
1629376340735,2049
1629376340739,2050
1629376340743,2050
1629376340747,2051
1629376340751,2050
1629376340755,2050
1629376340759,2049
1629376340763,2049
1629376340767,2049
1629376340771,2049
1629376340775,2050
1629376340779,2051
1629376340783,2052
1629376340787,2052
1629376340791,2051
1629376340795,2051
1629376340799,2051
1629376340803,2051
1629376340807,2051
1629376340811,2051
1629376340815,2051
1629376340819,2052
1629376340823,2052
1629376340827,2053
1629376340831,2052
1629376340835,2052
1629376340839,2051
1629376340843,2051
1629376340847,2051
1629376340851,2051
1629376340855,2052
1629376340859,2052
1629376340863,2053
1629376340867,2053
1629376340871,2052
1629376340875,2052
1629376340879,2051
1629376340883,2051
1629376340887,2051
1629376340891,2051
1629376340895,2051
1629376340899,2051
1629376340903,2051
1629376340907,2051
1629376340911,2051
1629376340915,2051
1629376340919,2051
1629376340923,2051
1629376340927,2051
1629376340931,2051
1629376340935,2051
1629376340939,2051
1629376340943,2051
1629376340947,2051
1629376340951,2051
1629376340955,2051
1629376340959,2051
1629376340963,2051
1629376340967,2051
1629376340971,2050
1629376340975,2050
1629376340979,2051
1629376340983,2051
1629376340987,2052
1629376340991,2051
1629376340995,2051
1629376340999,2050
1629376341003,2050
1629376341007,2051
1629376341011,2051
1629376341015,2052
1629376341019,2052
1629376341023,2052
1629376341027,2052
1629376341031,2052
1629376341035,2052
1629376341039,2052
1629376341043,2052
1629376341047,2051
1629376341051,2051
1629376341055,2052
1629376341059,2052
1629376341063,2052
1629376341067,2052
1629376341071,2052
1629376341075,2052
1629376341079,2051
1629376341083,2051
1629376341087,2052
1629376341091,2053
1629376341095,2053
1629376341099,2053
1629376341103,2053
1629376341107,2052
1629376341111,2051
1629376341115,2051
1629376341119,2050
1629376341123,2050
1629376341127,2050
1629376341131,2050
1629376341135,2051
1629376341139,2052
1629376341143,2052
1629376341147,2053
1629376341151,2053
1629376341155,2053
1629376341159,2052
1629376341163,2053
1629376341167,2053
1629376341171,2054
1629376341175,2055
1629376341179,2056
1629376341183,2056
1629376341187,2056
1629376341191,2056
1629376341195,2056
1629376341199,2057
1629376341203,2059
1629376341207,2060
1629376341211,2060
1629376341215,2060
1629376341219,2060
1629376341223,2059
1629376341227,2058
1629376341231,2057
1629376341235,2057
1629376341239,2056
1629376341243,2056
1629376341247,2055
1629376341251,2054
1629376341255,2054
1629376341259,2053
1629376341263,2052
1629376341267,2051
1629376341271,2050
1629376341275,2049
1629376341279,2049
1629376341283,2049
1629376341287,2049
1629376341291,2049
1629376341295,2050
1629376341299,2051
1629376341303,2051
1629376341307,2051
1629376341311,2050
1629376341315,2049
1629376341319,2047
1629376341323,2044
1629376341327,2044
1629376341331,2048
1629376341335,2061
1629376341339,2078
1629376341343,2093
1629376341347,2102
1629376341351,2099
1629376341355,2087
1629376341359,2072
1629376341363,2058
1629376341367,2049
1629376341371,2047
1629376341375,2048
1629376341379,2048
1629376341383,2050
1629376341387,2051
1629376341391,2052
1629376341395,2052
1629376341399,2052
1629376341403,2051
1629376341407,2051
1629376341411,2051
1629376341415,2052
1629376341419,2052
1629376341423,2053
1629376341427,2052
1629376341431,2052
1629376341435,2051
1629376341439,2051
1629376341443,2051
1629376341447,2051
1629376341451,2051
1629376341455,2052
1629376341459,2052
1629376341463,2053
1629376341467,2054
1629376341471,2054
1629376341475,2054
1629376341479,2053
1629376341483,2052
1629376341487,2052
1629376341491,2052
1629376341495,2054
1629376341499,2055
1629376341503,2056
1629376341507,2056
1629376341511,2056
1629376341515,2055
1629376341519,2055
1629376341523,2055
1629376341527,2056
1629376341531,2056
1629376341535,2057
1629376341539,2058
1629376341543,2059
1629376341547,2060
1629376341551,2060
1629376341555,2060
1629376341559,2060
1629376341563,2060
1629376341567,2061
1629376341571,2062
1629376341575,2063
1629376341579,2064
1629376341583,2064
1629376341587,2065
1629376341591,2065
1629376341595,2065
1629376341599,2065
1629376341603,2065
1629376341607,2064
1629376341611,2064
1629376341615,2065
1629376341619,2065
1629376341623,2065
1629376341627,2065
1629376341631,2063
1629376341635,2061
1629376341639,2059
1629376341643,2058
1629376341647,2057
1629376341651,2056
1629376341655,2056
1629376341659,2055
1629376341663,2054
1629376341667,2053
1629376341671,2051
1629376341675,2050
1629376341679,2049
1629376341683,2048
1629376341687,2048
1629376341691,2048
1629376341695,2048
1629376341699,2048
1629376341703,2049
1629376341707,2050
1629376341711,2050
1629376341715,2050
1629376341719,2050
1629376341723,2049
1629376341727,2049
1629376341731,2049
1629376341735,2049
1629376341739,2049
1629376341743,2049
1629376341747,2049
1629376341751,2049
1629376341755,2050
1629376341759,2050
1629376341763,2050
1629376341767,2050
1629376341771,2050
1629376341775,2051
1629376341779,2052
1629376341783,2053
1629376341787,2053
1629376341791,2052
1629376341795,2051
1629376341799,2049
1629376341803,2049
1629376341807,2049
1629376341811,2050
1629376341815,2051
1629376341819,2052
1629376341823,2053
1629376341827,2052
1629376341831,2052
1629376341835,2051
1629376341839,2050
1629376341843,2050
1629376341847,2050
1629376341851,2050
1629376341855,2050
1629376341859,2050
1629376341863,2051
1629376341867,2051
1629376341871,2051
1629376341875,2052
1629376341879,2051
1629376341883,2051
1629376341887,2051
1629376341891,2051
1629376341895,2051
1629376341899,2051
1629376341903,2051
1629376341907,2051
1629376341911,2051
1629376341915,2051
1629376341919,2051
1629376341923,2051
1629376341927,2051
1629376341931,2051
1629376341935,2051
1629376341939,2052
1629376341943,2052
1629376341947,2052
1629376341951,2052
1629376341955,2052
1629376341959,2051
1629376341963,2050
1629376341967,2050
1629376341971,2049
1629376341975,2050
1629376341979,2050
1629376341983,2051
1629376341987,2051
1629376341991,2050
1629376341995,2050
1629376341999,2051
1629376342003,2051
1629376342007,2052
1629376342011,2052
1629376342015,2052
1629376342019,2051
1629376342023,2051
1629376342027,2051
1629376342031,2051
1629376342035,2051
1629376342039,2051
1629376342043,2051
1629376342047,2051
1629376342051,2051
1629376342055,2052
1629376342059,2052
1629376342063,2052
1629376342067,2052
1629376342071,2052
1629376342075,2052
1629376342079,2052
1629376342083,2052
1629376342087,2051
1629376342091,2051
1629376342095,2051
1629376342099,2051
1629376342103,2052
1629376342107,2052
1629376342111,2052
1629376342115,2052
1629376342119,2052
1629376342123,2053
1629376342127,2054
1629376342131,2055
1629376342135,2056
1629376342139,2056
1629376342143,2056
1629376342147,2055
1629376342151,2056
1629376342155,2057
1629376342159,2058
1629376342163,2059
1629376342167,2059
1629376342171,2060
1629376342175,2059
1629376342179,2058
1629376342183,2058
1629376342187,2057
1629376342191,2057
1629376342195,2057
1629376342199,2056
1629376342203,2055
1629376342207,2054
1629376342211,2052
1629376342215,2052
1629376342219,2051
1629376342223,2051
1629376342227,2051
1629376342231,2051
1629376342235,2051
1629376342239,2051
1629376342243,2051
1629376342247,2051
1629376342251,2052
1629376342255,2052
1629376342259,2052
1629376342263,2052
1629376342267,2051
1629376342271,2049
1629376342275,2047
1629376342279,2043
1629376342283,2043
1629376342287,2049
1629376342291,2063
1629376342295,2081
1629376342299,2095
1629376342303,2102
1629376342307,2098
1629376342311,2086
1629376342315,2071
1629376342319,2058
1629376342323,2049
1629376342327,2047
1629376342331,2047
1629376342335,2048
1629376342339,2050
1629376342343,2052
1629376342347,2054
1629376342351,2054
1629376342355,2053
1629376342359,2053
1629376342363,2053
1629376342367,2053
1629376342371,2053
1629376342375,2053
1629376342379,2052
1629376342383,2052
1629376342387,2052
1629376342391,2052
1629376342395,2053
1629376342399,2053
1629376342403,2053
1629376342407,2053
1629376342411,2053
1629376342415,2054
1629376342419,2054
1629376342423,2055
1629376342427,2055
1629376342431,2055
1629376342435,2055
1629376342439,2055
1629376342443,2055
1629376342447,2055
1629376342451,2056
1629376342455,2057
1629376342459,2057
1629376342463,2058
1629376342467,2057
1629376342471,2057
1629376342475,2057
1629376342479,2057
1629376342483,2058
1629376342487,2059
1629376342491,2059
1629376342495,2059
1629376342499,2059
1629376342503,2060
1629376342507,2060
1629376342511,2061
1629376342515,2061
1629376342519,2061
1629376342523,2061
1629376342527,2062
1629376342531,2063
1629376342535,2064
1629376342539,2066
1629376342543,2067
1629376342547,2068
1629376342551,2068
1629376342555,2068
1629376342559,2067
1629376342563,2066
1629376342567,2066
1629376342571,2066
1629376342575,2066
1629376342579,2065
1629376342583,2064
1629376342587,2063
1629376342591,2062
1629376342595,2060
1629376342599,2059
1629376342603,2057
1629376342607,2055
1629376342611,2054
1629376342615,2053
1629376342619,2053
1629376342623,2053
1629376342627,2052
1629376342631,2052
1629376342635,2050
1629376342639,2049
1629376342643,2049
1629376342647,2049
1629376342651,2049
1629376342655,2050
1629376342659,2051
1629376342663,2051
1629376342667,2051
1629376342671,2050
1629376342675,2050
1629376342679,2049
1629376342683,2049
1629376342687,2049
1629376342691,2049
1629376342695,2050
1629376342699,2050
1629376342703,2051
1629376342707,2051
1629376342711,2050
1629376342715,2050
1629376342719,2051
1629376342723,2051
1629376342727,2052
1629376342731,2052
1629376342735,2051
1629376342739,2051
1629376342743,2051
1629376342747,2051
1629376342751,2052
1629376342755,2052
1629376342759,2052
1629376342763,2052
1629376342767,2051
1629376342771,2051
1629376342775,2052
1629376342779,2052
1629376342783,2053
1629376342787,2053
1629376342791,2053
1629376342795,2053
1629376342799,2052
1629376342803,2051
1629376342807,2050
1629376342811,2050
1629376342815,2051
1629376342819,2051
1629376342823,2051
1629376342827,2052
1629376342831,2052
1629376342835,2051
1629376342839,2051
1629376342843,2050
1629376342847,2050
1629376342851,2050
1629376342855,2050
1629376342859,2051
1629376342863,2051
1629376342867,2051
1629376342871,2051
1629376342875,2051
1629376342879,2051
1629376342883,2051
1629376342887,2051
1629376342891,2050
1629376342895,2050
1629376342899,2051
1629376342903,2051
1629376342907,2052
1629376342911,2052
1629376342915,2051
1629376342919,2051
1629376342923,2051
1629376342927,2051
1629376342931,2051
1629376342935,2051
1629376342939,2051
1629376342943,2051
1629376342947,2051
1629376342951,2051
1629376342955,2051
1629376342959,2051
1629376342963,2051
1629376342967,2051
1629376342971,2051
1629376342975,2051
1629376342979,2052
1629376342983,2052
1629376342987,2052
1629376342991,2051
1629376342995,2051
1629376342999,2051
1629376343003,2050
1629376343007,2050
1629376343011,2051
1629376343015,2051
1629376343019,2052
1629376343023,2052
1629376343027,2052
1629376343031,2052
1629376343035,2052
1629376343039,2052
1629376343043,2051
1629376343047,2051
1629376343051,2051
1629376343055,2052
1629376343059,2052
1629376343063,2053
1629376343067,2053
1629376343071,2052
1629376343075,2051
1629376343079,2050
1629376343083,2050
1629376343087,2051
1629376343091,2052
1629376343095,2054
1629376343099,2055
1629376343103,2056
1629376343107,2056
1629376343111,2055
1629376343115,2055
1629376343119,2055
1629376343123,2056
1629376343127,2058
1629376343131,2059
1629376343135,2059
1629376343139,2059
1629376343143,2059
1629376343147,2058
1629376343151,2056
1629376343155,2055
1629376343159,2055
1629376343163,2054
1629376343167,2054
1629376343171,2053
1629376343175,2053
1629376343179,2052
1629376343183,2051
1629376343187,2051
1629376343191,2050
1629376343195,2050
1629376343199,2050
1629376343203,2050
1629376343207,2050
1629376343211,2050
1629376343215,2051
1629376343219,2051
1629376343223,2051
1629376343227,2051
1629376343231,2050
1629376343235,2049
1629376343239,2048
1629376343243,2046
1629376343247,2045
1629376343251,2048
1629376343255,2055
1629376343259,2068
1629376343263,2083
1629376343267,2096
1629376343271,2100
1629376343275,2094
1629376343279,2080
1629376343283,2064
1629376343287,2052
1629376343291,2047
1629376343295,2046
1629376343299,2048
1629376343303,2049
1629376343307,2050
1629376343311,2051
1629376343315,2051
1629376343319,2051
1629376343323,2050
1629376343327,2049
1629376343331,2049
1629376343335,2049
1629376343339,2051
1629376343343,2052
1629376343347,2053
1629376343351,2053
1629376343355,2052
1629376343359,2052
1629376343363,2051
1629376343367,2051
1629376343371,2051
1629376343375,2052
1629376343379,2053
1629376343383,2053
1629376343387,2054
1629376343391,2054
1629376343395,2053
1629376343399,2052
1629376343403,2052
1629376343407,2053
1629376343411,2053
1629376343415,2055
1629376343419,2055
1629376343423,2056
1629376343427,2055
1629376343431,2055
1629376343435,2054
1629376343439,2054
1629376343443,2055
1629376343447,2055
1629376343451,2056
1629376343455,2056
1629376343459,2057
1629376343463,2057
1629376343467,2058
1629376343471,2059
1629376343475,2060
1629376343479,2060
1629376343483,2060
1629376343487,2061
1629376343491,2061
1629376343495,2063
1629376343499,2065
1629376343503,2066
1629376343507,2067
1629376343511,2067
1629376343515,2067
1629376343519,2066
1629376343523,2065
1629376343527,2065
1629376343531,2066
1629376343535,2067
1629376343539,2067
1629376343543,2066
1629376343547,2065
1629376343551,2063
1629376343555,2061
1629376343559,2059
1629376343563,2058
1629376343567,2058
1629376343571,2057
1629376343575,2057
1629376343579,2056
1629376343583,2055
1629376343587,2054
1629376343591,2053
1629376343595,2052
1629376343599,2050
1629376343603,2049
1629376343607,2049
1629376343611,2050
1629376343615,2050
1629376343619,2051
1629376343623,2051
1629376343627,2051
1629376343631,2050
1629376343635,2049
1629376343639,2048
1629376343643,2048
1629376343647,2048
1629376343651,2049
1629376343655,2051
1629376343659,2052
1629376343663,2052
1629376343667,2052
1629376343671,2051
1629376343675,2051
1629376343679,2050
1629376343683,2050
1629376343687,2050
1629376343691,2050
1629376343695,2051
1629376343699,2052
1629376343703,2052
1629376343707,2053
1629376343711,2052
1629376343715,2052
1629376343719,2052
1629376343723,2052
1629376343727,2053
1629376343731,2053
1629376343735,2053
1629376343739,2053
1629376343743,2053
1629376343747,2053
1629376343751,2053
1629376343755,2053
1629376343759,2053
1629376343763,2053
1629376343767,2053
1629376343771,2053
1629376343775,2053
1629376343779,2053
1629376343783,2053
1629376343787,2052
1629376343791,2051
1629376343795,2051
1629376343799,2050
1629376343803,2050
1629376343807,2051
1629376343811,2052
1629376343815,2053
1629376343819,2053
1629376343823,2053
1629376343827,2052
1629376343831,2052
1629376343835,2051
1629376343839,2051
1629376343843,2051
1629376343847,2051
1629376343851,2051
1629376343855,2052
1629376343859,2052
1629376343863,2052
1629376343867,2053
1629376343871,2053
1629376343875,2053
1629376343879,2052
1629376343883,2052
1629376343887,2051
1629376343891,2051
1629376343895,2052
1629376343899,2053
1629376343903,2054
1629376343907,2054
1629376343911,2054
1629376343915,2052
1629376343919,2051
1629376343923,2050
1629376343927,2051
1629376343931,2052
1629376343935,2053
1629376343939,2054
1629376343943,2055
1629376343947,2054
1629376343951,2054
1629376343955,2053
1629376343959,2053
1629376343963,2052
1629376343967,2052
1629376343971,2052
1629376343975,2052
1629376343979,2053
1629376343983,2053
1629376343987,2053
1629376343991,2053
1629376343995,2053
1629376343999,2053
1629376344003,2052
1629376344007,2052
1629376344011,2052
1629376344015,2053
1629376344019,2055
1629376344023,2055
1629376344027,2055
1629376344031,2054
1629376344035,2053
1629376344039,2052
1629376344043,2051
1629376344047,2052
1629376344051,2052
1629376344055,2053
1629376344059,2054
1629376344063,2054
1629376344067,2054
1629376344071,2054
1629376344075,2054
1629376344079,2054
1629376344083,2055
1629376344087,2055
1629376344091,2055
1629376344095,2056
1629376344099,2056
1629376344103,2058
1629376344107,2059
1629376344111,2060
1629376344115,2061
1629376344119,2061
1629376344123,2061
1629376344127,2060
1629376344131,2059
1629376344135,2058
1629376344139,2057
1629376344143,2057
1629376344147,2057
1629376344151,2057
1629376344155,2057
1629376344159,2057
1629376344163,2056
1629376344167,2055
1629376344171,2054
1629376344175,2053
1629376344179,2053
1629376344183,2053
1629376344187,2052
1629376344191,2052
1629376344195,2052
1629376344199,2052
1629376344203,2052
1629376344207,2052
1629376344211,2052
1629376344215,2053
1629376344219,2053
1629376344223,2053
1629376344227,2051
1629376344231,2048
1629376344235,2046
1629376344239,2044
1629376344243,2047
1629376344247,2057
1629376344251,2073
1629376344255,2089
1629376344259,2100
1629376344263,2101
1629376344267,2091
1629376344271,2076
1629376344275,2061
1629376344279,2050
1629376344283,2047
1629376344287,2047
1629376344291,2049
1629376344295,2052
1629376344299,2054
1629376344303,2055
1629376344307,2054
1629376344311,2053
1629376344315,2052
1629376344319,2052
1629376344323,2052
1629376344327,2052
1629376344331,2053
1629376344335,2053
1629376344339,2053
1629376344343,2053
1629376344347,2053
1629376344351,2053
1629376344355,2053
1629376344359,2053
1629376344363,2053
1629376344367,2053
1629376344371,2053
1629376344375,2053
1629376344379,2053
1629376344383,2054
1629376344387,2055
1629376344391,2055
1629376344395,2055
1629376344399,2055
1629376344403,2054
1629376344407,2054
1629376344411,2054
1629376344415,2055
1629376344419,2056
1629376344423,2057
1629376344427,2057
1629376344431,2057
1629376344435,2058
1629376344439,2058
1629376344443,2058
1629376344447,2058
1629376344451,2059
1629376344455,2059
1629376344459,2060
1629376344463,2061
1629376344467,2062
1629376344471,2063
1629376344475,2063
1629376344479,2063
1629376344483,2063
1629376344487,2062
1629376344491,2063
1629376344495,2064
1629376344499,2066
1629376344503,2067
1629376344507,2068
1629376344511,2068
1629376344515,2068
1629376344519,2067
1629376344523,2067
1629376344527,2068
1629376344531,2068
1629376344535,2067
1629376344539,2067
1629376344543,2065
1629376344547,2064
1629376344551,2062
1629376344555,2060
1629376344559,2058
1629376344563,2057
1629376344567,2056
1629376344571,2055
1629376344575,2054
1629376344579,2053
1629376344583,2053
1629376344587,2053
1629376344591,2053
1629376344595,2052
1629376344599,2051
1629376344603,2050
1629376344607,2049
1629376344611,2049
1629376344615,2050
1629376344619,2051
1629376344623,2052
1629376344627,2051
1629376344631,2051
1629376344635,2050
1629376344639,2050
1629376344643,2050
1629376344647,2050
1629376344651,2050
1629376344655,2051
1629376344659,2051
1629376344663,2052
1629376344667,2052
1629376344671,2052
1629376344675,2053
1629376344679,2053
1629376344683,2052
1629376344687,2052
1629376344691,2051
1629376344695,2051
1629376344699,2051
1629376344703,2052
1629376344707,2053
1629376344711,2053
1629376344715,2053
1629376344719,2053
1629376344723,2052
1629376344727,2051
1629376344731,2050
1629376344735,2051
1629376344739,2051
1629376344743,2052
1629376344747,2052
1629376344751,2052
1629376344755,2052
1629376344759,2052
1629376344763,2052
1629376344767,2052
1629376344771,2052
1629376344775,2052
1629376344779,2052
1629376344783,2052
1629376344787,2052
1629376344791,2053
1629376344795,2053
1629376344799,2053
1629376344803,2052
1629376344807,2052
1629376344811,2051
1629376344815,2052
1629376344819,2052
1629376344823,2053
1629376344827,2053
1629376344831,2052
1629376344835,2052
1629376344839,2051
1629376344843,2051
1629376344847,2052
1629376344851,2052
1629376344855,2052
1629376344859,2052
1629376344863,2052
1629376344867,2052
1629376344871,2052
1629376344875,2052
1629376344879,2052
1629376344883,2052
1629376344887,2052
1629376344891,2052
1629376344895,2052
1629376344899,2052
1629376344903,2052
1629376344907,2052
1629376344911,2053
1629376344915,2053
1629376344919,2053
1629376344923,2053
1629376344927,2053
1629376344931,2053
1629376344935,2054
1629376344939,2054
1629376344943,2054
1629376344947,2054
1629376344951,2053
1629376344955,2053
1629376344959,2053
1629376344963,2052
1629376344967,2052
1629376344971,2052
1629376344975,2053
1629376344979,2053
1629376344983,2054
1629376344987,2055
1629376344991,2054
1629376344995,2054
1629376344999,2052
1629376345003,2051
1629376345007,2051
1629376345011,2051
1629376345015,2053
1629376345019,2054
1629376345023,2055
1629376345027,2055
1629376345031,2055
1629376345035,2055
1629376345039,2055
1629376345043,2056
1629376345047,2056
1629376345051,2056
1629376345055,2057
1629376345059,2058
1629376345063,2059
1629376345067,2060
1629376345071,2060
1629376345075,2059
1629376345079,2058
1629376345083,2057
1629376345087,2056
1629376345091,2056
1629376345095,2056
1629376345099,2056
1629376345103,2055
1629376345107,2055
1629376345111,2054
1629376345115,2053
1629376345119,2052
1629376345123,2052
1629376345127,2051
1629376345131,2051
1629376345135,2051
1629376345139,2052
1629376345143,2052
1629376345147,2052
1629376345151,2051
1629376345155,2051
1629376345159,2051
1629376345163,2051
1629376345167,2050
1629376345171,2049
1629376345175,2048
1629376345179,2046
1629376345183,2044
1629376345187,2046
1629376345191,2053
1629376345195,2068
1629376345199,2084
1629376345203,2097
1629376345207,2101
1629376345211,2095
1629376345215,2082
1629376345219,2067
1629376345223,2055
1629376345227,2048
1629376345231,2046
1629376345235,2047
1629376345239,2048
1629376345243,2050
1629376345247,2052
1629376345251,2052
1629376345255,2053
1629376345259,2053
1629376345263,2053
1629376345267,2053
1629376345271,2053
1629376345275,2052
1629376345279,2051
1629376345283,2051
1629376345287,2051
1629376345291,2052
1629376345295,2053
1629376345299,2053
1629376345303,2054
1629376345307,2054
1629376345311,2055
1629376345315,2055
1629376345319,2054
1629376345323,2053
1629376345327,2052
1629376345331,2052
1629376345335,2052
1629376345339,2053
1629376345343,2054
1629376345347,2055
1629376345351,2056
1629376345355,2057
1629376345359,2057
1629376345363,2057
1629376345367,2056
1629376345371,2055
1629376345375,2055
1629376345379,2056
1629376345383,2057
1629376345387,2058
1629376345391,2059
1629376345395,2059
1629376345399,2059
1629376345403,2059
1629376345407,2059
1629376345411,2059
1629376345415,2060
1629376345419,2061
1629376345423,2063
1629376345427,2063
1629376345431,2063
1629376345435,2063
1629376345439,2063
1629376345443,2064
1629376345447,2065
1629376345451,2066
1629376345455,2067
1629376345459,2068
1629376345463,2067
1629376345467,2067
1629376345471,2066
1629376345475,2065
1629376345479,2065
1629376345483,2064
1629376345487,2063
1629376345491,2061
1629376345495,2060
1629376345499,2060
1629376345503,2059
1629376345507,2058
1629376345511,2057
1629376345515,2055
1629376345519,2053
1629376345523,2052
1629376345527,2051
1629376345531,2050
1629376345535,2051
1629376345539,2051
1629376345543,2051
1629376345547,2051
1629376345551,2050
1629376345555,2049
1629376345559,2048
1629376345563,2048
1629376345567,2048
1629376345571,2048
1629376345575,2048
1629376345579,2049
1629376345583,2049
1629376345587,2050
1629376345591,2050
1629376345595,2049
1629376345599,2049
1629376345603,2049
1629376345607,2049
1629376345611,2049
1629376345615,2050
1629376345619,2050
1629376345623,2050
1629376345627,2050
1629376345631,2050
1629376345635,2050
1629376345639,2051
1629376345643,2051
1629376345647,2051
1629376345651,2050
1629376345655,2050
1629376345659,2050
1629376345663,2051
1629376345667,2051
1629376345671,2051
1629376345675,2051
1629376345679,2051
1629376345683,2050
1629376345687,2050
1629376345691,2050
1629376345695,2051
1629376345699,2051
1629376345703,2052
1629376345707,2052
1629376345711,2052
1629376345715,2051
1629376345719,2050
1629376345723,2050
1629376345727,2050
1629376345731,2050
1629376345735,2051
1629376345739,2051
1629376345743,2051
1629376345747,2050
1629376345751,2050
1629376345755,2050
1629376345759,2050
1629376345763,2050
1629376345767,2050
1629376345771,2050
1629376345775,2050
1629376345779,2050
1629376345783,2050
1629376345787,2050
1629376345791,2050
1629376345795,2050
1629376345799,2050
1629376345803,2051
1629376345807,2051
1629376345811,2051
1629376345815,2050
1629376345819,2050
1629376345823,2050
1629376345827,2050
1629376345831,2050
1629376345835,2050
1629376345839,2049
1629376345843,2049
1629376345847,2050
1629376345851,2050
1629376345855,2050
1629376345859,2051
1629376345863,2051
1629376345867,2051
1629376345871,2050
1629376345875,2050
1629376345879,2050
1629376345883,2050
1629376345887,2050
1629376345891,2050
1629376345895,2050
1629376345899,2050
1629376345903,2050
1629376345907,2050
1629376345911,2050
1629376345915,2050
1629376345919,2050
1629376345923,2050
1629376345927,2050
1629376345931,2050
1629376345935,2051
1629376345939,2051
1629376345943,2051
1629376345947,2051
1629376345951,2051
1629376345955,2051
1629376345959,2050
1629376345963,2050
1629376345967,2050
1629376345971,2050
1629376345975,2050
1629376345979,2050
1629376345983,2051
1629376345987,2052
1629376345991,2053
1629376345995,2054
1629376345999,2054
1629376346003,2053
1629376346007,2053
1629376346011,2053
1629376346015,2053
1629376346019,2055
1629376346023,2056
1629376346027,2057
1629376346031,2057
1629376346035,2057
1629376346039,2057
1629376346043,2056
1629376346047,2056
1629376346051,2055
1629376346055,2055
1629376346059,2056
1629376346063,2056
1629376346067,2055
1629376346071,2053
1629376346075,2052
1629376346079,2050
1629376346083,2049
1629376346087,2049
1629376346091,2049
1629376346095,2050
1629376346099,2050
1629376346103,2050
1629376346107,2050
1629376346111,2050
1629376346115,2049
1629376346119,2048
1629376346123,2048
1629376346127,2048
1629376346131,2048
1629376346135,2048
1629376346139,2047
1629376346143,2046
1629376346147,2044
1629376346151,2045
1629376346155,2050
1629376346159,2062
1629376346163,2077
1629376346167,2092
1629376346171,2099
1629376346175,2096
1629376346179,2084
1629376346183,2069
1629376346187,2055
1629376346191,2047
1629376346195,2044
1629376346199,2045
1629376346203,2047
1629376346207,2048
1629376346211,2050
1629376346215,2051
1629376346219,2052
1629376346223,2052
1629376346227,2052
1629376346231,2052
1629376346235,2051
1629376346239,2050
1629376346243,2049
1629376346247,2048
1629376346251,2049
1629376346255,2050
1629376346259,2050
1629376346263,2051
1629376346267,2052
1629376346271,2052
1629376346275,2052
1629376346279,2052
1629376346283,2052
1629376346287,2052
1629376346291,2052
1629376346295,2053
1629376346299,2053
1629376346303,2052
1629376346307,2052
1629376346311,2053
1629376346315,2053
1629376346319,2053
1629376346323,2054
1629376346327,2054
1629376346331,2054
1629376346335,2054
1629376346339,2054
1629376346343,2055
1629376346347,2055
1629376346351,2056
1629376346355,2056
1629376346359,2057
1629376346363,2057
1629376346367,2058
1629376346371,2058
1629376346375,2059
1629376346379,2060
1629376346383,2061
1629376346387,2062
1629376346391,2062
1629376346395,2062
1629376346399,2062
1629376346403,2062
1629376346407,2062
1629376346411,2063
1629376346415,2065
1629376346419,2066
1629376346423,2066
1629376346427,2066
1629376346431,2065
1629376346435,2064
1629376346439,2063
1629376346443,2063
1629376346447,2062
1629376346451,2061
1629376346455,2061
1629376346459,2060
1629376346463,2059
1629376346467,2058
1629376346471,2056
1629376346475,2055
1629376346479,2053
1629376346483,2052
1629376346487,2051
1629376346491,2050
1629376346495,2050
1629376346499,2050
1629376346503,2050
1629376346507,2050
1629376346511,2049
1629376346515,2048
1629376346519,2047
1629376346523,2047
1629376346527,2047
1629376346531,2047
1629376346535,2048
1629376346539,2048
1629376346543,2048
1629376346547,2048
1629376346551,2048
1629376346555,2048
1629376346559,2048
1629376346563,2048
1629376346567,2048
1629376346571,2048
1629376346575,2049
1629376346579,2049
1629376346583,2050
1629376346587,2050
1629376346591,2050
1629376346595,2050
1629376346599,2049
1629376346603,2049
1629376346607,2049
1629376346611,2049
1629376346615,2049
1629376346619,2050
1629376346623,2051
1629376346627,2051
1629376346631,2051
1629376346635,2051
1629376346639,2050
1629376346643,2050
1629376346647,2051
1629376346651,2051
1629376346655,2051
1629376346659,2052
1629376346663,2052
1629376346667,2052
1629376346671,2052
1629376346675,2051
1629376346679,2050
1629376346683,2050
1629376346687,2050
1629376346691,2050
1629376346695,2050
1629376346699,2051
1629376346703,2051
1629376346707,2051
1629376346711,2050
1629376346715,2050
1629376346719,2049
1629376346723,2049
1629376346727,2050
1629376346731,2050
1629376346735,2051
1629376346739,2051
1629376346743,2052
1629376346747,2052
1629376346751,2052
1629376346755,2051
1629376346759,2050
1629376346763,2050
1629376346767,2050
1629376346771,2050
1629376346775,2050
1629376346779,2050
1629376346783,2051
1629376346787,2052
1629376346791,2052
1629376346795,2052
1629376346799,2051
1629376346803,2051
1629376346807,2050
1629376346811,2050
1629376346815,2051
1629376346819,2051
1629376346823,2051
1629376346827,2051
1629376346831,2051
1629376346835,2051
1629376346839,2051
1629376346843,2051
1629376346847,2052
1629376346851,2053
1629376346855,2053
1629376346859,2053
1629376346863,2052
1629376346867,2051
1629376346871,2050
1629376346875,2050
1629376346879,2051
1629376346883,2052
1629376346887,2052
1629376346891,2053
1629376346895,2052
1629376346899,2052
1629376346903,2052
1629376346907,2051
1629376346911,2052
1629376346915,2052
1629376346919,2052
1629376346923,2053
1629376346927,2053
1629376346931,2052
1629376346935,2052
1629376346939,2052
1629376346943,2053
1629376346947,2053
1629376346951,2053
1629376346955,2053
1629376346959,2052
1629376346963,2052
1629376346967,2052
1629376346971,2052
1629376346975,2052
1629376346979,2052
1629376346983,2053
1629376346987,2055
1629376346991,2056
1629376346995,2056
1629376346999,2056
1629376347003,2056
1629376347007,2055
1629376347011,2055
1629376347015,2056
1629376347019,2057
1629376347023,2059
1629376347027,2060
1629376347031,2061
1629376347035,2060
1629376347039,2058
1629376347043,2057
1629376347047,2055
1629376347051,2055
1629376347055,2055
1629376347059,2056
1629376347063,2056
1629376347067,2055
1629376347071,2054
1629376347075,2052
1629376347079,2051
1629376347083,2051
1629376347087,2051
1629376347091,2051
1629376347095,2052
1629376347099,2052
1629376347103,2051
1629376347107,2051
1629376347111,2050
1629376347115,2050
1629376347119,2050
1629376347123,2050
1629376347127,2050
1629376347131,2050
1629376347135,2048
1629376347139,2047
1629376347143,2045
1629376347147,2045
1629376347151,2050
1629376347155,2063
1629376347159,2079
1629376347163,2093
1629376347167,2099
1629376347171,2095
1629376347175,2082
1629376347179,2067
1629376347183,2055
1629376347187,2048
1629376347191,2047
1629376347195,2048
1629376347199,2049
1629376347203,2051
1629376347207,2052
1629376347211,2052
1629376347215,2052
1629376347219,2051
1629376347223,2051
1629376347227,2051
1629376347231,2052
1629376347235,2052
1629376347239,2052
1629376347243,2052
1629376347247,2052
1629376347251,2052
1629376347255,2052
1629376347259,2052
1629376347263,2052
1629376347267,2052
1629376347271,2052
1629376347275,2052
1629376347279,2052
1629376347283,2052
1629376347287,2052
1629376347291,2052
1629376347295,2053
1629376347299,2054
1629376347303,2055
1629376347307,2055
1629376347311,2055
1629376347315,2054
1629376347319,2054
1629376347323,2054
1629376347327,2055
1629376347331,2057
1629376347335,2057
1629376347339,2057
1629376347343,2057
1629376347347,2056
1629376347351,2056
1629376347355,2057
1629376347359,2057
1629376347363,2058
1629376347367,2059
1629376347371,2060
1629376347375,2060
1629376347379,2061
1629376347383,2062
1629376347387,2063
1629376347391,2063
1629376347395,2063
1629376347399,2063
1629376347403,2063
1629376347407,2063
1629376347411,2063
1629376347415,2064
1629376347419,2065
1629376347423,2066
1629376347427,2067
1629376347431,2067
1629376347435,2067
1629376347439,2066
1629376347443,2065
1629376347447,2064
1629376347451,2062
1629376347455,2061
1629376347459,2059
1629376347463,2058
1629376347467,2057
1629376347471,2056
1629376347475,2055
1629376347479,2053
1629376347483,2052
1629376347487,2050
1629376347491,2049
1629376347495,2049
1629376347499,2049
1629376347503,2049
1629376347507,2049
1629376347511,2048
1629376347515,2048
1629376347519,2048
1629376347523,2048
1629376347527,2049
1629376347531,2050
1629376347535,2050
1629376347539,2050
1629376347543,2049
1629376347547,2048
1629376347551,2048
1629376347555,2048
1629376347559,2048
1629376347563,2048
1629376347567,2048
1629376347571,2048
1629376347575,2048
1629376347579,2048
1629376347583,2049
1629376347587,2049
1629376347591,2049
1629376347595,2049
1629376347599,2050
1629376347603,2050
1629376347607,2051
1629376347611,2051
1629376347615,2051
1629376347619,2050
1629376347623,2050
1629376347627,2050
1629376347631,2050
1629376347635,2050
1629376347639,2051
1629376347643,2051
1629376347647,2051
1629376347651,2051
1629376347655,2051
1629376347659,2051
1629376347663,2052
1629376347667,2052
1629376347671,2051
1629376347675,2051
1629376347679,2051
1629376347683,2050
1629376347687,2050
1629376347691,2050
1629376347695,2050
1629376347699,2051
1629376347703,2051
1629376347707,2050
1629376347711,2049
1629376347715,2049
1629376347719,2048
1629376347723,2048
1629376347727,2048
1629376347731,2049
1629376347735,2049
1629376347739,2049
1629376347743,2050
1629376347747,2050
1629376347751,2050
1629376347755,2050
1629376347759,2050
1629376347763,2050
1629376347767,2050
1629376347771,2051
1629376347775,2052
1629376347779,2052
1629376347783,2052
1629376347787,2052
1629376347791,2052
1629376347795,2052
1629376347799,2052
1629376347803,2052
1629376347807,2051
1629376347811,2050
1629376347815,2050
1629376347819,2049
1629376347823,2049
1629376347827,2050
1629376347831,2051
1629376347835,2051
1629376347839,2051
1629376347843,2051
1629376347847,2051
1629376347851,2051
1629376347855,2052
1629376347859,2052
1629376347863,2052
1629376347867,2052
1629376347871,2051
1629376347875,2051
1629376347879,2051
1629376347883,2052
1629376347887,2052
1629376347891,2052
1629376347895,2052
1629376347899,2051
1629376347903,2052
1629376347907,2053
1629376347911,2055
1629376347915,2056
1629376347919,2056
1629376347923,2054
1629376347927,2051
1629376347931,2050
1629376347935,2051
1629376347939,2053
1629376347943,2055
1629376347947,2057
1629376347951,2057
1629376347955,2054
1629376347959,2052
1629376347963,2050
1629376347967,2051
1629376347971,2052
1629376347975,2054
1629376347979,2055
1629376347983,2054
1629376347987,2053
1629376347991,2051
1629376347995,2051
1629376347999,2050
1629376348003,2051
1629376348007,2053
1629376348011,2056
1629376348015,2060
1629376348019,2062
1629376348023,2063
1629376348027,2061
1629376348031,2058
1629376348035,2057
1629376348039,2057
1629376348043,2057
1629376348047,2058
1629376348051,2057
1629376348055,2057
1629376348059,2057
1629376348063,2057
1629376348067,2058
1629376348071,2060
1629376348075,2060
1629376348079,2060
1629376348083,2059
1629376348087,2058
1629376348091,2057
1629376348095,2058
1629376348099,2058
1629376348103,2059
1629376348107,2057
1629376348111,2054
1629376348115,2050
1629376348119,2048
1629376348123,2047
1629376348127,2048
1629376348131,2049
1629376348135,2054
1629376348139,2057
1629376348143,2058
1629376348147,2057
1629376348151,2054
1629376348155,2050
1629376348159,2048
1629376348163,2049
1629376348167,2058
1629376348171,2070
1629376348175,2085
1629376348179,2095
1629376348183,2098
1629376348187,2092
1629376348191,2081
1629376348195,2069
1629376348199,2058
1629376348203,2052
1629376348207,2050
1629376348211,2050
1629376348215,2051
1629376348219,2051
1629376348223,2052
1629376348227,2054
1629376348231,2056
1629376348235,2057
1629376348239,2058
1629376348243,2057
1629376348247,2056
1629376348251,2054
1629376348255,2054
1629376348259,2054
1629376348263,2055
1629376348267,2055
1629376348271,2055
1629376348275,2055
1629376348279,2054
1629376348283,2055
1629376348287,2055
1629376348291,2055
1629376348295,2054
1629376348299,2054
1629376348303,2054
1629376348307,2055
1629376348311,2056
1629376348315,2057
1629376348319,2057
1629376348323,2057
1629376348327,2058
1629376348331,2059
1629376348335,2060
1629376348339,2060
1629376348343,2059
1629376348347,2059
1629376348351,2059
1629376348355,2059
1629376348359,2059
1629376348363,2059
1629376348367,2059
1629376348371,2060
1629376348375,2061
1629376348379,2062
1629376348383,2063
1629376348387,2064
1629376348391,2064
1629376348395,2064
1629376348399,2065
1629376348403,2065
1629376348407,2065
1629376348411,2065
1629376348415,2064
1629376348419,2064
1629376348423,2064
1629376348427,2065
1629376348431,2065
1629376348435,2065
1629376348439,2065
1629376348443,2065
1629376348447,2065
1629376348451,2065
1629376348455,2065
1629376348459,2064
1629376348463,2064
1629376348467,2063
1629376348471,2063
1629376348475,2062
1629376348479,2060
1629376348483,2058
1629376348487,2057
1629376348491,2056
1629376348495,2055
1629376348499,2054
1629376348503,2052
1629376348507,2051
1629376348511,2050
1629376348515,2050
1629376348519,2051
1629376348523,2052
1629376348527,2052
1629376348531,2050
1629376348535,2048
1629376348539,2045
1629376348543,2044
1629376348547,2045
1629376348551,2048
1629376348555,2051
1629376348559,2053
1629376348563,2053
1629376348567,2052
1629376348571,2051
1629376348575,2051
1629376348579,2051
1629376348583,2052
1629376348587,2052
1629376348591,2051
1629376348595,2050
1629376348599,2049
1629376348603,2049
1629376348607,2050
1629376348611,2050
1629376348615,2051
1629376348619,2050
1629376348623,2050
1629376348627,2051
1629376348631,2052
1629376348635,2053
1629376348639,2054
1629376348643,2054
1629376348647,2053
1629376348651,2052
1629376348655,2051
1629376348659,2050
1629376348663,2048
1629376348667,2048
1629376348671,2048
1629376348675,2049
1629376348679,2051
1629376348683,2053
1629376348687,2056
1629376348691,2057
1629376348695,2056
1629376348699,2054
1629376348703,2051
1629376348707,2050
1629376348711,2049
1629376348715,2050
1629376348719,2050
1629376348723,2050
1629376348727,2050
1629376348731,2051
1629376348735,2052
1629376348739,2052
1629376348743,2052
1629376348747,2052
1629376348751,2051
1629376348755,2051
1629376348759,2051
1629376348763,2051
1629376348767,2052
1629376348771,2052
1629376348775,2053
1629376348779,2054
1629376348783,2053
1629376348787,2053
1629376348791,2052
1629376348795,2051
1629376348799,2051
1629376348803,2052
1629376348807,2052
1629376348811,2052
1629376348815,2052
1629376348819,2050
1629376348823,2049
1629376348827,2048
1629376348831,2048
1629376348835,2050
1629376348839,2053
1629376348843,2056
1629376348847,2057
1629376348851,2057
1629376348855,2055
1629376348859,2053
1629376348863,2053
1629376348867,2053
1629376348871,2053
1629376348875,2052
1629376348879,2052
1629376348883,2051
1629376348887,2052
1629376348891,2052
1629376348895,2053
1629376348899,2053
1629376348903,2053
1629376348907,2054
1629376348911,2054
1629376348915,2054
1629376348919,2053
1629376348923,2051
1629376348927,2050
1629376348931,2050
1629376348935,2052
1629376348939,2053
1629376348943,2055
1629376348947,2055
1629376348951,2054
1629376348955,2053
1629376348959,2052
1629376348963,2052
1629376348967,2053
1629376348971,2053
1629376348975,2054
1629376348979,2055
1629376348983,2055
1629376348987,2055
1629376348991,2054
1629376348995,2054
1629376348999,2054
1629376349003,2054
1629376349007,2054
1629376349011,2054
1629376349015,2055
1629376349019,2056
1629376349023,2057
1629376349027,2057
1629376349031,2058
1629376349035,2059
1629376349039,2060
1629376349043,2060
1629376349047,2060
1629376349051,2060
1629376349055,2059
1629376349059,2059
1629376349063,2058
1629376349067,2058
1629376349071,2058
1629376349075,2058
1629376349079,2058
1629376349083,2057
1629376349087,2056
1629376349091,2054
1629376349095,2052
1629376349099,2050
1629376349103,2050
1629376349107,2051
1629376349111,2053
1629376349115,2054
1629376349119,2054
1629376349123,2053
1629376349127,2051
1629376349131,2050
1629376349135,2051
1629376349139,2051
1629376349143,2052
1629376349147,2052
1629376349151,2051
1629376349155,2049
1629376349159,2047
1629376349163,2045
1629376349167,2046
1629376349171,2052
1629376349175,2066
1629376349179,2083
1629376349183,2097
1629376349187,2103
1629376349191,2097
1629376349195,2083
1629376349199,2067
1629376349203,2054
1629376349207,2048
1629376349211,2046
1629376349215,2048
1629376349219,2048
1629376349223,2050
1629376349227,2051
1629376349231,2052
1629376349235,2053
1629376349239,2053
1629376349243,2054
1629376349247,2054
1629376349251,2054
1629376349255,2054
1629376349259,2053
1629376349263,2053
1629376349267,2052
1629376349271,2052
1629376349275,2052
1629376349279,2052
1629376349283,2052
1629376349287,2052
1629376349291,2053
1629376349295,2053
1629376349299,2054
1629376349303,2055
1629376349307,2056
1629376349311,2056
1629376349315,2055
1629376349319,2053
1629376349323,2052
1629376349327,2052
1629376349331,2052
1629376349335,2055
1629376349339,2057
1629376349343,2059
1629376349347,2059
1629376349351,2058
1629376349355,2056
1629376349359,2055
1629376349363,2055
1629376349367,2056
1629376349371,2057
1629376349375,2058
1629376349379,2059
1629376349383,2059
1629376349387,2060
1629376349391,2061
1629376349395,2061
1629376349399,2061
1629376349403,2061
1629376349407,2062
1629376349411,2063
1629376349415,2065
1629376349419,2066
1629376349423,2066
1629376349427,2066
1629376349431,2067
1629376349435,2068
1629376349439,2069
1629376349443,2070
1629376349447,2069
1629376349451,2067
1629376349455,2066
1629376349459,2065
1629376349463,2065
1629376349467,2065
1629376349471,2065
1629376349475,2064
1629376349479,2062
1629376349483,2059
1629376349487,2057
1629376349491,2055
1629376349495,2054
1629376349499,2054
1629376349503,2055
1629376349507,2054
1629376349511,2053
1629376349515,2051
1629376349519,2049
1629376349523,2049
1629376349527,2049
1629376349531,2050
1629376349535,2050
1629376349539,2049
1629376349543,2048
1629376349547,2048
1629376349551,2048
1629376349555,2049
1629376349559,2050
1629376349563,2050
1629376349567,2050
1629376349571,2049
1629376349575,2048
1629376349579,2049
1629376349583,2049
1629376349587,2050
1629376349591,2050
1629376349595,2050
1629376349599,2050
1629376349603,2050
1629376349607,2050
1629376349611,2050
1629376349615,2050
1629376349619,2051
1629376349623,2052
1629376349627,2053
1629376349631,2054
1629376349635,2052
1629376349639,2050
1629376349643,2048
1629376349647,2048
1629376349651,2048
1629376349655,2049
1629376349659,2050
1629376349663,2051
1629376349667,2051
1629376349671,2051
1629376349675,2051
1629376349679,2051
1629376349683,2051
1629376349687,2051
1629376349691,2050
1629376349695,2050
1629376349699,2049
1629376349703,2049
1629376349707,2048
1629376349711,2049
1629376349715,2049
1629376349719,2049
1629376349723,2048
1629376349727,2048
1629376349731,2048
1629376349735,2048
1629376349739,2049
1629376349743,2050
1629376349747,2051
1629376349751,2051
1629376349755,2050
1629376349759,2050
1629376349763,2049
1629376349767,2048
1629376349771,2048
1629376349775,2049
1629376349779,2049
1629376349783,2049
1629376349787,2050
1629376349791,2049
1629376349795,2049
1629376349799,2048
1629376349803,2048
1629376349807,2049
1629376349811,2050
1629376349815,2050
1629376349819,2051
1629376349823,2051
1629376349827,2051
1629376349831,2050
1629376349835,2050
1629376349839,2049
1629376349843,2048
1629376349847,2048
1629376349851,2048
1629376349855,2048
1629376349859,2049
1629376349863,2050
1629376349867,2050
1629376349871,2049
1629376349875,2049
1629376349879,2048
1629376349883,2049
1629376349887,2049
1629376349891,2049
1629376349895,2050
1629376349899,2050
1629376349903,2050
1629376349907,2050
1629376349911,2050
1629376349915,2050
1629376349919,2049
1629376349923,2049
1629376349927,2049
1629376349931,2049
1629376349935,2050
1629376349939,2051
1629376349943,2051
1629376349947,2052
1629376349951,2052
1629376349955,2052
1629376349959,2051
1629376349963,2051
1629376349967,2051
1629376349971,2052
1629376349975,2053
1629376349979,2054
1629376349983,2055
1629376349987,2055
1629376349991,2054
1629376349995,2054
1629376349999,2055
1629376350003,2055
1629376350007,2056
1629376350011,2056
1629376350015,2056
1629376350019,2056
1629376350023,2056
1629376350027,2055
1629376350031,2055
1629376350035,2055
1629376350039,2055
1629376350043,2054
1629376350047,2054
1629376350051,2053
1629376350055,2052
1629376350059,2051
1629376350063,2051
1629376350067,2050
1629376350071,2049
1629376350075,2049
1629376350079,2049
1629376350083,2049
1629376350087,2049
1629376350091,2050
1629376350095,2050
1629376350099,2051
1629376350103,2050
1629376350107,2050
1629376350111,2048
1629376350115,2047
1629376350119,2045
1629376350123,2042
1629376350127,2042
1629376350131,2048
1629376350135,2059
1629376350139,2075
1629376350143,2091
1629376350147,2100
1629376350151,2098
1629376350155,2088
1629376350159,2072
1629376350163,2057
1629376350167,2048
1629376350171,2045
1629376350175,2046
1629376350179,2048
1629376350183,2049
1629376350187,2051
1629376350191,2052
1629376350195,2053
1629376350199,2052
1629376350203,2052
1629376350207,2051
1629376350211,2051
1629376350215,2051
1629376350219,2051
1629376350223,2051
1629376350227,2051
1629376350231,2051
1629376350235,2051
1629376350239,2050
1629376350243,2050
1629376350247,2050
1629376350251,2051
1629376350255,2052
1629376350259,2053
1629376350263,2053
1629376350267,2054
1629376350271,2054
1629376350275,2054
1629376350279,2053
1629376350283,2052
1629376350287,2052
1629376350291,2053
1629376350295,2054
1629376350299,2055
1629376350303,2055
1629376350307,2056
1629376350311,2056
1629376350315,2055
1629376350319,2055
1629376350323,2056
1629376350327,2056
1629376350331,2057
1629376350335,2058
1629376350339,2058
1629376350343,2059
1629376350347,2059
1629376350351,2060
1629376350355,2060
1629376350359,2060
1629376350363,2060
1629376350367,2061
1629376350371,2062
1629376350375,2063
1629376350379,2065
1629376350383,2066
1629376350387,2066
1629376350391,2066
1629376350395,2065
1629376350399,2065
1629376350403,2065
1629376350407,2065
1629376350411,2065
1629376350415,2066
1629376350419,2066
1629376350423,2066
1629376350427,2065
1629376350431,2063
1629376350435,2060
1629376350439,2058
1629376350443,2056
1629376350447,2055
1629376350451,2054
1629376350455,2054
1629376350459,2053
1629376350463,2053
1629376350467,2051
1629376350471,2049
1629376350475,2048
1629376350479,2048
1629376350483,2048
1629376350487,2048
1629376350491,2048
1629376350495,2048
1629376350499,2048
1629376350503,2048
1629376350507,2048
1629376350511,2047
1629376350515,2047
1629376350519,2047
1629376350523,2048
1629376350527,2048
1629376350531,2048
1629376350535,2048
1629376350539,2048
1629376350543,2048
1629376350547,2048
1629376350551,2048
1629376350555,2048
1629376350559,2048
1629376350563,2048
1629376350567,2048
1629376350571,2048
1629376350575,2050
1629376350579,2051
1629376350583,2051
1629376350587,2052
1629376350591,2052
1629376350595,2051
1629376350599,2050
1629376350603,2050
1629376350607,2050
1629376350611,2050
1629376350615,2051
1629376350619,2051
1629376350623,2052
1629376350627,2051
1629376350631,2051
1629376350635,2050
1629376350639,2050
1629376350643,2050
1629376350647,2050
1629376350651,2050
1629376350655,2051
1629376350659,2051
1629376350663,2051
1629376350667,2051
1629376350671,2050
1629376350675,2050
1629376350679,2049
1629376350683,2049
1629376350687,2049
1629376350691,2050
1629376350695,2051
1629376350699,2051
1629376350703,2051
1629376350707,2050
1629376350711,2049
1629376350715,2049
1629376350719,2048
1629376350723,2048
1629376350727,2048
1629376350731,2049
1629376350735,2049
1629376350739,2050
1629376350743,2050
1629376350747,2051
1629376350751,2051
1629376350755,2051
1629376350759,2050
1629376350763,2049
1629376350767,2049
1629376350771,2048
1629376350775,2049
1629376350779,2050
1629376350783,2051
1629376350787,2051
1629376350791,2051
1629376350795,2051
1629376350799,2050
1629376350803,2049
1629376350807,2049
1629376350811,2050
1629376350815,2051
1629376350819,2051
1629376350823,2052
1629376350827,2051
1629376350831,2051
1629376350835,2050
1629376350839,2049
1629376350843,2049
1629376350847,2049
1629376350851,2050
1629376350855,2051
1629376350859,2051
1629376350863,2051
1629376350867,2051
1629376350871,2051
1629376350875,2051
1629376350879,2051
1629376350883,2050
1629376350887,2050
1629376350891,2049
1629376350895,2050
1629376350899,2050
1629376350903,2051
1629376350907,2051
1629376350911,2051
1629376350915,2051
1629376350919,2050
1629376350923,2049
1629376350927,2049
1629376350931,2049
1629376350935,2049
1629376350939,2050
1629376350943,2051
1629376350947,2052
1629376350951,2052
1629376350955,2052
1629376350959,2051
1629376350963,2051
1629376350967,2051
1629376350971,2052
1629376350975,2053
1629376350979,2054
1629376350983,2055
1629376350987,2055
1629376350991,2055
1629376350995,2055
1629376350999,2055
1629376351003,2055
1629376351007,2056
1629376351011,2057
1629376351015,2057
1629376351019,2057
1629376351023,2057
1629376351027,2056
1629376351031,2056
1629376351035,2056
1629376351039,2055
1629376351043,2055
1629376351047,2054
1629376351051,2053
1629376351055,2052
1629376351059,2052
1629376351063,2051
1629376351067,2050
1629376351071,2049
1629376351075,2049
1629376351079,2048
1629376351083,2048
1629376351087,2048
1629376351091,2048
1629376351095,2049
1629376351099,2049
1629376351103,2050
1629376351107,2049
1629376351111,2048
1629376351115,2048
1629376351119,2046
1629376351123,2044
1629376351127,2043
1629376351131,2045
1629376351135,2052
1629376351139,2065
1629376351143,2081
1629376351147,2094
1629376351151,2099
1629376351155,2093
1629376351159,2080
1629376351163,2064
1629376351167,2051
1629376351171,2045
1629376351175,2044
1629376351179,2046
1629376351183,2048
1629376351187,2050
1629376351191,2051
1629376351195,2051
1629376351199,2050
1629376351203,2050
1629376351207,2049
1629376351211,2048
1629376351215,2049
1629376351219,2049
1629376351223,2049
1629376351227,2049
1629376351231,2050
1629376351235,2049
1629376351239,2049
1629376351243,2049
1629376351247,2049
1629376351251,2049
1629376351255,2050
1629376351259,2051
1629376351263,2051
1629376351267,2051
1629376351271,2050
1629376351275,2050
1629376351279,2050
1629376351283,2050
1629376351287,2051
1629376351291,2052
1629376351295,2053
1629376351299,2053
1629376351303,2054
1629376351307,2053
1629376351311,2053
1629376351315,2053
1629376351319,2053
1629376351323,2054
1629376351327,2055
1629376351331,2057
1629376351335,2058
1629376351339,2058
1629376351343,2058
1629376351347,2057
1629376351351,2057
1629376351355,2057
1629376351359,2057
1629376351363,2058
1629376351367,2059
1629376351371,2060
1629376351375,2061
1629376351379,2061
1629376351383,2062
1629376351387,2062
1629376351391,2063
1629376351395,2064
1629376351399,2065
1629376351403,2065
1629376351407,2065
1629376351411,2065
1629376351415,2065
1629376351419,2064
1629376351423,2064
1629376351427,2063
1629376351431,2061
1629376351435,2060
1629376351439,2058
1629376351443,2057
1629376351447,2056
1629376351451,2056
1629376351455,2055
1629376351459,2053
1629376351463,2052
1629376351467,2050
1629376351471,2050
1629376351475,2050
1629376351479,2049
1629376351483,2048
1629376351487,2048
1629376351491,2048
1629376351495,2048
1629376351499,2048
1629376351503,2048
1629376351507,2048
1629376351511,2048
1629376351515,2048
1629376351519,2048
1629376351523,2048
1629376351527,2048
1629376351531,2047
1629376351535,2048
1629376351539,2048
1629376351543,2048
1629376351547,2048
1629376351551,2048
1629376351555,2048
1629376351559,2048
1629376351563,2048
1629376351567,2048
1629376351571,2048
1629376351575,2048
1629376351579,2049
1629376351583,2049
1629376351587,2050
1629376351591,2050
1629376351595,2050
1629376351599,2049
1629376351603,2049
1629376351607,2049
1629376351611,2050
1629376351615,2051
1629376351619,2051
1629376351623,2051
1629376351627,2051
1629376351631,2050
1629376351635,2050
1629376351639,2049
1629376351643,2049
1629376351647,2050
1629376351651,2050
1629376351655,2051
1629376351659,2051
1629376351663,2051
1629376351667,2050
1629376351671,2049
1629376351675,2049
1629376351679,2049
1629376351683,2049
1629376351687,2050
1629376351691,2051
1629376351695,2051
1629376351699,2051
1629376351703,2050
1629376351707,2049
1629376351711,2049
1629376351715,2049
1629376351719,2050
1629376351723,2050
1629376351727,2051
1629376351731,2051
1629376351735,2051
1629376351739,2051
1629376351743,2051
1629376351747,2051
1629376351751,2051
1629376351755,2050
1629376351759,2049
1629376351763,2049
1629376351767,2049
1629376351771,2049
1629376351775,2050
1629376351779,2051
1629376351783,2052
1629376351787,2052
1629376351791,2052
1629376351795,2052
1629376351799,2051
1629376351803,2050
1629376351807,2050
1629376351811,2050
1629376351815,2051
1629376351819,2051
1629376351823,2051
1629376351827,2051
1629376351831,2051
1629376351835,2051
1629376351839,2051
1629376351843,2051
1629376351847,2051
1629376351851,2051
1629376351855,2051
1629376351859,2051
1629376351863,2052
1629376351867,2052
1629376351871,2052
1629376351875,2052
1629376351879,2051
1629376351883,2051
1629376351887,2052
1629376351891,2052
1629376351895,2053
1629376351899,2052
1629376351903,2052
1629376351907,2051
1629376351911,2051
1629376351915,2051
1629376351919,2051
1629376351923,2051
1629376351927,2052
1629376351931,2052
1629376351935,2052
1629376351939,2053
1629376351943,2053
1629376351947,2053
1629376351951,2053
1629376351955,2052
1629376351959,2051
1629376351963,2051
1629376351967,2051
1629376351971,2052
1629376351975,2054
1629376351979,2055
1629376351983,2055
1629376351987,2055
1629376351991,2055
1629376351995,2055
1629376351999,2055
1629376352003,2055
1629376352007,2057
1629376352011,2059
1629376352015,2060
1629376352019,2060
1629376352023,2060
1629376352027,2059
1629376352031,2057
1629376352035,2056
1629376352039,2055
1629376352043,2055
1629376352047,2056
1629376352051,2056
1629376352055,2057
1629376352059,2056
1629376352063,2056
1629376352067,2055
1629376352071,2054
1629376352075,2052
1629376352079,2051
1629376352083,2050
1629376352087,2050
1629376352091,2050
1629376352095,2051
1629376352099,2051
1629376352103,2052
1629376352107,2052
1629376352111,2052
1629376352115,2052
1629376352119,2051
1629376352123,2049
1629376352127,2048
1629376352131,2046
1629376352135,2044
1629376352139,2046
1629376352143,2053
1629376352147,2067
1629376352151,2084
1629376352155,2097
1629376352159,2102
1629376352163,2096
1629376352167,2082
1629376352171,2067
1629376352175,2055
1629376352179,2048
1629376352183,2048
1629376352187,2048
1629376352191,2050
1629376352195,2051
1629376352199,2052
1629376352203,2052
1629376352207,2052
1629376352211,2052
1629376352215,2052
1629376352219,2052
1629376352223,2052
1629376352227,2052
1629376352231,2053
1629376352235,2053
1629376352239,2053
1629376352243,2054
1629376352247,2054
1629376352251,2054
1629376352255,2054
1629376352259,2053
1629376352263,2053
1629376352267,2053
1629376352271,2053
1629376352275,2053
1629376352279,2053
1629376352283,2053
1629376352287,2053
1629376352291,2053
1629376352295,2054
1629376352299,2056
1629376352303,2057
1629376352307,2058
1629376352311,2058
1629376352315,2057
1629376352319,2056
1629376352323,2055
1629376352327,2055
1629376352331,2056
1629376352335,2056
1629376352339,2057
1629376352343,2058
1629376352347,2058
1629376352351,2058
1629376352355,2058
1629376352359,2059
1629376352363,2060
1629376352367,2061
1629376352371,2062
1629376352375,2063
1629376352379,2064
1629376352383,2064
1629376352387,2065
1629376352391,2065
1629376352395,2066
1629376352399,2066
1629376352403,2067
1629376352407,2067
1629376352411,2067
1629376352415,2068
1629376352419,2068
1629376352423,2068
1629376352427,2068
1629376352431,2067
1629376352435,2066
1629376352439,2065
1629376352443,2063
1629376352447,2061
1629376352451,2060
1629376352455,2058
1629376352459,2057
1629376352463,2056
1629376352467,2056
1629376352471,2056
1629376352475,2055
1629376352479,2054
1629376352483,2052
1629376352487,2050
1629376352491,2049
1629376352495,2049
1629376352499,2049
1629376352503,2049
1629376352507,2049
1629376352511,2048
1629376352515,2048
1629376352519,2047
1629376352523,2047
1629376352527,2048
1629376352531,2048
1629376352535,2049
1629376352539,2049
1629376352543,2049
1629376352547,2049
1629376352551,2048
1629376352555,2048
1629376352559,2049
1629376352563,2049
1629376352567,2049
1629376352571,2049
1629376352575,2049
1629376352579,2049
1629376352583,2049
1629376352587,2050
1629376352591,2050
1629376352595,2050
1629376352599,2050
1629376352603,2050
1629376352607,2050
1629376352611,2051
1629376352615,2051
1629376352619,2051
1629376352623,2051
1629376352627,2051
1629376352631,2050
1629376352635,2051
1629376352639,2051
1629376352643,2051
1629376352647,2052
1629376352651,2052
1629376352655,2052
1629376352659,2051
1629376352663,2051
1629376352667,2051
1629376352671,2050
1629376352675,2049
1629376352679,2049
1629376352683,2049
1629376352687,2050
1629376352691,2050
1629376352695,2051
1629376352699,2051
1629376352703,2051
1629376352707,2051
1629376352711,2051
1629376352715,2051
1629376352719,2051
1629376352723,2050
1629376352727,2050
1629376352731,2050
1629376352735,2050
1629376352739,2050
1629376352743,2051
1629376352747,2051
1629376352751,2052
1629376352755,2052
1629376352759,2051
1629376352763,2051
1629376352767,2050
1629376352771,2050
1629376352775,2050
1629376352779,2050
1629376352783,2050
1629376352787,2051
1629376352791,2051
1629376352795,2051
1629376352799,2051
1629376352803,2051
1629376352807,2051
1629376352811,2051
1629376352815,2052
1629376352819,2053
1629376352823,2053
1629376352827,2054
1629376352831,2053
1629376352835,2053
1629376352839,2052
1629376352843,2051
1629376352847,2051
1629376352851,2051
1629376352855,2051
1629376352859,2052
1629376352863,2052
1629376352867,2053
1629376352871,2053
1629376352875,2052
1629376352879,2052
1629376352883,2052
1629376352887,2052
1629376352891,2052
1629376352895,2053
1629376352899,2053
1629376352903,2053
1629376352907,2052
1629376352911,2052
1629376352915,2052
1629376352919,2052
1629376352923,2053
1629376352927,2054
1629376352931,2055
1629376352935,2056
1629376352939,2057
1629376352943,2057
1629376352947,2057
1629376352951,2057
1629376352955,2057
1629376352959,2058
1629376352963,2058
1629376352967,2058
1629376352971,2058
1629376352975,2058
1629376352979,2057
1629376352983,2057
1629376352987,2057
1629376352991,2056
1629376352995,2055
1629376352999,2054
1629376353003,2054
1629376353007,2053
1629376353011,2053
1629376353015,2054
1629376353019,2053
1629376353023,2052
1629376353027,2052
1629376353031,2052
1629376353035,2052
1629376353039,2051
1629376353043,2051
1629376353047,2051
1629376353051,2050
1629376353055,2050
1629376353059,2051
1629376353063,2052
1629376353067,2052
1629376353071,2051
1629376353075,2049
1629376353079,2047
1629376353083,2044
1629376353087,2045
1629376353091,2052
1629376353095,2066
1629376353099,2083
1629376353103,2097
1629376353107,2103
1629376353111,2097
1629376353115,2083
1629376353119,2067
1629376353123,2053
1629376353127,2047
1629376353131,2045
1629376353135,2047
1629376353139,2049
1629376353143,2051
1629376353147,2052
1629376353151,2053
1629376353155,2052
1629376353159,2052
1629376353163,2051
1629376353167,2051
1629376353171,2051
1629376353175,2052
1629376353179,2052
1629376353183,2052
1629376353187,2053
1629376353191,2052
1629376353195,2052
1629376353199,2051
1629376353203,2051
1629376353207,2052
1629376353211,2053
1629376353215,2054
1629376353219,2054
1629376353223,2054
1629376353227,2053
1629376353231,2053
1629376353235,2053
1629376353239,2052
1629376353243,2053
1629376353247,2053
1629376353251,2054
1629376353255,2055
1629376353259,2056
1629376353263,2056
1629376353267,2056
1629376353271,2056
1629376353275,2056
1629376353279,2056
1629376353283,2056
1629376353287,2057
1629376353291,2058
1629376353295,2058
1629376353299,2059
1629376353303,2059
1629376353307,2059
1629376353311,2059
1629376353315,2059
1629376353319,2060
1629376353323,2061
1629376353327,2061
1629376353331,2062
1629376353335,2063
1629376353339,2064
1629376353343,2065
1629376353347,2065
1629376353351,2066
1629376353355,2066
1629376353359,2066
1629376353363,2066
1629376353367,2066
1629376353371,2067
1629376353375,2067
1629376353379,2066
1629376353383,2065
1629376353387,2064
1629376353391,2062
1629376353395,2061
1629376353399,2059
1629376353403,2058
1629376353407,2056
1629376353411,2055
1629376353415,2054
1629376353419,2052
1629376353423,2051
1629376353427,2051
1629376353431,2050
1629376353435,2050
1629376353439,2049
1629376353443,2048
1629376353447,2048
1629376353451,2048
1629376353455,2048
1629376353459,2048
1629376353463,2048
1629376353467,2049
1629376353471,2049
1629376353475,2048
1629376353479,2048
1629376353483,2048
1629376353487,2048
1629376353491,2048
1629376353495,2049
1629376353499,2049
1629376353503,2050
1629376353507,2050
1629376353511,2050
1629376353515,2049
1629376353519,2049
1629376353523,2049
1629376353527,2049
1629376353531,2049
1629376353535,2049
1629376353539,2050
1629376353543,2051
1629376353547,2051
1629376353551,2051
1629376353555,2051
1629376353559,2050
1629376353563,2050
1629376353567,2051
1629376353571,2051
1629376353575,2051
1629376353579,2051
1629376353583,2052
1629376353587,2052
1629376353591,2052
1629376353595,2051
1629376353599,2051
1629376353603,2051
1629376353607,2051
1629376353611,2052
1629376353615,2052
1629376353619,2052
1629376353623,2051
1629376353627,2050
1629376353631,2050
1629376353635,2051
1629376353639,2051
1629376353643,2051
1629376353647,2051
1629376353651,2050
1629376353655,2050
1629376353659,2051
1629376353663,2052
1629376353667,2052
1629376353671,2053
1629376353675,2052
1629376353679,2051
1629376353683,2051
1629376353687,2051
1629376353691,2051
1629376353695,2052
1629376353699,2053
1629376353703,2053
1629376353707,2053
1629376353711,2052
1629376353715,2051
1629376353719,2051
1629376353723,2051
1629376353727,2052
1629376353731,2052
1629376353735,2052
1629376353739,2052
1629376353743,2052
1629376353747,2052
1629376353751,2053
1629376353755,2053
1629376353759,2052
1629376353763,2051
1629376353767,2051
1629376353771,2051
1629376353775,2052
1629376353779,2052
1629376353783,2052
1629376353787,2052
1629376353791,2052
1629376353795,2052
1629376353799,2052
1629376353803,2052
1629376353807,2052
1629376353811,2051
1629376353815,2051
1629376353819,2051
1629376353823,2052
1629376353827,2053
1629376353831,2054
1629376353835,2054
1629376353839,2053
1629376353843,2052
1629376353847,2051
1629376353851,2051
1629376353855,2051
1629376353859,2052
1629376353863,2053
1629376353867,2053
1629376353871,2053
1629376353875,2053
1629376353879,2052
1629376353883,2052
1629376353887,2052
1629376353891,2052
1629376353895,2052
1629376353899,2052
1629376353903,2053
1629376353907,2053
1629376353911,2054
1629376353915,2053
1629376353919,2053
1629376353923,2054
1629376353927,2055
1629376353931,2056
1629376353935,2058
1629376353939,2058
1629376353943,2058
1629376353947,2058
1629376353951,2057
1629376353955,2057
1629376353959,2058
1629376353963,2059
1629376353967,2059
1629376353971,2059
1629376353975,2059
1629376353979,2058
1629376353983,2058
1629376353987,2058
1629376353991,2058
1629376353995,2057
1629376353999,2057
1629376354003,2056
1629376354007,2055
1629376354011,2054
1629376354015,2053
1629376354019,2052
1629376354023,2052
1629376354027,2051
1629376354031,2050
1629376354035,2050
1629376354039,2049
1629376354043,2050
1629376354047,2051
1629376354051,2052
1629376354055,2053
1629376354059,2053
1629376354063,2052
1629376354067,2051
1629376354071,2049
1629376354075,2048
1629376354079,2046
1629376354083,2045
1629376354087,2048
1629376354091,2058
1629376354095,2074
1629376354099,2090
1629376354103,2101
1629376354107,2100
1629376354111,2090
1629376354115,2074
1629376354119,2059
1629376354123,2049
1629376354127,2047
1629376354131,2048
1629376354135,2049
1629376354139,2051
1629376354143,2052
1629376354147,2053
1629376354151,2053
1629376354155,2052
1629376354159,2052
1629376354163,2051
1629376354167,2051
1629376354171,2051
1629376354175,2051
1629376354179,2051
1629376354183,2051
1629376354187,2052
1629376354191,2052
1629376354195,2052
1629376354199,2052
1629376354203,2053
1629376354207,2053
1629376354211,2052
1629376354215,2053
1629376354219,2053
1629376354223,2053
1629376354227,2053
1629376354231,2054
1629376354235,2054
1629376354239,2054
1629376354243,2054
1629376354247,2054
1629376354251,2054
1629376354255,2054
1629376354259,2054
1629376354263,2055
1629376354267,2055
1629376354271,2056
1629376354275,2057
1629376354279,2057
1629376354283,2057
1629376354287,2057
1629376354291,2057
1629376354295,2057
1629376354299,2058
1629376354303,2059
1629376354307,2060
1629376354311,2060
1629376354315,2060
1629376354319,2060
1629376354323,2061
1629376354327,2062
1629376354331,2063
1629376354335,2064
1629376354339,2066
1629376354343,2066
1629376354347,2067
1629376354351,2067
1629376354355,2066
1629376354359,2065
1629376354363,2065
1629376354367,2065
1629376354371,2065
1629376354375,2066
1629376354379,2066
1629376354383,2066
1629376354387,2064
1629376354391,2062
1629376354395,2060
1629376354399,2058
1629376354403,2057
1629376354407,2057
1629376354411,2056
1629376354415,2055
1629376354419,2053
1629376354423,2053
1629376354427,2052
1629376354431,2052
1629376354435,2052
1629376354439,2051
1629376354443,2050
1629376354447,2049
1629376354451,2048
1629376354455,2048
1629376354459,2049
1629376354463,2049
1629376354467,2050
1629376354471,2050
1629376354475,2051
1629376354479,2050
1629376354483,2050
1629376354487,2050
1629376354491,2050
1629376354495,2050
1629376354499,2050
1629376354503,2050
1629376354507,2050
1629376354511,2050
1629376354515,2050
1629376354519,2050
1629376354523,2051
1629376354527,2051
1629376354531,2051
1629376354535,2051
1629376354539,2051
1629376354543,2052
1629376354547,2052
1629376354551,2052
1629376354555,2052
1629376354559,2053
1629376354563,2053
1629376354567,2052
1629376354571,2052
1629376354575,2052
1629376354579,2052
1629376354583,2053
1629376354587,2053
1629376354591,2054
1629376354595,2053
1629376354599,2052
1629376354603,2051
1629376354607,2051
1629376354611,2051
1629376354615,2052
1629376354619,2053
1629376354623,2054
1629376354627,2055
1629376354631,2054
1629376354635,2053
1629376354639,2052
1629376354643,2051
1629376354647,2050
1629376354651,2051
1629376354655,2052
1629376354659,2053
1629376354663,2053
1629376354667,2053
1629376354671,2052
1629376354675,2051
1629376354679,2051
1629376354683,2051
1629376354687,2051
1629376354691,2052
1629376354695,2052
1629376354699,2053
1629376354703,2053
1629376354707,2053
1629376354711,2052
1629376354715,2052
1629376354719,2052
1629376354723,2052
1629376354727,2052
1629376354731,2052
1629376354735,2053
1629376354739,2053
1629376354743,2053
1629376354747,2053
1629376354751,2053
1629376354755,2053
1629376354759,2052
1629376354763,2052
1629376354767,2052
1629376354771,2052
1629376354775,2053
1629376354779,2053
1629376354783,2054
1629376354787,2055
1629376354791,2055
1629376354795,2055
1629376354799,2054
1629376354803,2054
1629376354807,2053
1629376354811,2052
1629376354815,2053
1629376354819,2053
1629376354823,2053
1629376354827,2053
1629376354831,2053
1629376354835,2054
1629376354839,2054
1629376354843,2054
1629376354847,2053
1629376354851,2053
1629376354855,2053
1629376354859,2053
1629376354863,2054
1629376354867,2054
1629376354871,2054
1629376354875,2054
1629376354879,2053
1629376354883,2053
1629376354887,2054
1629376354891,2054
1629376354895,2055
1629376354899,2054
1629376354903,2054
1629376354907,2054
1629376354911,2055
1629376354915,2055
1629376354919,2054
1629376354923,2055
1629376354927,2055
1629376354931,2056
1629376354935,2057
1629376354939,2058
1629376354943,2059
1629376354947,2058
1629376354951,2058
1629376354955,2058
1629376354959,2058
1629376354963,2059
1629376354967,2059
1629376354971,2060
1629376354975,2060
1629376354979,2060
1629376354983,2060
1629376354987,2060
1629376354991,2059
1629376354995,2058
1629376354999,2057
1629376355003,2057
1629376355007,2056
1629376355011,2056
1629376355015,2056
1629376355019,2056
1629376355023,2055
1629376355027,2054
1629376355031,2053
1629376355035,2052
1629376355039,2051
1629376355043,2051
1629376355047,2051
1629376355051,2052
1629376355055,2052
1629376355059,2052
1629376355063,2053
1629376355067,2053
1629376355071,2053
1629376355075,2052
1629376355079,2051
1629376355083,2049
1629376355087,2047
1629376355091,2046
1629376355095,2050
1629376355099,2061
1629376355103,2077
1629376355107,2092
1629376355111,2100
1629376355115,2099
1629376355119,2089
1629376355123,2075
1629376355127,2061
1629376355131,2053
1629376355135,2049
1629376355139,2049
1629376355143,2050
1629376355147,2052
1629376355151,2054
1629376355155,2055
1629376355159,2056
1629376355163,2055
1629376355167,2055
1629376355171,2054
1629376355175,2053
1629376355179,2052
1629376355183,2052
1629376355187,2052
1629376355191,2053
1629376355195,2053
1629376355199,2053
1629376355203,2053
1629376355207,2054
1629376355211,2055
1629376355215,2056
1629376355219,2056
1629376355223,2056
1629376355227,2055
1629376355231,2054
1629376355235,2054
1629376355239,2054
1629376355243,2054
1629376355247,2055
1629376355251,2055
1629376355255,2056
