timestamp,green,ir,red
1629376330004,51406,306851,313851
1629376330014,51409,306813,313843
1629376330024,51423,306787,313872
1629376330034,51435,306867,313869
1629376330044,51443,306869,313878
1629376330054,51457,306837,313871
1629376330064,51467,306845,313862
1629376330074,51486,306855,313861
1629376330084,51496,306859,313876
1629376330094,51498,306815,313865
1629376330104,51526,306911,313899
1629376330114,51523,306842,313885
1629376330124,51540,306879,313862
1629376330134,51558,306926,313895
1629376330144,51572,306922,313909
1629376330154,51576,306923,313905
1629376330164,51602,306952,313887
1629376330174,51613,306917,313918
1629376330184,51617,306904,313934
1629376330194,51611,306913,313930
1629376330204,51601,306876,313945
1629376330214,51594,306855,313945
1629376330224,51569,306819,313963
1629376330234,51539,306795,313948
1629376330244,51511,306822,313928
1629376330254,51491,306766,313898
1629376330264,51453,306785,313956
1629376330274,51430,306740,313903
1629376330284,51401,306732,313940
1629376330294,51385,306761,313903
1629376330304,51338,306732,313927
1629376330314,51324,306717,313912
1629376330324,51295,306700,313941
1629376330334,51274,306731,313920
1629376330344,51240,306681,313926
1629376330354,51212,306708,313868
1629376330364,51187,306671,313876
1629376330374,51157,306668,313858
1629376330384,51127,306654,313889
1629376330394,51099,306646,313856
1629376330404,51077,306644,313849
1629376330414,51045,306609,313828
1629376330424,51019,306635,313811
1629376330434,51012,306618,313840
1629376330444,50990,306645,313835
1629376330454,50981,306628,313825
1629376330464,50964,306612,313808
1629376330474,50957,306634,313776
1629376330484,50938,306626,313802
1629376330494,50920,306608,313809
1629376330504,50911,306587,313808
1629376330514,50894,306578,313775
1629376330524,50878,306583,313784
1629376330534,50870,306620,313805
1629376330544,50852,306606,313752
1629376330554,50839,306603,313739
1629376330564,50830,306592,313737
1629376330574,50821,306574,313764
1629376330584,50818,306600,313744
1629376330594,50800,306611,313732
1629376330604,50797,306599,313718
1629376330614,50799,306613,313719
1629376330624,50799,306577,313733
1629376330634,50789,306596,313742
1629376330644,50784,306581,313740
1629376330654,50782,306594,313727
1629376330664,50775,306617,313729
1629376330674,50784,306590,313700
1629376330684,50781,306583,313714
1629376330694,50784,306612,313717
1629376330704,50795,306609,313710
1629376330714,50787,306627,313742
1629376330724,50798,306668,313689
1629376330734,50803,306668,313728
1629376330744,50800,306653,313704
1629376330754,50813,306621,313705
1629376330764,50809,306683,313697
1629376330774,50812,306676,313704
1629376330784,50821,306679,313717
1629376330794,50831,306697,313717
1629376330804,50842,306694,313712
1629376330814,50844,306699,313718
1629376330824,50859,306661,313736
1629376330834,50870,306699,313756
1629376330844,50882,306711,313743
1629376330854,50886,306729,313705
1629376330864,50900,306712,313720
1629376330874,50908,306720,313768
1629376330884,50926,306715,313770
1629376330894,50940,306722,313758
1629376330904,50940,306726,313736
1629376330914,50954,306726,313765
1629376330924,50982,306720,313703
1629376330934,50971,306731,313772
1629376330944,50992,306769,313753
1629376330954,51007,306738,313770
1629376330964,51024,306715,313757
1629376330974,51032,306757,313770
1629376330984,51052,306721,313763
1629376330994,51068,306778,313776
1629376331004,51084,306735,313760
1629376331014,51099,306774,313750
1629376331024,51116,306775,313788
1629376331034,51137,306776,313792
1629376331044,51142,306800,313777
1629376331054,51159,306800,313803
1629376331064,51189,306805,313788
1629376331074,51208,306792,313809
1629376331084,51220,306845,313842
1629376331094,51230,306755,313833
1629376331104,51242,306764,313856
1629376331114,51247,306724,313885
1629376331124,51240,306757,313880
1629376331134,51218,306657,313889
1629376331144,51203,306685,313893
1629376331154,51181,306714,313886
1629376331164,51148,306654,313885
1629376331174,51129,306615,313871
1629376331184,51107,306618,313873
1629376331194,51083,306641,313854
1629376331204,51059,306595,313900
1629376331214,51043,306611,313867
1629376331224,51028,306567,313864
1629376331234,50994,306582,313853
1629376331244,50977,306573,313829
1629376331254,50971,306602,313854
1629376331264,50943,306525,313844
1629376331274,50933,306563,313852
1629376331284,50908,306516,313825
1629376331294,50892,306556,313858
1629376331304,50865,306513,313845
1629376331314,50844,306521,313820
1629376331324,50830,306536,313815
1629376331334,50817,306545,313837
1629376331344,50804,306510,313773
1629376331354,50794,306560,313791
1629376331364,50785,306502,313807
1629376331374,50779,306521,313793
1629376331384,50787,306515,313761
1629376331394,50775,306541,313788
1629376331404,50759,306535,313777
1629376331414,50762,306531,313771
1629376331424,50742,306577,313739
1629376331434,50739,306562,313768
1629376331444,50732,306612,313754
1629376331454,50732,306558,313753
1629376331464,50724,306571,313739
1629376331474,50720,306538,313729
1629376331484,50715,306600,313694
1629376331494,50711,306589,313717
1629376331504,50711,306631,313720
1629376331514,50708,306618,313710
1629376331524,50715,306607,313684
1629376331534,50722,306612,313738
1629376331544,50723,306601,313714
1629376331554,50737,306598,313709
1629376331564,50740,306646,313708
1629376331574,50760,306653,313732
1629376331584,50760,306654,313703
1629376331594,50767,306690,313721
1629376331604,50773,306649,313742
1629376331614,50787,306671,313727
1629376331624,50801,306706,313732
1629376331634,50799,306695,313738
1629376331644,50810,306672,313689
1629376331654,50830,306707,313760
1629376331664,50833,306697,313753
1629376331674,50857,306701,313750
1629376331684,50869,306698,313747
1629376331694,50871,306701,313760
1629376331704,50884,306709,313756
1629376331714,50905,306686,313772
1629376331724,50915,306738,313791
1629376331734,50930,306702,313755
1629376331744,50942,306777,313798
1629376331754,50954,306734,313806
1629376331764,50982,306750,313806
1629376331774,50996,306752,313772
1629376331784,51015,306807,313783
1629376331794,51023,306779,313798
1629376331804,51048,306785,313795
1629376331814,51065,306814,313773
1629376331824,51077,306793,313789
1629376331834,51093,306828,313787
1629376331844,51109,306820,313811
1629376331854,51131,306809,313833
1629376331864,51142,306817,313798
1629376331874,51149,306892,313802
1629376331884,51178,306852,313801
1629376331894,51192,306904,313818
1629376331904,51210,306909,313794
1629376331914,51234,306919,313777
1629376331924,51250,306952,313817
1629376331934,51274,307013,313776
1629376331944,51292,306995,313799
1629376331954,51309,307031,313804
1629376331964,51337,307003,313830
1629376331974,51365,307033,313811
1629376331984,51391,307065,313849
1629376331994,51410,307097,313812
1629376332004,51441,307064,313870
1629376332014,51461,307053,313910
1629376332024,51476,307065,313895
1629376332034,51497,307059,313923
1629376332044,51479,307055,313975
1629376332054,51488,307047,313953
1629376332064,51476,307014,314002
1629376332074,51473,307028,313950
1629376332084,51447,307078,313963
1629376332094,51440,307076,313960
1629376332104,51447,307044,313983
1629376332114,51454,307066,314024
1629376332124,51452,306956,314048
1629376332134,51436,306951,314062
1629376332144,51427,306965,314067
1629376332154,51412,306925,314076
1629376332164,51399,306999,314065
1629376332174,51379,306940,314056
1629376332184,51372,306954,314077
1629376332194,51357,306936,314102
1629376332204,51338,306947,314087
1629376332214,51322,306934,314109
1629376332224,51319,306892,314128
1629376332234,51317,306905,314117
1629376332244,51295,306880,314145
1629376332254,51278,306899,314110
1629376332264,51269,306873,314103
1629376332274,51255,306888,314136
1629376332284,51261,306885,314114
1629376332294,51246,306842,314121
1629376332304,51245,306864,314140
1629376332314,51235,306815,314142
1629376332324,51235,306804,314147
1629376332334,51234,306835,314197
1629376332344,51237,306817,314183
1629376332354,51218,306799,314185
1629376332364,51217,306769,314209
1629376332374,51199,306823,314232
1629376332384,51203,306841,314238
1629376332394,51198,306889,314240
1629376332404,51191,306902,314273
1629376332414,51196,306896,314289
1629376332424,51183,306957,314288
1629376332434,51181,306996,314350
1629376332444,51189,307044,314331
1629376332454,51195,307052,314346
1629376332464,51198,307083,314394
1629376332474,51205,307120,314399
1629376332484,51205,307169,314424
1629376332494,51206,307186,314417
1629376332504,51216,307227,314432
1629376332514,51219,307253,314466
1629376332524,51227,307273,314479
1629376332534,51249,307279,314459
1629376332544,51247,307285,314494
1629376332554,51258,307330,314507
1629376332564,51278,307390,314525
1629376332574,51288,307363,314543
1629376332584,51295,307371,314560
1629376332594,51300,307430,314550
1629376332604,51316,307459,314530
1629376332614,51324,307499,314581
1629376332624,51337,307456,314563
1629376332634,51346,307503,314590
1629376332644,51355,307571,314542
1629376332654,51363,307559,314533
1629376332664,51375,307591,314531
1629376332674,51390,307614,314562
1629376332684,51384,307652,314573
1629376332694,51414,307725,314596
1629376332704,51411,307728,314557
1629376332714,51437,307795,314554
1629376332724,51431,307800,314560
1629376332734,51442,307873,314541
1629376332744,51451,307929,314519
1629376332754,51460,307938,314557
1629376332764,51470,308006,314543
1629376332774,51485,308057,314465
1629376332784,51498,308127,314458
1629376332794,51524,308204,314401
1629376332804,51537,308262,314463
1629376332814,51576,308377,314492
1629376332824,51598,308405,314541
1629376332834,51629,308497,314562
1629376332844,51651,308535,314595
1629376332854,51682,308552,314612
1629376332864,51725,308671,314653
1629376332874,51747,308695,314695
1629376332884,51773,308787,314711
1629376332894,51792,308792,314738
1629376332904,51817,308830,314770
1629376332914,51841,308878,314778
1629376332924,51857,308899,314766
1629376332934,51879,308910,314811
1629376332944,51875,308971,314832
1629376332954,51880,309018,314830
1629376332964,51866,309086,314867
1629376332974,51853,309130,314857
1629376332984,51827,309187,314784
1629376332994,51801,309273,314748
1629376333004,51783,309387,314710
1629376333014,51762,309433,314686
1629376333024,51743,309522,314612
1629376333034,51717,309561,314636
1629376333044,51692,309628,314604
1629376333054,51682,309773,314525
1629376333064,51661,309846,314480
1629376333074,51654,309915,314439
1629376333084,51642,309954,314404
1629376333094,51627,310064,314355
1629376333104,51617,310109,314350
1629376333114,51603,310207,314320
1629376333124,51597,310243,314267
1629376333134,51581,310318,314219
1629376333144,51576,310362,314196
1629376333154,51568,310419,314155
1629376333164,51561,310460,314133
1629376333174,51561,310582,314136
1629376333184,51554,310626,314087
1629376333194,51581,310656,314081
1629376333204,51578,310783,314080
1629376333214,51587,310826,314065
1629376333224,51600,310875,314024
1629376333234,51605,310925,314021
1629376333244,51614,311014,313960
1629376333254,51632,311077,313966
1629376333264,51638,311167,313938
1629376333274,51648,311203,313951
1629376333284,51666,311258,313951
1629376333294,51683,311281,313922
1629376333304,51689,311311,313914
1629376333314,51704,311378,313887
1629376333324,51707,311375,313874
1629376333334,51730,311469,313837
1629376333344,51744,311470,313821
1629376333354,51768,311592,313787
1629376333364,51767,311572,313777
1629376333374,51780,311595,313762
1629376333384,51787,311617,313694
1629376333394,51816,311675,313680
1629376333404,51828,311676,313649
1629376333414,51848,311723,313664
1629376333424,51865,311749,313615
1629376333434,51890,311825,313630
1629376333444,51904,311797,313594
1629376333454,51929,311760,313593
1629376333464,51956,311831,313544
1629376333474,51986,311843,313576
1629376333484,52005,311785,313554
1629376333494,52037,311794,313574
1629376333504,52071,311809,313575
1629376333514,52111,311732,313626
1629376333524,52141,311770,313658
1629376333534,52203,311747,313687
1629376333544,52218,311671,313732
1629376333554,52259,311718,313801
1629376333564,52307,311690,313824
1629376333574,52340,311677,313862
1629376333584,52381,311652,313930
1629376333594,52408,311701,313895
1629376333604,52449,311635,313977
1629376333614,52476,311599,314028
1629376333624,52509,311605,314055
1629376333634,52535,311566,314055
1629376333644,52573,311604,314139
1629376333654,52599,311593,314184
1629376333664,52624,311556,314172
1629376333674,52661,311529,314204
1629376333684,52670,311514,314211
1629376333694,52700,311520,314233
1629376333704,52718,311518,314254
1629376333714,52743,311523,314330
1629376333724,52767,311530,314292
1629376333734,52786,311474,314284
1629376333744,52808,311494,314303
1629376333754,52829,311471,314352
1629376333764,52850,311518,314326
1629376333774,52874,311517,314376
1629376333784,52894,311549,314335
1629376333794,52917,311550,314399
1629376333804,52937,311569,314384
1629376333814,52960,311564,314402
1629376333824,52958,311524,314422
1629376333834,52969,311518,314399
1629376333844,52964,311543,314375
1629376333854,52961,311526,314380
1629376333864,52939,311580,314331
1629376333874,52920,311536,314307
1629376333884,52902,311587,314309
1629376333894,52888,311588,314266
1629376333904,52866,311603,314226
1629376333914,52851,311567,314215
1629376333924,52833,311625,314205
1629376333934,52825,311620,314188
1629376333944,52816,311634,314159
1629376333954,52803,311607,314138
1629376333964,52789,311675,314067
1629376333974,52772,311681,314043
1629376333984,52769,311673,314068
1629376333994,52750,311727,314010
1629376334004,52748,311696,313978
1629376334014,52738,311733,313974
1629376334024,52731,311694,313940
1629376334034,52727,311719,313935
1629376334044,52721,311748,313943
1629376334054,52705,311729,313908
1629376334064,52703,311848,313923
1629376334074,52702,311833,313873
1629376334084,52702,311820,313894
1629376334094,52699,311868,313886
1629376334104,52703,311930,313843
1629376334114,52704,311929,313868
1629376334124,52705,311945,313831
1629376334134,52705,311948,313830
1629376334144,52708,311999,313849
1629376334154,52719,312030,313875
1629376334164,52718,312030,313842
1629376334174,52722,312070,313852
1629376334184,52733,312141,313810
1629376334194,52750,312158,313878
1629376334204,52758,312223,313833
1629376334214,52768,312303,313861
1629376334224,52772,312365,313849
1629376334234,52793,312403,313873
1629376334244,52797,312542,313897
1629376334254,52800,312613,313924
1629376334264,52798,312694,313923
1629376334274,52818,312798,313903
1629376334284,52830,312922,313886
1629376334294,52844,312985,313899
1629376334304,52848,313073,313845
1629376334314,52842,313108,313791
1629376334324,52855,313179,313766
1629376334334,52855,313274,313712
1629376334344,52845,313319,313650
1629376334354,52834,313403,313560
1629376334364,52833,313437,313487
1629376334374,52828,313499,313405
1629376334384,52827,313557,313361
1629376334394,52814,313554,313265
1629376334404,52820,313661,313176
1629376334414,52820,313652,313095
1629376334424,52826,313693,313062
1629376334434,52823,313705,312992
1629376334444,52827,313716,312869
1629376334454,52818,313751,312801
1629376334464,52823,313793,312732
1629376334474,52835,313803,312694
1629376334484,52835,313830,312644
1629376334494,52836,313844,312530
1629376334504,52853,313879,312527
1629376334514,52851,313873,312433
1629376334524,52867,313911,312437
1629376334534,52871,313872,312365
1629376334544,52881,313926,312316
1629376334554,52886,313907,312254
1629376334564,52889,313964,312212
1629376334574,52894,313952,312166
1629376334584,52913,313976,312091
1629376334594,52913,313961,312009
1629376334604,52923,313937,311950
1629376334614,52922,313943,311886
1629376334624,52935,313925,311861
1629376334634,52948,313926,311803
1629376334644,52944,313913,311731
1629376334654,52958,313927,311677
1629376334664,52976,313972,311640
1629376334674,53008,313932,311591
1629376334684,53020,313921,311615
1629376334694,53034,313947,311603
1629376334704,53047,313944,311588
1629376334714,53063,313951,311520
1629376334724,53077,313933,311503
1629376334734,53094,313913,311416
1629376334744,53105,313900,311421
1629376334754,53121,313835,311420
1629376334764,53133,313907,311392
1629376334774,53139,313819,311325
1629376334784,53133,313856,311307
1629376334794,53129,313766,311255
1629376334804,53127,313763,311235
1629376334814,53103,313735,311171
1629376334824,53080,313730,311113
1629376334834,53061,313644,311073
1629376334844,53033,313674,310998
1629376334854,53010,313617,310926
1629376334864,53002,313574,310835
1629376334874,52975,313593,310785
1629376334884,52943,313531,310684
1629376334894,52921,313487,310653
1629376334904,52893,313397,310558
1629376334914,52875,313403,310542
1629376334924,52843,313380,310427
1629376334934,52804,313311,310336
1629376334944,52779,313249,310225
1629376334954,52734,313268,310143
1629376334964,52698,313263,310023
1629376334974,52653,313282,309972
1629376334984,52619,313233,309856
1629376334994,52583,313248,309756
1629376335004,52554,313225,309674
1629376335014,52530,313156,309583
1629376335024,52502,313239,309516
1629376335034,52490,313220,309407
1629376335044,52455,313277,309339
1629376335054,52442,313288,309272
1629376335064,52419,313293,309190
1629376335074,52395,313365,309086
1629376335084,52366,313362,308994
1629376335094,52343,313355,308911
1629376335104,52310,313401,308827
1629376335114,52299,313525,308692
1629376335124,52267,313549,308632
1629376335134,52254,313594,308564
1629376335144,52229,313649,308483
1629376335154,52216,313643,308398
1629376335164,52202,313719,308318
1629376335174,52201,313711,308273
1629376335184,52183,313806,308235
1629376335194,52175,313833,308178
1629376335204,52168,313878,308093
1629376335214,52159,313853,308034
1629376335224,52147,313897,307966
1629376335234,52139,313960,307921
1629376335244,52129,313950,307901
1629376335254,52130,313946,307852
1629376335264,52143,313975,307807
1629376335274,52145,313970,307764
1629376335284,52143,313982,307737
1629376335294,52154,314008,307721
1629376335304,52157,314034,307694
1629376335314,52135,314018,307670
1629376335324,52155,314014,307634
1629376335334,52161,313989,307585
1629376335344,52177,313967,307540
1629376335354,52179,314028,307529
1629376335364,52186,314057,307522
1629376335374,52193,314091,307508
1629376335384,52196,314163,307453
1629376335394,52207,314141,307456
1629376335404,52195,314127,307423
1629376335414,52191,314135,307366
1629376335424,52197,314145,307357
1629376335434,52190,314154,307363
1629376335444,52219,314124,307292
1629376335454,52232,314140,307261
1629376335464,52245,314141,307241
1629376335474,52256,314176,307263
1629376335484,52252,314225,307163
1629376335494,52255,314227,307184
1629376335504,52254,314187,307170
1629376335514,52262,314214,307115
1629376335524,52269,314165,307085
1629376335534,52272,314190,307073
1629376335544,52292,314192,307036
1629376335554,52312,314204,307077
1629376335564,52326,314229,307005
1629376335574,52334,314247,307020
1629376335584,52338,314211,306995
1629376335594,52360,314246,306980
1629376335604,52353,314308,306963
1629376335614,52376,314257,306930
1629376335624,52395,314294,306909
1629376335634,52425,314302,306903
1629376335644,52443,314298,306965
1629376335654,52450,314325,306938
1629376335664,52473,314356,306953
1629376335674,52496,314374,306927
1629376335684,52508,314374,306940
1629376335694,52526,314362,306946
1629376335704,52539,314351,306979
1629376335714,52551,314320,306959
1629376335724,52556,314322,306956
1629376335734,52560,314299,306955
1629376335744,52563,314271,306962
1629376335754,52557,314224,306955
1629376335764,52555,314281,306961
1629376335774,52544,314260,306974
1629376335784,52542,314275,306959
1629376335794,52529,314246,306963
1629376335804,52514,314212,306943
1629376335814,52507,314191,306942
1629376335824,52514,314162,306972
1629376335834,52507,314174,306926
1629376335844,52507,314161,306951
1629376335854,52499,314192,306928
1629376335864,52503,314168,306952
1629376335874,52497,314165,306940
1629376335884,52488,314129,306939
1629376335894,52477,314131,306913
1629376335904,52486,314057,306920
1629376335914,52475,314166,306896
1629376335924,52468,314098,306896
1629376335934,52452,314139,306896
1629376335944,52472,314114,306912
1629376335954,52468,314176,306869
1629376335964,52481,314153,306808
1629376335974,52475,314118,306843
1629376335984,52482,314133,306818
1629376335994,52488,314127,306829
1629376336004,52478,314132,306821
1629376336014,52487,314088,306844
1629376336024,52481,314147,306821
1629376336034,52490,314090,306816
1629376336044,52496,314081,306810
1629376336054,52492,314116,306792
1629376336064,52500,314075,306822
1629376336074,52498,314118,306808
1629376336084,52503,314080,306767
1629376336094,52516,314082,306746
1629376336104,52504,314108,306791
1629376336114,52526,314094,306777
1629376336124,52525,314070,306766
1629376336134,52535,314086,306821
1629376336144,52551,314062,306800
1629376336154,52559,314068,306865
1629376336164,52565,314069,306888
1629376336174,52582,314012,306890
1629376336184,52591,314008,306956
1629376336194,52609,314001,306972
1629376336204,52626,313961,306994
1629376336214,52639,313989,307003
1629376336224,52648,313913,307016
1629376336234,52665,313954,307044
1629376336244,52689,313936,307045
1629376336254,52696,313895,307096
1629376336264,52713,313887,307138
1629376336274,52724,313835,307171
1629376336284,52752,313857,307144
1629376336294,52770,313827,307186
1629376336304,52780,313824,307229
1629376336314,52795,313811,307267
1629376336324,52815,313791,307285
1629376336334,52835,313808,307369
1629376336344,52848,313818,307390
1629376336354,52863,313747,307482
1629376336364,52885,313736,307469
1629376336374,52901,313705,307537
1629376336384,52928,313647,307579
1629376336394,52940,313692,307597
1629376336404,52961,313631,307642
1629376336414,52976,313552,307676
1629376336424,53002,313599,307721
1629376336434,53029,313534,307791
1629376336444,53046,313537,307784
1629376336454,53057,313431,307852
1629376336464,53076,313469,307879
1629376336474,53102,313435,307958
1629376336484,53116,313370,307986
1629376336494,53124,313339,307987
1629376336504,53129,313309,307989
1629376336514,53131,313247,308021
1629376336524,53141,313196,308046
1629376336534,53146,313150,308044
1629376336544,53155,313170,308099
1629376336554,53167,313109,308123
1629376336564,53176,313062,308193
1629376336574,53180,312958,308259
1629376336584,53191,312858,308296
1629376336594,53188,312829,308346
1629376336604,53169,312779,308332
1629376336614,53144,312650,308376
1629376336624,53142,312620,308379
1629376336634,53140,312550,308467
1629376336644,53139,312453,308497
1629376336654,53148,312412,308613
1629376336664,53158,312318,308673
1629376336674,53164,312200,308731
1629376336684,53165,312132,308824
1629376336694,53173,312123,308906
1629376336704,53178,312032,308960
1629376336714,53177,311941,309050
1629376336724,53184,311838,309171
1629376336734,53199,311769,309240
1629376336744,53208,311783,309368
1629376336754,53216,311714,309435
1629376336764,53217,311689,309510
1629376336774,53200,311647,309518
1629376336784,53190,311651,309563
1629376336794,53190,311573,309618
1629376336804,53200,311527,309654
1629376336814,53213,311553,309756
1629376336824,53222,311501,309829
1629376336834,53228,311391,309894
1629376336844,53245,311394,309920
1629376336854,53234,311401,309979
1629376336864,53233,311354,310055
1629376336874,53231,311327,310014
1629376336884,53223,311333,310104
1629376336894,53219,311281,310135
1629376336904,53213,311263,310154
1629376336914,53200,311195,310168
1629376336924,53195,311198,310176
1629376336934,53177,311228,310204
1629376336944,53157,311150,310230
1629376336954,53156,311158,310253
1629376336964,53150,311155,310287
1629376336974,53143,311152,310291
1629376336984,53135,311090,310304
1629376336994,53125,311099,310267
1629376337004,53117,311109,310298
1629376337014,53107,311042,310287
1629376337024,53096,311072,310267
1629376337034,53082,311004,310256
1629376337044,53077,311028,310235
1629376337054,53064,311017,310203
1629376337064,53063,311030,310246
1629376337074,53056,310986,310246
1629376337084,53059,311031,310231
1629376337094,53064,311036,310268
1629376337104,53081,310947,310270
1629376337114,53086,310958,310289
1629376337124,53071,310951,310296
1629376337134,53081,310942,310296
1629376337144,53084,310938,310329
1629376337154,53091,310967,310346
1629376337164,53097,310925,310363
1629376337174,53093,310959,310380
1629376337184,53098,310886,310370
1629376337194,53113,310893,310432
1629376337204,53119,310923,310455
1629376337214,53121,310895,310473
1629376337224,53128,310867,310433
1629376337234,53126,310835,310460
1629376337244,53138,310799,310445
1629376337254,53138,310870,310461
1629376337264,53142,310775,310461
1629376337274,53153,310786,310475
1629376337284,53151,310828,310457
1629376337294,53145,310782,310499
1629376337304,53160,310782,310504
1629376337314,53150,310684,310527
1629376337324,53136,310703,310546
1629376337334,53116,310705,310536
1629376337344,53098,310633,310528
1629376337354,53066,310583,310539
1629376337364,53038,310569,310511
1629376337374,52999,310548,310531
1629376337384,52977,310482,310496
1629376337394,52926,310445,310496
1629376337404,52886,310424,310472
1629376337414,52862,310463,310495
1629376337424,52828,310430,310468
1629376337434,52802,310413,310462
1629376337444,52764,310360,310431
1629376337454,52732,310363,310424
1629376337464,52707,310326,310441
1629376337474,52680,310307,310411
1629376337484,52646,310338,310418
1629376337494,52615,310254,310399
1629376337504,52582,310217,310395
1629376337514,52552,310246,310382
1629376337524,52519,310150,310358
1629376337534,52474,310137,310329
1629376337544,52439,310131,310316
1629376337554,52410,310087,310288
1629376337564,52389,310073,310239
1629376337574,52360,310083,310222
1629376337584,52335,310035,310216
1629376337594,52321,309992,310187
1629376337604,52291,309995,310177
1629376337614,52272,309992,310154
1629376337624,52241,309934,310105
1629376337634,52231,309964,310128
1629376337644,52209,309941,310084
1629376337654,52179,309906,310049
1629376337664,52160,309864,310043
1629376337674,52133,309874,309963
1629376337684,52106,309852,309982
1629376337694,52087,309855,309929
1629376337704,52071,309786,309897
1629376337714,52050,309809,309905
1629376337724,52035,309805,309873
1629376337734,52014,309793,309824
1629376337744,51990,309804,309827
1629376337754,51995,309823,309762
1629376337764,51966,309835,309796
1629376337774,51957,309781,309723
1629376337784,51951,309799,309712
1629376337794,51937,309765,309688
1629376337804,51931,309777,309666
1629376337814,51918,309731,309633
1629376337824,51911,309718,309604
1629376337834,51898,309692,309609
1629376337844,51878,309793,309551
1629376337854,51872,309688,309522
1629376337864,51867,309688,309499
1629376337874,51862,309715,309469
1629376337884,51872,309705,309450
1629376337894,51847,309686,309445
1629376337904,51847,309716,309408
1629376337914,51838,309675,309383
1629376337924,51861,309745,309346
1629376337934,51847,309695,309339
1629376337944,51840,309643,309313
1629376337954,51851,309646,309350
1629376337964,51857,309690,309313
1629376337974,51850,309683,309269
1629376337984,51859,309696,309265
1629376337994,51850,309661,309275
1629376338004,51865,309674,309257
1629376338014,51866,309687,309235
1629376338024,51873,309648,309240
1629376338034,51872,309684,309249
1629376338044,51873,309659,309214
1629376338054,51873,309622,309235
1629376338064,51865,309639,309205
1629376338074,51849,309590,309216
1629376338084,51824,309588,309196
1629376338094,51799,309534,309233
1629376338104,51768,309516,309195
1629376338114,51742,309452,309201
1629376338124,51702,309474,309186
1629376338134,51672,309445,309191
1629376338144,51631,309443,309155
1629376338154,51595,309403,309143
1629376338164,51564,309413,309125
1629376338174,51540,309405,309129
1629376338184,51505,309384,309127
1629376338194,51480,309336,309120
1629376338204,51443,309324,309086
1629376338214,51403,309343,309094
1629376338224,51391,309331,309082
1629376338234,51355,309308,309062
1629376338244,51324,309276,309049
1629376338254,51292,309279,309062
1629376338264,51266,309259,309034
1629376338274,51224,309216,309012
1629376338284,51188,309229,309033
1629376338294,51167,309185,308997
1629376338304,51134,309233,308992
1629376338314,51129,309173,308960
1629376338324,51115,309200,308955
1629376338334,51092,309212,308962
1629376338344,51079,309149,308982
1629376338354,51078,309172,308938
1629376338364,51056,309152,308919
1629376338374,51046,309122,308946
1629376338384,51024,309130,308934
1629376338394,51008,309148,308951
1629376338404,50997,309114,308982
1629376338414,50988,309130,308937
1629376338424,50973,309180,308932
1629376338434,50971,309118,308984
1629376338444,50949,309114,308958
1629376338454,50938,309110,308948
1629376338464,50933,309109,308945
1629376338474,50918,309106,308919
1629376338484,50908,309084,308942
1629376338494,50900,309080,308945
1629376338504,50894,309054,308918
1629376338514,50891,309106,308902
1629376338524,50871,309106,308858
1629376338534,50881,309071,308853
1629376338544,50875,309087,308877
1629376338554,50867,309092,308846
1629376338564,50874,309061,308873
1629376338574,50869,309093,308867
1629376338584,50868,309085,308843
1629376338594,50870,309073,308831
1629376338604,50878,309067,308849
1629376338614,50874,309075,308825
1629376338624,50874,309089,308819
1629376338634,50877,309055,308835
1629376338644,50881,309046,308837
1629376338654,50893,309077,308796
1629376338664,50895,309076,308806
1629376338674,50899,309072,308801
1629376338684,50897,309137,308824
1629376338694,50912,309103,308794
1629376338704,50932,309083,308802
1629376338714,50930,309113,308760
1629376338724,50943,309081,308779
1629376338734,50941,309087,308735
1629376338744,50941,309119,308809
1629376338754,50958,309070,308776
1629376338764,50957,309115,308718
1629376338774,50965,309099,308750
1629376338784,50981,309125,308745
1629376338794,51001,309112,308727
1629376338804,51003,309094,308753
1629376338814,51018,309105,308732
1629376338824,51018,309162,308686
1629376338834,51041,309171,308722
1629376338844,51065,309161,308709
1629376338854,51065,309151,308720
1629376338864,51079,309177,308754
1629376338874,51098,309202,308776
1629376338884,51109,309112,308795
1629376338894,51119,309138,308808
1629376338904,51117,309079,308835
1629376338914,51106,309067,308783
1629376338924,51093,309059,308793
1629376338934,51077,308996,308777
1629376338944,51047,309023,308792
1629376338954,51020,308947,308811
1629376338964,50989,308944,308794
1629376338974,50964,308930,308807
1629376338984,50943,308915,308807
1629376338994,50915,308883,308778
1629376339004,50895,308883,308760
1629376339014,50868,308860,308750
1629376339024,50846,308864,308751
1629376339034,50823,308832,308725
1629376339044,50799,308802,308736
1629376339054,50769,308799,308729
1629376339064,50740,308794,308680
1629376339074,50716,308775,308691
1629376339084,50687,308753,308703
1629376339094,50664,308689,308689
1629376339104,50634,308676,308716
1629376339114,50619,308685,308645
1629376339124,50601,308665,308637
1629376339134,50584,308658,308632
1629376339144,50571,308618,308606
1629376339154,50555,308637,308639
1629376339164,50544,308637,308636
1629376339174,50542,308599,308606
1629376339184,50518,308595,308619
1629376339194,50518,308601,308609
1629376339204,50495,308579,308599
1629376339214,50493,308540,308615
1629376339224,50478,308522,308596
1629376339234,50483,308524,308592
1629376339244,50470,308564,308563
1629376339254,50461,308549,308597
1629376339264,50454,308526,308590
1629376339274,50445,308506,308555
1629376339284,50440,308532,308557
1629376339294,50443,308554,308563
1629376339304,50434,308514,308589
1629376339314,50435,308507,308518
1629376339324,50433,308496,308581
1629376339334,50435,308525,308554
1629376339344,50447,308465,308557
1629376339354,50447,308482,308590
1629376339364,50441,308504,308595
1629376339374,50451,308500,308583
1629376339384,50456,308467,308577
1629376339394,50454,308449,308586
1629376339404,50470,308498,308570
1629376339414,50476,308478,308589
1629376339424,50477,308469,308545
1629376339434,50487,308501,308593
1629376339444,50495,308529,308593
1629376339454,50508,308504,308577
1629376339464,50515,308485,308573
1629376339474,50521,308517,308590
1629376339484,50530,308478,308608
1629376339494,50546,308508,308573
1629376339504,50552,308520,308537
1629376339514,50557,308504,308546
1629376339524,50557,308545,308535
1629376339534,50583,308532,308547
1629376339544,50589,308493,308551
1629376339554,50601,308499,308549
1629376339564,50619,308524,308563
1629376339574,50630,308547,308573
1629376339584,50644,308555,308589
1629376339594,50662,308558,308558
1629376339604,50679,308548,308567
1629376339614,50687,308595,308583
1629376339624,50698,308594,308565
1629376339634,50723,308565,308593
1629376339644,50743,308586,308568
1629376339654,50756,308641,308607
1629376339664,50751,308553,308585
1629376339674,50790,308587,308615
1629376339684,50805,308591,308589
1629376339694,50820,308600,308585
1629376339704,50839,308609,308613
1629376339714,50852,308620,308590
1629376339724,50874,308644,308633
1629376339734,50892,308657,308606
1629376339744,50911,308630,308632
1629376339754,50932,308632,308663
1629376339764,50940,308644,308624
1629376339774,50963,308666,308652
1629376339784,50982,308666,308665
1629376339794,50997,308671,308665
1629376339804,51030,308687,308676
1629376339814,51042,308737,308672
1629376339824,51069,308674,308716
1629376339834,51070,308624,308727
1629376339844,51093,308646,308742
1629376339854,51097,308633,308779
1629376339864,51092,308609,308777
1629376339874,51077,308532,308775
1629376339884,51072,308523,308767
1629376339894,51059,308523,308802
1629376339904,51035,308462,308752
1629376339914,51026,308441,308788
1629376339924,51003,308467,308786
1629376339934,50991,308433,308747
1629376339944,50971,308468,308787
1629376339954,50971,308425,308753
1629376339964,50958,308388,308746
1629376339974,50949,308413,308743
1629376339984,50920,308363,308735
1629376339994,50908,308333,308716
1629376340004,50884,308345,308732
1629376340014,50881,308291,308735
1629376340024,50869,308291,308708
1629376340034,50843,308317,308719
1629376340044,50834,308315,308715
1629376340054,50818,308231,308690
1629376340064,50801,308220,308689
1629376340074,50795,308248,308676
1629376340084,50791,308240,308627
1629376340094,50786,308252,308646
1629376340104,50777,308227,308642
1629376340114,50773,308224,308651
1629376340124,50777,308200,308629
1629376340134,50768,308211,308656
1629376340144,50750,308196,308595
1629376340154,50757,308148,308608
1629376340164,50761,308147,308619
1629376340174,50748,308141,308613
1629376340184,50750,308169,308634
1629376340194,50746,308137,308623
1629376340204,50733,308130,308609
1629376340214,50726,308130,308622
1629376340224,50727,308169,308583
1629376340234,50729,308124,308589
1629376340244,50721,308085,308595
1629376340254,50722,308113,308562
1629376340264,50730,308119,308576
1629376340274,50726,308094,308547
1629376340284,50740,308120,308560
1629376340294,50737,308087,308562
1629376340304,50727,308087,308532
1629376340314,50728,308069,308527
1629376340324,50739,308128,308534
1629376340334,50750,308114,308527
1629376340344,50747,308131,308505
1629376340354,50752,308110,308551
1629376340364,50762,308090,308542
1629376340374,50768,308116,308523
1629376340384,50772,308114,308520
1629376340394,50776,308157,308458
1629376340404,50799,308100,308495
1629376340414,50797,308087,308496
1629376340424,50807,308136,308500
1629376340434,50809,308084,308492
1629376340444,50827,308113,308503
1629376340454,50827,308092,308486
1629376340464,50840,308082,308469
1629376340474,50866,308063,308510
1629376340484,50871,308113,308506
1629376340494,50885,308141,308492
1629376340504,50895,308106,308527
1629376340514,50910,308167,308519
1629376340524,50930,308128,308523
1629376340534,50935,308126,308535
1629376340544,50952,308191,308497
1629376340554,50976,308177,308589
1629376340564,50983,308187,308574
1629376340574,51011,308187,308610
1629376340584,51019,308171,308620
1629376340594,51036,308203,308600
1629376340604,51046,308228,308631
1629376340614,51066,308224,308648
1629376340624,51081,308228,308616
1629376340634,51079,308250,308622
1629376340644,51106,308215,308644
1629376340654,51110,308301,308574
1629376340664,51125,308254,308629
1629376340674,51139,308310,308628
1629376340684,51144,308280,308623
1629376340694,51167,308257,308613
1629376340704,51184,308279,308627
1629376340714,51204,308266,308606
1629376340724,51221,308325,308580
1629376340734,51235,308346,308596
1629376340744,51258,308343,308618
1629376340754,51277,308316,308646
1629376340764,51298,308302,308631
1629376340774,51305,308308,308671
1629376340784,51308,308293,308690
1629376340794,51316,308268,308672
1629376340804,51307,308192,308694
1629376340814,51303,308200,308669
1629376340824,51293,308204,308686
1629376340834,51276,308202,308702
1629376340844,51255,308146,308686
1629376340854,51251,308161,308713
1629376340864,51231,308107,308671
1629376340874,51221,308093,308698
1629376340884,51207,308093,308692
1629376340894,51192,308082,308724
1629376340904,51184,308136,308690
1629376340914,51167,308139,308706
1629376340924,51161,308104,308747
1629376340934,51153,308122,308743
1629376340944,51144,308097,308712
1629376340954,51130,308120,308727
1629376340964,51118,308083,308768
1629376340974,51112,308107,308765
1629376340984,51108,308083,308798
1629376340994,51108,308167,308820
1629376341004,51103,308145,308851
1629376341014,51093,308109,308871
1629376341024,51098,308131,308885
1629376341034,51103,308173,308929
1629376341044,51101,308164,308897
1629376341054,51103,308169,308973
1629376341064,51098,308179,308955
1629376341074,51099,308167,309009
1629376341084,51094,308128,309006
1629376341094,51099,308166,309010
1629376341104,51103,308188,309043
1629376341114,51102,308206,309079
1629376341124,51085,308148,309092
1629376341134,51097,308145,309124
1629376341144,51095,308159,309101
1629376341154,51113,308100,309166
1629376341164,51097,308137,309143
1629376341174,51103,308101,309176
1629376341184,51104,308143,309193
1629376341194,51099,308097,309190
1629376341204,51106,308090,309211
1629376341214,51109,308137,309226
1629376341224,51109,308099,309209
1629376341234,51108,308035,309228
1629376341244,51117,308098,309255
1629376341254,51125,308097,309254
1629376341264,51127,308096,309252
1629376341274,51140,308085,309259
1629376341284,51138,308124,309262
1629376341294,51146,308122,309265
1629376341304,51149,308109,309240
1629376341314,51157,308134,309287
1629376341324,51168,308114,309287
1629376341334,51162,308150,309254
1629376341344,51176,308105,309240
1629376341354,51175,308174,309217
1629376341364,51178,308148,309196
1629376341374,51184,308184,309202
1629376341384,51193,308186,309201
1629376341394,51204,308200,309191
1629376341404,51205,308171,309146
1629376341414,51217,308203,309144
1629376341424,51221,308180,309155
1629376341434,51232,308188,309144
1629376341444,51237,308246,309147
1629376341454,51260,308172,309106
1629376341464,51267,308197,309143
1629376341474,51265,308215,309124
1629376341484,51282,308251,309124
1629376341494,51301,308174,309096
1629376341504,51313,308181,309130
1629376341514,51324,308266,309084
1629376341524,51338,308217,309125
1629376341534,51353,308207,309131
1629376341544,51363,308201,309099
1629376341554,51378,308223,309156
1629376341564,51389,308211,309078
1629376341574,51405,308181,309091
1629376341584,51421,308205,309124
1629376341594,51440,308201,309148
1629376341604,51462,308160,309146
1629376341614,51468,308232,309131
1629376341624,51480,308168,309148
1629376341634,51509,308179,309108
1629376341644,51515,308186,309144
1629376341654,51533,308207,309160
1629376341664,51545,308179,309146
1629376341674,51569,308244,309142
1629376341684,51578,308212,309175
1629376341694,51594,308227,309177
1629376341704,51613,308192,309157
1629376341714,51635,308157,309187
1629376341724,51647,308146,309150
1629376341734,51662,308186,309201
1629376341744,51690,308159,309225
1629376341754,51683,308139,309250
1629376341764,51685,308140,309268
1629376341774,51685,308079,309254
1629376341784,51673,308062,309268
1629376341794,51664,308056,309305
1629376341804,51632,308053,309278
1629376341814,51622,307966,309260
1629376341824,51602,308002,309284
1629376341834,51584,307980,309295
1629376341844,51562,307982,309285
1629376341854,51549,307935,309249
1629376341864,51529,307919,309257
1629376341874,51505,307930,309226
1629376341884,51494,307917,309233
1629376341894,51473,307809,309232
1629376341904,51456,307793,309267
1629376341914,51438,307827,309233
1629376341924,51419,307783,309244
1629376341934,51390,307741,309229
1629376341944,51369,307742,309236
1629376341954,51346,307650,309191
1629376341964,51324,307652,309216
1629376341974,51292,307628,309186
1629376341984,51271,307592,309168
1629376341994,51251,307607,309130
1629376342004,51224,307571,309089
1629376342014,51209,307548,309102
1629376342024,51197,307563,309116
1629376342034,51179,307548,309061
1629376342044,51163,307552,309080
1629376342054,51146,307527,309058
1629376342064,51141,307514,309036
1629376342074,51123,307463,308976
1629376342084,51107,307484,309002
1629376342094,51104,307483,308989
1629376342104,51081,307461,308990
1629376342114,51075,307473,308992
1629376342124,51063,307447,308954
1629376342134,51048,307431,308956
1629376342144,51041,307451,308950
1629376342154,51019,307461,308942
1629376342164,51021,307412,308909
1629376342174,51010,307394,308905
1629376342184,51011,307451,308914
1629376342194,51007,307396,308899
1629376342204,51006,307396,308880
1629376342214,51002,307438,308897
1629376342224,50997,307402,308888
1629376342234,51000,307369,308920
1629376342244,50989,307398,308891
1629376342254,50987,307407,308877
1629376342264,50996,307424,308878
1629376342274,51000,307397,308857
1629376342284,51012,307402,308886
1629376342294,51009,307428,308883
1629376342304,51010,307383,308861
1629376342314,51020,307391,308885
1629376342324,51021,307368,308837
1629376342334,51022,307389,308878
1629376342344,51030,307416,308847
1629376342354,51034,307429,308882
1629376342364,51042,307403,308882
1629376342374,51050,307382,308856
1629376342384,51053,307412,308873
1629376342394,51066,307400,308871
1629376342404,51065,307356,308902
1629376342414,51075,307402,308886
1629376342424,51087,307425,308862
1629376342434,51093,307401,308861
1629376342444,51100,307448,308862
1629376342454,51111,307420,308839
1629376342464,51116,307384,308853
1629376342474,51123,307384,308827
1629376342484,51130,307389,308846
1629376342494,51146,307411,308870
1629376342504,51157,307351,308827
1629376342514,51162,307403,308888
1629376342524,51175,307424,308869
1629376342534,51182,307400,308871
1629376342544,51196,307424,308849
1629376342554,51207,307431,308896
1629376342564,51215,307383,308861
1629376342574,51233,307472,308890
1629376342584,51247,307458,308870
1629376342594,51262,307471,308870
1629376342604,51264,307458,308902
1629376342614,51276,307445,308918
1629376342624,51286,307470,308886
1629376342634,51297,307459,308876
1629376342644,51313,307470,308909
1629376342654,51328,307445,308886
1629376342664,51339,307467,308866
1629376342674,51350,307454,308891
1629376342684,51366,307491,308906
1629376342694,51375,307525,308897
1629376342704,51395,307518,308874
1629376342714,51409,307483,308887
1629376342724,51423,307460,308885
1629376342734,51426,307465,308903
1629376342744,51429,307453,308901
1629376342754,51437,307380,308888
1629376342764,51414,307379,308923
1629376342774,51413,307333,308916
1629376342784,51392,307324,308922
1629376342794,51383,307267,308908
1629376342804,51351,307235,308925
1629376342814,51333,307222,308939
1629376342824,51318,307205,308949
1629376342834,51290,307221,308913
1629376342844,51270,307204,308929
1629376342854,51250,307181,308935
1629376342864,51233,307167,308929
1629376342874,51210,307198,308931
1629376342884,51203,307178,308932
1629376342894,51180,307117,308960
1629376342904,51159,307154,308972
1629376342914,51144,307126,308938
1629376342924,51121,307101,308969
1629376342934,51099,307119,308955
1629376342944,51072,307067,308929
1629376342954,51061,307011,308962
1629376342964,51034,307030,308971
1629376342974,51013,307008,308937
1629376342984,51005,306971,308961
1629376342994,50980,306996,308913
1629376343004,50973,306983,308960
1629376343014,50961,306952,308948
1629376343024,50957,306951,308929
1629376343034,50948,306947,308913
1629376343044,50931,306931,308923
1629376343054,50915,306897,308928
1629376343064,50908,306927,308937
1629376343074,50886,306926,308935
1629376343084,50884,306913,308937
1629376343094,50865,306878,308910
1629376343104,50859,306882,308874
1629376343114,50835,306854,308899
1629376343124,50834,306945,308886
1629376343134,50821,306828,308897
1629376343144,50803,306825,308915
1629376343154,50805,306860,308869
1629376343164,50799,306866,308869
1629376343174,50793,306853,308855
1629376343184,50798,306854,308874
1629376343194,50789,306853,308891
1629376343204,50787,306840,308895
1629376343214,50780,306864,308878
1629376343224,50789,306841,308892
1629376343234,50783,306876,308862
1629376343244,50780,306885,308845
1629376343254,50783,306859,308872
1629376343264,50779,306838,308847
1629376343274,50779,306830,308842
1629376343284,50778,306857,308862
1629376343294,50782,306840,308898
1629376343304,50790,306887,308877
1629376343314,50793,306883,308835
1629376343324,50792,306887,308885
1629376343334,50805,306863,308892
1629376343344,50811,306864,308901
1629376343354,50820,306867,308878
1629376343364,50830,306823,308874
1629376343374,50826,306873,308911
1629376343384,50836,306845,308915
1629376343394,50848,306860,308929
1629376343404,50853,306865,308915
1629376343414,50860,306925,308952
1629376343424,50861,306908,308957
1629376343434,50890,306915,308964
1629376343444,50892,306933,308972
1629376343454,50903,306915,308969
1629376343464,50914,306880,308988
1629376343474,50927,306941,308999
1629376343484,50936,306965,308986
1629376343494,50945,306927,309008
1629376343504,50962,306963,309007
1629376343514,50968,306974,309019
1629376343524,50977,306971,309029
1629376343534,50995,307007,309058
1629376343544,50984,307003,309058
1629376343554,51010,307025,309078
1629376343564,51020,306985,309107
1629376343574,51030,307054,309099
1629376343584,51040,307045,309079
1629376343594,51060,307034,309095
1629376343604,51078,307054,309110
1629376343614,51092,307109,309085
1629376343624,51097,307092,309125
1629376343634,51111,307105,309124
1629376343644,51127,307080,309151
1629376343654,51141,307102,309138
1629376343664,51151,307084,309154
1629376343674,51173,307079,309152
1629376343684,51193,307087,309198
1629376343694,51201,307084,309236
1629376343704,51200,307068,309236
1629376343714,51206,307009,309238
1629376343724,51193,307024,309252
1629376343734,51192,307007,309283
1629376343744,51167,306951,309290
1629376343754,51142,306921,309266
1629376343764,51121,306936,309259
1629376343774,51095,306906,309268
1629376343784,51070,306901,309267
1629376343794,51055,306906,309306
1629376343804,51030,306849,309249
1629376343814,51013,306834,309286
1629376343824,50991,306830,309273
1629376343834,50968,306820,309280
1629376343844,50956,306760,309244
1629376343854,50930,306778,309239
1629376343864,50915,306743,309259
1629376343874,50881,306766,309255
1629376343884,50869,306683,309288
1629376343894,50852,306731,309283
1629376343904,50826,306713,309253
1629376343914,50817,306681,309211
1629376343924,50784,306689,309191
1629376343934,50782,306703,309197
1629376343944,50768,306691,309207
1629376343954,50741,306689,309186
1629376343964,50730,306665,309208
1629376343974,50721,306685,309189
1629376343984,50711,306692,309176
1629376343994,50702,306684,309197
1629376344004,50695,306637,309220
1629376344014,50693,306617,309175
1629376344024,50674,306647,309200
1629376344034,50656,306616,309219
1629376344044,50664,306644,309177
1629376344054,50638,306687,309184
1629376344064,50636,306628,309214
1629376344074,50624,306635,309186
1629376344084,50614,306590,309181
1629376344094,50607,306567,309160
1629376344104,50603,306576,309191
1629376344114,50588,306574,309192
1629376344124,50591,306608,309200
1629376344134,50581,306557,309151
1629376344144,50594,306591,309168
1629376344154,50579,306574,309177
1629376344164,50581,306566,309185
1629376344174,50583,306623,309152
1629376344184,50582,306606,309146
1629376344194,50581,306591,309152
1629376344204,50583,306592,309167
1629376344214,50578,306595,309185
1629376344224,50589,306584,309176
1629376344234,50591,306632,309198
1629376344244,50594,306656,309205
1629376344254,50602,306640,309212
1629376344264,50606,306629,309215
1629376344274,50617,306651,309199
1629376344284,50619,306666,309241
1629376344294,50635,306672,309235
1629376344304,50635,306658,309250
1629376344314,50647,306652,309273
1629376344324,50659,306710,309268
1629376344334,50677,306688,309299
1629376344344,50673,306706,309308
1629376344354,50685,306686,309306
1629376344364,50698,306776,309326
1629376344374,50704,306720,309314
1629376344384,50720,306779,309331
1629376344394,50728,306740,309336
1629376344404,50742,306717,309375
1629376344414,50750,306682,309359
1629376344424,50757,306758,309360
1629376344434,50770,306745,309355
1629376344444,50775,306757,309386
1629376344454,50787,306769,309378
1629376344464,50797,306810,309405
1629376344474,50811,306802,309400
1629376344484,50820,306746,309392
1629376344494,50837,306816,309430
1629376344504,50848,306796,309410
1629376344514,50851,306800,309427
1629376344524,50870,306854,309435
1629376344534,50886,306815,309429
1629376344544,50892,306800,309467
1629376344554,50916,306837,309458
1629376344564,50927,306865,309472
1629376344574,50935,306839,309496
1629376344584,50963,306818,309482
1629376344594,50974,306904,309522
1629376344604,50991,306861,309502
1629376344614,51003,306874,309502
1629376344624,51021,306879,309564
1629376344634,51037,306836,309575
1629376344644,51057,306897,309614
1629376344654,51067,306868,309641
1629376344664,51081,306840,309644
1629376344674,51067,306832,309692
1629376344684,51079,306793,309713
1629376344694,51067,306772,309715
1629376344704,51043,306708,309712
1629376344714,51013,306719,309739
1629376344724,51004,306692,309720
1629376344734,50990,306634,309755
1629376344744,50960,306653,309725
1629376344754,50939,306612,309731
1629376344764,50907,306641,309732
1629376344774,50893,306584,309737
1629376344784,50869,306563,309754
1629376344794,50854,306556,309719
1629376344804,50828,306544,309747
1629376344814,50813,306531,309750
1629376344824,50780,306476,309694
1629376344834,50760,306493,309731
1629376344844,50725,306457,309730
1629376344854,50712,306461,309765
1629376344864,50691,306416,309728
1629376344874,50656,306413,309734
1629376344884,50641,306381,309728
1629376344894,50620,306381,309702
1629376344904,50596,306400,309732
1629376344914,50580,306359,309711
1629376344924,50556,306353,309737
1629376344934,50543,306325,309726
1629376344944,50532,306275,309709
1629376344954,50520,306315,309716
1629376344964,50508,306307,309730
1629376344974,50500,306255,309696
1629376344984,50483,306263,309695
1629376344994,50470,306262,309735
1629376345004,50458,306228,309765
1629376345014,50437,306223,309715
1629376345024,50425,306257,309709
1629376345034,50417,306240,309690
1629376345044,50408,306262,309713
1629376345054,50388,306201,309716
1629376345064,50391,306197,309665
1629376345074,50382,306195,309699
1629376345084,50369,306233,309697
1629376345094,50368,306196,309716
1629376345104,50365,306198,309736
1629376345114,50363,306209,309731
1629376345124,50358,306134,309694
1629376345134,50354,306203,309729
1629376345144,50349,306196,309689
1629376345154,50362,306147,309735
1629376345164,50346,306215,309733
1629376345174,50341,306210,309769
1629376345184,50364,306238,309769
1629376345194,50353,306183,309728
1629376345204,50352,306198,309725
1629376345214,50369,306258,309759
1629376345224,50363,306229,309772
1629376345234,50368,306220,309713
1629376345244,50373,306215,309756
1629376345254,50374,306252,309760
1629376345264,50384,306246,309760
1629376345274,50386,306230,309803
1629376345284,50396,306295,309781
1629376345294,50407,306275,309811
1629376345304,50413,306287,309805
1629376345314,50420,306280,309825
1629376345324,50430,306287,309820
1629376345334,50434,306340,309854
1629376345344,50446,306315,309838
1629376345354,50449,306318,309870
1629376345364,50460,306291,309858
1629376345374,50477,306336,309857
1629376345384,50482,306327,309833
1629376345394,50489,306366,309887
1629376345404,50507,306334,309898
1629376345414,50517,306347,309912
1629376345424,50522,306379,309885
1629376345434,50539,306325,309912
1629376345444,50541,306360,309926
1629376345454,50562,306364,309904
1629376345464,50577,306387,309952
1629376345474,50576,306353,309943
1629376345484,50584,306413,309902
1629376345494,50604,306400,309944
1629376345504,50620,306381,309969
1629376345514,50621,306418,309988
1629376345524,50645,306414,309961
1629376345534,50656,306433,309995
1629376345544,50672,306408,309985
1629376345554,50682,306410,310006
1629376345564,50700,306430,309996
1629376345574,50708,306403,309976
1629376345584,50716,306461,310025
1629376345594,50742,306457,310025
1629376345604,50766,306440,310047
1629376345614,50774,306441,310043
1629376345624,50786,306464,310033
1629376345634,50791,306461,310085
1629376345644,50812,306425,310110
1629376345654,50811,306440,310111
1629376345664,50827,306427,310145
1629376345674,50822,306354,310118
1629376345684,50808,306377,310182
1629376345694,50778,306280,310149
1629376345704,50756,306280,310168
1629376345714,50740,306253,310193
1629376345724,50721,306235,310181
1629376345734,50693,306206,310169
1629376345744,50671,306220,310155
1629376345754,50653,306215,310159
1629376345764,50624,306181,310123
1629376345774,50604,306181,310188
1629376345784,50585,306157,310187
1629376345794,50564,306100,310184
1629376345804,50529,306066,310152
1629376345814,50520,306069,310132
1629376345824,50497,306084,310159
1629376345834,50459,306035,310150
1629376345844,50456,306061,310149
1629376345854,50420,306038,310129
1629376345864,50405,305962,310181
1629376345874,50385,305937,310150
1629376345884,50362,305979,310128
1629376345894,50336,305977,310128
1629376345904,50332,305978,310147
1629376345914,50313,305950,310114
1629376345924,50303,305971,310130
1629376345934,50290,305967,310092
1629376345944,50279,305938,310124
1629376345954,50265,305914,310101
1629376345964,50260,305883,310148
1629376345974,50234,305954,310097
1629376345984,50228,305928,310125
1629376345994,50218,305933,310084
1629376346004,50199,305889,310099
1629376346014,50187,305877,310118
1629376346024,50173,305886,310122
1629376346034,50162,305869,310108
1629376346044,50158,305880,310084
1629376346054,50150,305872,310110
1629376346064,50138,305885,310120
1629376346074,50135,305851,310110
1629376346084,50130,305832,310107
1629376346094,50126,305858,310134
1629376346104,50115,305829,310135
1629376346114,50115,305860,310130
1629376346124,50112,305832,310133
1629376346134,50118,305871,310144
1629376346144,50112,305865,310201
1629376346154,50109,305829,310153
1629376346164,50103,305819,310158
1629376346174,50111,305819,310163
1629376346184,50106,305826,310143
1629376346194,50107,305820,310153
1629376346204,50112,305803,310212
1629376346214,50113,305845,310173
1629376346224,50114,305794,310195
1629376346234,50121,305811,310189
1629376346244,50122,305827,310184
1629376346254,50131,305835,310224
1629376346264,50128,305882,310191
1629376346274,50147,305841,310213
1629376346284,50143,305883,310210
1629376346294,50151,305832,310212
1629376346304,50168,305865,310210
1629376346314,50163,305866,310209
1629376346324,50170,305878,310224
1629376346334,50182,305898,310211
1629376346344,50186,305873,310207
1629376346354,50196,305931,310238
1629376346364,50205,305911,310255
1629376346374,50215,305907,310229
1629376346384,50224,305891,310238
1629376346394,50233,305915,310211
1629376346404,50245,305942,310250
1629376346414,50248,305907,310266
1629376346424,50256,305943,310273
1629376346434,50274,305969,310310
1629376346444,50271,305960,310267
1629376346454,50293,305963,310288
1629376346464,50300,305989,310305
1629376346474,50310,306019,310288
1629376346484,50322,306006,310310
1629376346494,50319,306031,310303
1629376346504,50337,305996,310309
1629376346514,50354,306012,310342
1629376346524,50368,306032,310323
1629376346534,50383,306054,310315
1629376346544,50389,306049,310286
1629376346554,50405,306039,310322
1629376346564,50412,306092,310336
1629376346574,50429,306057,310371
1629376346584,50449,306049,310324
1629376346594,50453,306021,310363
1629376346604,50453,306048,310406
1629376346614,50457,305994,310428
1629376346624,50458,305978,310421
1629376346634,50446,306024,310443
1629376346644,50422,305928,310425
1629376346654,50396,305938,310453
1629376346664,50385,305911,310427
1629376346674,50356,305901,310417
1629376346684,50332,305933,310446
1629376346694,50303,305851,310448
1629376346704,50294,305858,310434
1629376346714,50265,305847,310430
1629376346724,50245,305837,310397
1629376346734,50234,305816,310426
1629376346744,50209,305840,310424
1629376346754,50180,305794,310419
1629376346764,50162,305795,310414
1629376346774,50144,305762,310404
1629376346784,50115,305771,310404
1629376346794,50105,305739,310375
1629376346804,50072,305727,310369
1629376346814,50063,305710,310377
1629376346824,50040,305732,310364
1629376346834,50019,305769,310338
1629376346844,49997,305698,310361
1629376346854,49995,305696,310338
1629376346864,49972,305714,310311
1629376346874,49968,305695,310345
1629376346884,49955,305671,310365
1629376346894,49941,305702,310328
1629376346904,49937,305685,310351
1629376346914,49920,305698,310334
1629376346924,49926,305684,310354
1629376346934,49907,305652,310359
1629376346944,49894,305670,310315
1629376346954,49887,305689,310334
1629376346964,49881,305657,310311
1629376346974,49858,305652,310343
1629376346984,49854,305640,310311
1629376346994,49848,305662,310301
1629376347004,49833,305630,310319
1629376347014,49831,305630,310312
1629376347024,49831,305634,310353
1629376347034,49820,305614,310292
1629376347044,49812,305649,310312
1629376347054,49813,305639,310284
1629376347064,49816,305653,310311
1629376347074,49808,305642,310325
1629376347084,49814,305696,310331
1629376347094,49809,305650,310306
1629376347104,49806,305657,310313
1629376347114,49816,305680,310316
1629376347124,49811,305660,310320
1629376347134,49815,305710,310300
1629376347144,49816,305653,310339
1629376347154,49829,305643,310322
1629376347164,49828,305649,310305
1629376347174,49825,305706,310321
1629376347184,49842,305727,310331
1629376347194,49838,305711,310336
1629376347204,49846,305675,310308
1629376347214,49845,305709,310284
1629376347224,49855,305710,310330
1629376347234,49854,305683,310305
1629376347244,49864,305720,310307
1629376347254,49860,305697,310282
1629376347264,49881,305760,310296
1629376347274,49881,305706,310301
1629376347284,49901,305734,310292
1629376347294,49898,305724,310288
1629376347304,49913,305771,310295
1629376347314,49920,305750,310272
1629376347324,49939,305795,310325
1629376347334,49944,305820,310310
1629376347344,49952,305801,310309
1629376347354,49963,305835,310312
1629376347364,49975,305782,310316
1629376347374,49982,305823,310341
1629376347384,49997,305844,310355
1629376347394,50010,305844,310372
1629376347404,50017,305843,310353
1629376347414,50029,305885,310342
1629376347424,50041,305911,310342
1629376347434,50057,305893,310392
1629376347444,50065,305842,310333
1629376347454,50078,305921,310390
1629376347464,50098,305906,310369
1629376347474,50103,305906,310406
1629376347484,50128,305954,310398
1629376347494,50133,306007,310405
1629376347504,50152,305981,310412
1629376347514,50162,305959,310395
1629376347524,50175,305960,310410
1629376347534,50200,305980,310428
1629376347544,50216,305965,310459
1629376347554,50223,305928,310458
1629376347564,50236,305916,310489
1629376347574,50234,305853,310537
1629376347584,50218,305862,310519
1629376347594,50210,305864,310494
1629376347604,50184,305824,310533
1629376347614,50170,305789,310550
1629376347624,50143,305794,310546
1629376347634,50129,305785,310562
1629376347644,50110,305742,310548
1629376347654,50075,305764,310518
1629376347664,50056,305754,310546
1629376347674,50033,305714,310525
1629376347684,50014,305723,310532
1629376347694,49987,305722,310553
1629376347704,49970,305706,310507
1629376347714,49946,305682,310500
1629376347724,49922,305666,310482
1629376347734,49918,305650,310504
1629376347744,49880,305644,310524
1629376347754,49851,305664,310516
1629376347764,49832,305630,310502
1629376347774,49813,305652,310501
1629376347784,49788,305637,310497
1629376347794,49772,305596,310465
1629376347804,49758,305641,310466
1629376347814,49736,305590,310517
1629376347824,49715,305599,310463
1629376347834,49702,305580,310524
1629376347844,49692,305574,310477
1629376347854,49677,305561,310466
1629376347864,49667,305568,310469
1629376347874,49664,305579,310476
1629376347884,49646,305553,310500
1629376347894,49625,305529,310463
1629376347904,49614,305515,310484
1629376347914,49603,305514,310443
1629376347924,49591,305523,310480
1629376347934,49573,305500,310452
1629376347944,49579,305493,310476
1629376347954,49561,305522,310456
1629376347964,49556,305496,310444
1629376347974,49549,305538,310488
1629376347984,49535,305512,310491
1629376347994,49532,305489,310447
1629376348004,49527,305509,310438
1629376348014,49511,305472,310411
1629376348024,49509,305477,310455
1629376348034,49516,305504,310467
1629376348044,49503,305488,310411
1629376348054,49508,305474,310471
1629376348064,49507,305486,310428
1629376348074,49503,305498,310453
1629376348084,49508,305510,310451
1629376348094,49495,305520,310434
1629376348104,49504,305509,310434
1629376348114,49506,305526,310443
1629376348124,49521,305561,310460
1629376348134,49520,305539,310457
1629376348144,49519,305536,310464
1629376348154,49525,305550,310458
1629376348164,49525,305556,310463
1629376348174,49529,305575,310439
1629376348184,49540,305560,310453
1629376348194,49542,305600,310495
1629376348204,49551,305559,310446
1629376348214,49560,305556,310477
1629376348224,49570,305615,310465
1629376348234,49581,305591,310455
1629376348244,49588,305592,310472
1629376348254,49595,305601,310480
1629376348264,49596,305617,310473
1629376348274,49599,305605,310521
1629376348284,49611,305624,310523
1629376348294,49624,305654,310511
1629376348304,49640,305645,310484
1629376348314,49646,305647,310498
1629376348324,49657,305666,310503
1629376348334,49659,305709,310537
1629376348344,49668,305674,310529
1629376348354,49688,305708,310520
1629376348364,49698,305691,310560
1629376348374,49707,305716,310532
1629376348384,49708,305729,310528
1629376348394,49722,305727,310500
1629376348404,49739,305730,310542
1629376348414,49753,305728,310558
1629376348424,49763,305781,310531
1629376348434,49779,305784,310542
1629376348444,49794,305779,310554
1629376348454,49809,305755,310564
1629376348464,49821,305786,310621
1629376348474,49833,305811,310568
1629376348484,49849,305798,310579
1629376348494,49862,305860,310611
1629376348504,49873,305850,310590
1629376348514,49889,305858,310612
1629376348524,49912,305822,310631
1629376348534,49924,305835,310676
1629376348544,49936,305849,310662
1629376348554,49959,305846,310690
1629376348564,49957,305842,310692
1629376348574,49949,305821,310742
1629376348584,49949,305771,310718
1629376348594,49936,305772,310750
1629376348604,49920,305713,310751
1629376348614,49904,305716,310738
1629376348624,49878,305716,310769
1629376348634,49858,305692,310707
1629376348644,49837,305696,310726
1629376348654,49823,305623,310727
1629376348664,49800,305638,310705
1629376348674,49788,305614,310719
1629376348684,49772,305631,310692
1629376348694,49753,305608,310733
1629376348704,49729,305616,310690
1629376348714,49714,305552,310696
1629376348724,49695,305641,310708
1629376348734,49684,305583,310736
1629376348744,49661,305598,310717
1629376348754,49643,305557,310683
1629376348764,49632,305558,310712
1629376348774,49612,305521,310708
1629376348784,49595,305571,310733
1629376348794,49578,305520,310702
1629376348804,49569,305561,310673
1629376348814,49565,305562,310645
1629376348824,49557,305549,310647
1629376348834,49542,305476,310672
1629376348844,49539,305535,310676
1629376348854,49535,305507,310685
1629376348864,49527,305493,310694
1629376348874,49512,305497,310682
1629376348884,49503,305493,310687
1629376348894,49497,305473,310668
1629376348904,49495,305487,310672
1629376348914,49488,305495,310668
1629376348924,49482,305479,310702
1629376348934,49473,305429,310678
1629376348944,49472,305444,310678
1629376348954,49470,305488,310641
1629376348964,49464,305490,310638
1629376348974,49463,305441,310688
1629376348984,49463,305496,310675
1629376348994,49455,305470,310681
1629376349004,49458,305469,310668
1629376349014,49453,305504,310670
1629376349024,49466,305491,310667
1629376349034,49462,305476,310679
1629376349044,49461,305488,310672
1629376349054,49463,305528,310642
1629376349064,49470,305490,310700
1629376349074,49476,305494,310689
1629376349084,49482,305456,310700
1629376349094,49492,305520,310678
1629376349104,49494,305506,310683
1629376349114,49497,305585,310704
1629376349124,49501,305546,310679
1629376349134,49513,305541,310660
1629376349144,49521,305554,310650
1629376349154,49529,305576,310698
1629376349164,49542,305575,310700
1629376349174,49549,305586,310696
1629376349184,49562,305522,310734
1629376349194,49563,305545,310711
1629376349204,49577,305579,310717
1629376349214,49589,305509,310706
1629376349224,49596,305580,310734
1629376349234,49610,305599,310720
1629376349244,49627,305597,310752
1629376349254,49641,305584,310765
1629376349264,49656,305622,310746
1629376349274,49667,305638,310778
1629376349284,49679,305624,310785
1629376349294,49701,305584,310781
1629376349304,49710,305609,310760
1629376349314,49719,305634,310811
1629376349324,49737,305633,310771
1629376349334,49749,305647,310828
1629376349344,49769,305655,310804
1629376349354,49797,305640,310827
1629376349364,49802,305661,310851
1629376349374,49821,305658,310863
1629376349384,49824,305659,310865
1629376349394,49845,305610,310893
1629376349404,49847,305703,310835
1629376349414,49863,305689,310877
1629376349424,49882,305751,310869
1629376349434,49903,305695,310867
1629376349444,49907,305720,310874
1629376349454,49928,305685,310876
1629376349464,49941,305716,310882
1629376349474,49960,305699,310911
1629376349484,49974,305725,310874
1629376349494,49995,305701,310929
1629376349504,50024,305719,310926
1629376349514,50038,305694,310926
1629376349524,50040,305659,310946
1629376349534,50066,305695,310971
1629376349544,50071,305664,310951
1629376349554,50099,305654,311001
1629376349564,50112,305609,311020
1629376349574,50121,305658,311068
1629376349584,50128,305605,311060
1629376349594,50126,305572,311092
1629376349604,50113,305610,311064
1629376349614,50102,305534,311086
1629376349624,50079,305543,311051
1629376349634,50063,305567,311049
1629376349644,50048,305502,311089
1629376349654,50027,305510,311062
1629376349664,50002,305517,311052
1629376349674,49980,305501,311052
1629376349684,49976,305508,311045
1629376349694,49956,305469,311058
1629376349704,49930,305459,310994
1629376349714,49912,305434,311014
1629376349724,49898,305450,310988
1629376349734,49869,305421,311014
1629376349744,49848,305391,310981
1629376349754,49824,305423,310966
1629376349764,49803,305401,310938
1629376349774,49792,305388,310995
1629376349784,49767,305395,310949
1629376349794,49757,305336,310936
1629376349804,49742,305347,310927
1629376349814,49717,305322,310922
1629376349824,49708,305332,310931
1629376349834,49700,305324,310876
1629376349844,49681,305276,310892
1629376349854,49688,305358,310907
1629376349864,49676,305279,310897
1629376349874,49677,305279,310889
1629376349884,49671,305236,310915
1629376349894,49666,305304,310897
1629376349904,49651,305237,310880
1629376349914,49652,305225,310861
1629376349924,49643,305202,310862
1629376349934,49633,305212,310903
1629376349944,49629,305196,310890
1629376349954,49627,305184,310897
1629376349964,49622,305218,310897
1629376349974,49619,305186,310856
1629376349984,49626,305162,310893
1629376349994,49612,305151,310862
1629376350004,49611,305251,310887
1629376350014,49611,305141,310880
1629376350024,49621,305186,310839
1629376350034,49611,305182,310878
1629376350044,49616,305212,310898
1629376350054,49614,305218,310838
1629376350064,49617,305245,310841
1629376350074,49626,305231,310830
1629376350084,49629,305222,310846
1629376350094,49631,305270,310832
1629376350104,49641,305236,310832
1629376350114,49648,305328,310832
1629376350124,49651,305282,310871
1629376350134,49662,305306,310829
1629376350144,49667,305305,310836
1629376350154,49677,305309,310826
1629376350164,49686,305325,310847
1629376350174,49695,305288,310827
1629376350184,49705,305279,310827
1629376350194,49710,305302,310822
1629376350204,49724,305288,310804
1629376350214,49738,305292,310856
1629376350224,49736,305323,310807
1629376350234,49745,305295,310833
1629376350244,49759,305327,310833
1629376350254,49767,305344,310830
1629376350264,49780,305348,310855
1629376350274,49794,305351,310868
1629376350284,49808,305308,310846
1629376350294,49821,305353,310813
1629376350304,49832,305353,310864
1629376350314,49843,305361,310876
1629376350324,49848,305338,310872
1629376350334,49871,305352,310870
1629376350344,49880,305345,310882
1629376350354,49903,305377,310824
1629376350364,49918,305353,310875
1629376350374,49925,305382,310892
1629376350384,49932,305364,310876
1629376350394,49947,305439,310899
1629376350404,49962,305394,310866
1629376350414,49987,305402,310873
1629376350424,49996,305432,310871
1629376350434,50015,305412,310875
1629376350444,50026,305435,310900
1629376350454,50041,305450,310902
1629376350464,50058,305501,310906
1629376350474,50083,305516,310900
1629376350484,50086,305525,310943
1629376350494,50113,305559,310921
1629376350504,50138,305583,310929
1629376350514,50139,305536,310951
1629376350524,50159,305609,310960
1629376350534,50192,305589,310942
1629376350544,50211,305599,310946
1629376350554,50229,305588,310967
1629376350564,50258,305581,311014
1629376350574,50263,305585,310990
1629376350584,50276,305585,311002
1629376350594,50279,305502,311021
1629376350604,50276,305498,311058
1629376350614,50276,305508,311069
1629376350624,50260,305451,311078
1629376350634,50259,305463,311037
1629376350644,50235,305470,311077
1629376350654,50222,305419,311062
1629376350664,50215,305393,311062
1629376350674,50211,305412,311070
1629376350684,50197,305409,311087
1629376350694,50190,305403,311084
1629376350704,50164,305368,311079
1629376350714,50166,305327,311087
1629376350724,50154,305363,311094
1629376350734,50140,305322,311101
1629376350744,50129,305332,311124
1629376350754,50114,305335,311119
1629376350764,50101,305255,311125
1629376350774,50090,305249,311113
1629376350784,50070,305246,311111
1629376350794,50064,305269,311146
1629376350804,50052,305247,311104
1629376350814,50037,305250,311098
1629376350824,50029,305258,311101
1629376350834,50035,305222,311082
1629376350844,50021,305244,311109
1629376350854,50016,305229,311109
1629376350864,50018,305216,311091
1629376350874,50016,305242,311076
1629376350884,50002,305224,311094
1629376350894,50000,305215,311100
1629376350904,49995,305243,311120
1629376350914,49985,305219,311107
1629376350924,49982,305198,311110
1629376350934,49971,305168,311099
1629376350944,49968,305200,311075
1629376350954,49965,305186,311087
1629376350964,49968,305143,311040
1629376350974,49964,305181,311077
1629376350984,49969,305142,311110
1629376350994,49967,305100,311120
1629376351004,49960,305140,311065
1629376351014,49970,305175,311077
1629376351024,49971,305148,311138
1629376351034,49968,305112,311092
1629376351044,49968,305159,311102
1629376351054,49976,305135,311124
1629376351064,49977,305120,311121
1629376351074,49982,305157,311123
1629376351084,49990,305176,311106
1629376351094,49994,305190,311153
1629376351104,49997,305170,311156
1629376351114,50003,305217,311144
1629376351124,50017,305179,311107
1629376351134,50021,305215,311155
1629376351144,50033,305194,311156
1629376351154,50030,305227,311156
1629376351164,50039,305215,311150
1629376351174,50055,305290,311180
1629376351184,50058,305307,311148
1629376351194,50080,305282,311131
1629376351204,50084,305250,311172
1629376351214,50096,305267,311191
1629376351224,50097,305256,311161
1629376351234,50115,305245,311162
1629376351244,50118,305240,311151
1629376351254,50135,305291,311141
1629376351264,50142,305293,311187
1629376351274,50152,305307,311172
1629376351284,50160,305292,311162
1629376351294,50178,305335,311162
1629376351304,50193,305330,311169
1629376351314,50200,305305,311180
1629376351324,50215,305325,311198
1629376351334,50225,305394,311158
1629376351344,50243,305434,311196
1629376351354,50262,305370,311186
1629376351364,50268,305369,311199
1629376351374,50286,305437,311220
1629376351384,50311,305386,311205
1629376351394,50329,305395,311211
1629376351404,50335,305443,311256
1629376351414,50358,305447,311231
1629376351424,50373,305484,311236
1629376351434,50389,305479,311247
1629376351444,50408,305442,311241
1629376351454,50420,305505,311259
1629376351464,50442,305457,311252
1629376351474,50453,305529,311267
1629376351484,50472,305515,311269
1629376351494,50472,305518,311269
1629376351504,50499,305505,311317
1629376351514,50532,305481,311327
1629376351524,50530,305478,311319
1629376351534,50551,305448,311345
1629376351544,50552,305444,311343
1629376351554,50560,305421,311350
1629376351564,50556,305439,311369
1629376351574,50544,305416,311399
1629376351584,50522,305396,311390
1629376351594,50515,305339,311382
1629376351604,50502,305313,311395
1629376351614,50484,305325,311430
1629376351624,50466,305328,311377
1629376351634,50461,305317,311376
1629376351644,50435,305291,311377
1629376351654,50419,305297,311399
1629376351664,50408,305290,311390
1629376351674,50399,305233,311358
1629376351684,50389,305240,311387
1629376351694,50362,305272,311372
1629376351704,50351,305212,311413
1629376351714,50335,305207,311382
1629376351724,50327,305250,311361
1629376351734,50311,305239,311381
1629376351744,50300,305187,311360
1629376351754,50283,305164,311374
1629376351764,50264,305217,311370
1629376351774,50257,305217,311368
1629376351784,50249,305234,311333
1629376351794,50234,305168,311360
1629376351804,50243,305216,311334
1629376351814,50233,305175,311312
1629376351824,50224,305203,311335
1629376351834,50217,305224,311327
1629376351844,50212,305226,311353
1629376351854,50202,305257,311343
1629376351864,50203,305229,311325
1629376351874,50198,305157,311328
1629376351884,50188,305225,311310
1629376351894,50185,305197,311329
1629376351904,50190,305219,311283
1629376351914,50172,305192,311352
1629376351924,50171,305217,311314
1629376351934,50159,305206,311290
1629376351944,50160,305238,311306
1629376351954,50148,305204,311312
1629376351964,50157,305203,311284
1629376351974,50148,305230,311299
1629376351984,50149,305164,311275
1629376351994,50154,305214,311280
1629376352004,50152,305233,311264
1629376352014,50146,305256,311218
1629376352024,50160,305206,311270
1629376352034,50167,305225,311257
1629376352044,50173,305208,311303
1629376352054,50171,305220,311236
1629376352064,50179,305280,311251
1629376352074,50184,305257,311276
1629376352084,50188,305208,311249
1629376352094,50193,305248,311292
1629376352104,50189,305326,311254
1629376352114,50207,305286,311249
1629376352124,50213,305307,311268
1629376352134,50218,305272,311256
1629376352144,50227,305335,311256
1629376352154,50245,305280,311247
1629376352164,50246,305305,311226
1629376352174,50257,305340,311261
1629376352184,50259,305314,311277
1629376352194,50275,305346,311209
1629376352204,50286,305358,311267
1629376352214,50297,305399,311250
1629376352224,50312,305390,311243
1629376352234,50315,305393,311241
1629376352244,50329,305408,311215
1629376352254,50344,305388,311231
1629376352264,50375,305425,311246
1629376352274,50370,305438,311254
1629376352284,50388,305407,311251
1629376352294,50398,305441,311256
1629376352304,50422,305455,311239
1629376352314,50425,305505,311265
1629376352324,50444,305442,311249
1629376352334,50444,305535,311244
1629376352344,50464,305508,311271
1629376352354,50479,305511,311263
1629376352364,50493,305521,311244
1629376352374,50506,305528,311275
1629376352384,50521,305535,311277
1629376352394,50539,305569,311254
1629376352404,50553,305569,311282
1629376352414,50557,305558,311277
1629376352424,50579,305605,311292
1629376352434,50602,305606,311287
1629376352444,50608,305585,311242
1629376352454,50625,305653,311290
1629376352464,50648,305673,311320
1629376352474,50667,305590,311294
1629376352484,50672,305621,311273
1629376352494,50698,305653,311302
1629376352504,50710,305703,311304
1629376352514,50733,305640,311309
1629376352524,50755,305664,311356
1629376352534,50760,305654,311349
1629376352544,50762,305599,311386
1629376352554,50757,305594,311381
1629376352564,50751,305579,311379
1629376352574,50739,305583,311373
1629376352584,50728,305553,311378
1629376352594,50704,305550,311430
1629376352604,50695,305569,311378
1629376352614,50693,305500,311339
1629376352624,50667,305523,311375
1629376352634,50643,305472,311352
1629376352644,50634,305463,311409
1629376352654,50614,305501,311368
1629376352664,50601,305453,311368
1629376352674,50589,305479,311313
1629376352684,50567,305467,311318
1629376352694,50555,305467,311344
1629376352704,50537,305458,311345
1629376352714,50525,305423,311332
1629376352724,50502,305464,311346
1629376352734,50486,305437,311338
1629376352744,50468,305436,311338
1629376352754,50455,305423,311355
1629376352764,50441,305398,311285
1629376352774,50430,305422,311314
1629376352784,50402,305408,311280
1629376352794,50404,305421,311305
1629376352804,50386,305404,311293
1629376352814,50382,305454,311274
1629376352824,50370,305419,311291
1629376352834,50374,305443,311255
1629376352844,50359,305390,311280
1629376352854,50353,305410,311260
1629376352864,50345,305398,311230
1629376352874,50346,305409,311255
1629376352884,50335,305359,311263
1629376352894,50334,305398,311268
1629376352904,50325,305362,311285
1629376352914,50318,305391,311261
1629376352924,50312,305398,311220
1629376352934,50313,305378,311238
1629376352944,50303,305378,311223
1629376352954,50308,305393,311249
1629376352964,50305,305358,311278
1629376352974,50311,305399,311267
1629376352984,50304,305386,311262
1629376352994,50304,305360,311252
1629376353004,50307,305355,311246
1629376353014,50313,305356,311237
1629376353024,50314,305408,311262
1629376353034,50318,305390,311236
1629376353044,50325,305371,311246
1629376353054,50330,305383,311259
1629376353064,50334,305434,311250
1629376353074,50344,305424,311230
1629376353084,50356,305388,311293
1629376353094,50355,305421,311261
1629376353104,50355,305445,311233
1629376353114,50369,305424,311258
1629376353124,50378,305462,311231
1629376353134,50382,305493,311243
1629376353144,50395,305481,311257
1629376353154,50402,305492,311282
1629376353164,50411,305516,311268
1629376353174,50426,305480,311284
1629376353184,50430,305508,311286
1629376353194,50441,305482,311305
1629376353204,50461,305529,311276
1629376353214,50474,305565,311278
1629376353224,50482,305545,311257
1629376353234,50497,305565,311266
1629376353244,50506,305574,311283
1629376353254,50519,305610,311277
1629376353264,50530,305579,311288
1629376353274,50533,305591,311275
1629376353284,50557,305620,311279
1629376353294,50578,305658,311312
1629376353304,50584,305625,311290
1629376353314,50601,305637,311321
1629376353324,50611,305673,311315
1629376353334,50625,305652,311299
1629376353344,50641,305695,311326
1629376353354,50648,305693,311310
1629376353364,50667,305694,311305
1629376353374,50679,305694,311345
1629376353384,50703,305715,311347
1629376353394,50714,305731,311344
1629376353404,50741,305725,311345
1629376353414,50743,305695,311343
1629376353424,50750,305690,311362
1629376353434,50768,305777,311368
1629376353444,50793,305741,311380
1629376353454,50809,305793,311395
1629376353464,50822,305790,311394
1629376353474,50843,305782,311387
1629376353484,50862,305799,311388
1629376353494,50883,305774,311432
1629376353504,50893,305810,311426
1629376353514,50925,305849,311457
1629376353524,50938,305792,311447
1629376353534,50956,305771,311484
1629376353544,50967,305754,311504
1629376353554,50971,305758,311526
1629376353564,50978,305760,311548
1629376353574,50979,305726,311542
1629376353584,50962,305727,311609
1629376353594,50948,305727,311564
1629376353604,50938,305652,311549
1629376353614,50913,305686,311564
1629376353624,50905,305687,311525
1629376353634,50890,305725,311544
1629376353644,50884,305698,311534
1629376353654,50863,305649,311532
1629376353664,50850,305683,311563
1629376353674,50838,305670,311560
1629376353684,50834,305649,311575
1629376353694,50818,305633,311542
1629376353704,50807,305665,311532
1629376353714,50786,305661,311532
1629376353724,50790,305604,311568
1629376353734,50770,305619,311540
1629376353744,50756,305640,311520
1629376353754,50720,305663,311547
1629376353764,50721,305621,311544
1629376353774,50718,305639,311515
1629376353784,50701,305629,311514
1629376353794,50687,305624,311480
1629376353804,50689,305631,311459
1629376353814,50684,305566,311482
1629376353824,50680,305604,311485
1629376353834,50677,305603,311469
1629376353844,50668,305597,311484
1629376353854,50660,305609,311489
1629376353864,50660,305599,311484
1629376353874,50645,305633,311472
1629376353884,50652,305629,311449
1629376353894,50641,305582,311435
1629376353904,50642,305666,311450
1629376353914,50633,305578,311478
1629376353924,50622,305590,311501
1629376353934,50608,305658,311459
1629376353944,50614,305640,311433
1629376353954,50616,305644,311451
1629376353964,50620,305635,311420
1629376353974,50612,305619,311440
1629376353984,50616,305616,311455
1629376353994,50619,305619,311437
1629376354004,50613,305648,311436
1629376354014,50607,305614,311433
1629376354024,50623,305670,311403
1629376354034,50627,305635,311438
1629376354044,50625,305675,311399
1629376354054,50626,305684,311397
1629376354064,50622,305711,311404
1629376354074,50648,305621,311400
1629376354084,50649,305703,311401
1629376354094,50651,305683,311410
1629376354104,50654,305732,311394
1629376354114,50667,305742,311414
1629376354124,50675,305696,311423
1629376354134,50686,305742,311429
1629376354144,50695,305791,311415
1629376354154,50704,305763,311397
1629376354164,50714,305710,311427
1629376354174,50722,305789,311435
1629376354184,50735,305749,311437
1629376354194,50735,305740,311427
1629376354204,50747,305769,311418
1629376354214,50757,305795,311414
1629376354224,50768,305775,311415
1629376354234,50781,305789,311409
1629376354244,50788,305820,311452
1629376354254,50806,305809,311410
1629376354264,50810,305833,311408
1629376354274,50822,305822,311431
1629376354284,50842,305828,311376
1629376354294,50848,305834,311430
1629376354304,50848,305867,311425
1629376354314,50879,305888,311409
1629376354324,50890,305881,311417
1629376354334,50897,305875,311454
1629376354344,50909,305880,311433
1629376354354,50921,305912,311381
1629376354364,50938,305930,311381
1629376354374,50949,305943,311438
1629376354384,50968,305926,311392
1629376354394,50983,305931,311450
1629376354404,51005,305964,311405
1629376354414,51005,305947,311421
1629376354424,51023,305944,311439
1629376354434,51041,305932,311458
1629376354444,51058,306001,311435
1629376354454,51076,305941,311458
1629376354464,51089,305967,311449
1629376354474,51114,305983,311498
1629376354484,51118,305941,311529
1629376354494,51126,305940,311509
1629376354504,51130,305924,311562
1629376354514,51124,305905,311571
1629376354524,51108,305850,311539
1629376354534,51108,305833,311537
1629376354544,51096,305824,311571
1629376354554,51083,305827,311513
1629376354564,51065,305870,311554
1629376354574,51042,305831,311519
1629376354584,51025,305830,311559
1629376354594,51010,305859,311526
1629376354604,51002,305797,311542
1629376354614,50989,305766,311524
1629376354624,50969,305799,311505
1629376354634,50957,305771,311546
1629376354644,50943,305726,311537
1629376354654,50924,305769,311477
1629376354664,50905,305782,311511
1629376354674,50890,305772,311516
1629376354684,50874,305739,311462
1629376354694,50859,305745,311487
1629376354704,50847,305739,311489
1629376354714,50826,305738,311453
1629376354724,50808,305725,311475
1629376354734,50791,305693,311456
1629376354744,50794,305756,311463
1629376354754,50777,305714,311422
1629376354764,50774,305766,311406
1629376354774,50765,305757,311415
1629376354784,50746,305733,311393
1629376354794,50737,305729,311384
1629376354804,50739,305715,311427
1629376354814,50737,305708,311394
1629376354824,50725,305705,311393
1629376354834,50710,305682,311396
1629376354844,50711,305711,311385
1629376354854,50706,305712,311421
1629376354864,50694,305674,311378
1629376354874,50692,305738,311364
1629376354884,50677,305673,311370
1629376354894,50666,305723,311350
1629376354904,50673,305702,311336
1629376354914,50675,305675,311353
1629376354924,50672,305695,311369
1629376354934,50670,305733,311326
1629376354944,50672,305703,311350
1629376354954,50668,305714,311364
1629376354964,50659,305707,311366
1629376354974,50669,305762,311312
1629376354984,50666,305710,311326
1629376354994,50670,305740,311321
1629376355004,50678,305762,311328
1629376355014,50687,305765,311307
1629376355024,50686,305753,311306
1629376355034,50686,305795,311332
1629376355044,50690,305740,311321
1629376355054,50700,305817,311337
1629376355064,50703,305746,311327
1629376355074,50708,305802,311299
1629376355084,50713,305765,311288
1629376355094,50718,305752,311283
1629376355104,50727,305838,311294
1629376355114,50740,305807,311313
1629376355124,50745,305789,311298
1629376355134,50750,305797,311331
1629376355144,50760,305819,311298
1629376355154,50767,305805,311326
1629376355164,50778,305809,311317
1629376355174,50798,305825,311343
1629376355184,50794,305860,311315
1629376355194,50813,305874,311321
1629376355204,50817,305884,311310
1629376355214,50833,305904,311323
1629376355224,50835,305880,311335
1629376355234,50845,305874,311317
1629376355244,50856,305896,311354
1629376355254,50870,305887,311371
1629376355264,50885,305864,311332
1629376355274,50902,305894,311340
1629376355284,50902,305945,311369
1629376355294,50920,305943,311352
1629376355304,50931,305954,311351
1629376355314,50947,305975,311332
1629376355324,50958,305981,311316
1629376355334,50958,305955,311334
1629376355344,50991,305973,311342
1629376355354,51004,305986,311363
1629376355364,51009,305972,311374
1629376355374,51026,306015,311358
1629376355384,51035,306029,311361
1629376355394,51049,306017,311350
1629376355404,51069,306054,311364
1629376355414,51083,306026,311357
1629376355424,51103,306055,311386
1629376355434,51116,306101,311355
1629376355444,51132,306059,311378
1629376355454,51151,306048,311384
1629376355464,51166,306016,311430
1629376355474,51183,306059,311442
1629376355484,51181,306035,311443
1629376355494,51178,306023,311437
1629376355504,51190,305973,311441
1629376355514,51177,305951,311458
1629376355524,51157,305978,311519
1629376355534,51139,305970,311453
1629376355544,51123,305924,311499
1629376355554,51114,305878,311477
1629376355564,51088,305909,311509
1629376355574,51077,305861,311474
1629376355584,51057,305887,311463
1629376355594,51038,305864,311486
1629376355604,51020,305840,311499
1629376355614,51000,305824,311469
1629376355624,50980,305831,311437
1629376355634,50956,305862,311450
1629376355644,50942,305796,311476
1629376355654,50921,305785,311477
1629376355664,50900,305779,311458
1629376355674,50882,305756,311452
1629376355684,50868,305753,311453
1629376355694,50838,305745,311452
1629376355704,50816,305743,311426
1629376355714,50794,305716,311422
1629376355724,50778,305690,311385
1629376355734,50759,305711,311362
1629376355744,50732,305730,311406
1629376355754,50729,305713,311372
1629376355764,50717,305719,311358
1629376355774,50702,305728,311386
1629376355784,50690,305694,311394
1629376355794,50672,305678,311388
1629376355804,50661,305717,311372
1629376355814,50652,305685,311388
1629376355824,50636,305680,311368
1629376355834,50647,305692,311368
1629376355844,50607,305688,311378
1629376355854,50605,305692,311335
1629376355864,50592,305657,311374
1629376355874,50587,305646,311381
1629376355884,50576,305699,311370
1629376355894,50563,305654,311346
1629376355904,50557,305657,311343
1629376355914,50540,305640,311338
1629376355924,50537,305650,311324
1629376355934,50532,305668,311300
1629376355944,50528,305687,311330
1629376355954,50529,305652,311303
1629376355964,50523,305661,311305
1629376355974,50518,305688,311317
1629376355984,50516,305678,311328
1629376355994,50517,305689,311283
1629376356004,50514,305651,311292
1629376356014,50512,305688,311308
1629376356024,50517,305698,311287
1629376356034,50511,305705,311289
1629376356044,50514,305729,311306
1629376356054,50515,305724,311279
1629376356064,50517,305709,311295
1629376356074,50522,305716,311307
1629376356084,50535,305706,311284
1629376356094,50530,305693,311268
1629376356104,50536,305753,311268
1629376356114,50539,305724,311247
1629376356124,50541,305692,311276
1629376356134,50553,305734,311259
1629376356144,50548,305744,311300
1629376356154,50561,305746,311273
1629376356164,50560,305750,311281
1629376356174,50572,305742,311291
1629376356184,50592,305722,311249
1629376356194,50593,305741,311273
1629376356204,50605,305781,311307
1629376356214,50600,305817,311310
1629376356224,50612,305807,311279
1629376356234,50630,305773,311291
1629376356244,50636,305816,311262
1629376356254,50641,305812,311286
1629376356264,50653,305813,311290
1629376356274,50657,305806,311326
1629376356284,50676,305848,311311
1629376356294,50682,305842,311317
1629376356304,50684,305844,311312
1629376356314,50708,305813,311356
1629376356324,50714,305891,311282
1629376356334,50730,305858,311320
1629376356344,50730,305867,311307
1629376356354,50749,305892,311346
1629376356364,50763,305912,311312
1629376356374,50776,305849,311324
1629376356384,50782,305913,311354
1629376356394,50800,305926,311365
1629376356404,50813,305915,311356
1629376356414,50829,305904,311314
1629376356424,50847,305941,311359
1629376356434,50858,305944,311373
1629376356444,50870,305955,311368
1629376356454,50891,305974,311394
1629376356464,50902,305949,311390
1629376356474,50922,305914,311378
1629376356484,50929,305903,311418
1629376356494,50943,305905,311429
1629376356504,50928,305858,311473
1629376356514,50915,305884,311461
1629376356524,50916,305854,311457
1629376356534,50894,305804,311488
1629376356544,50869,305824,311454
1629376356554,50855,305845,311479
1629376356564,50827,305775,311459
1629376356574,50804,305736,311465
1629376356584,50783,305770,311463
1629376356594,50766,305724,311474
1629376356604,50740,305737,311465
1629376356614,50722,305714,311496
1629376356624,50706,305727,311421
1629376356634,50683,305689,311448
1629376356644,50651,305686,311414
1629376356654,50639,305663,311449
1629376356664,50615,305632,311435
1629376356674,50590,305644,311414
1629376356684,50565,305623,311423
1629376356694,50546,305668,311433
1629376356704,50530,305618,311400
1629376356714,50505,305621,311405
1629376356724,50485,305602,311426
1629376356734,50476,305576,311366
1629376356744,50455,305575,311373
1629376356754,50443,305621,311352
1629376356764,50436,305595,311364
1629376356774,50422,305587,311382
1629376356784,50405,305555,311363
1629376356794,50396,305586,311346
1629376356804,50386,305556,311353
1629376356814,50379,305545,311358
1629376356824,50361,305562,311375
1629376356834,50346,305533,311399
1629376356844,50340,305495,311344
1629376356854,50319,305537,311355
1629376356864,50307,305492,311338
1629376356874,50300,305515,311297
1629376356884,50294,305522,311334
1629376356894,50282,305550,311319
1629376356904,50275,305496,311341
1629376356914,50261,305509,311325
1629376356924,50256,305530,311324
1629376356934,50256,305505,311283
1629376356944,50248,305463,311284
1629376356954,50250,305486,311314
1629376356964,50238,305475,311300
1629376356974,50240,305481,311281
1629376356984,50240,305512,311306
1629376356994,50242,305531,311299
1629376357004,50237,305503,311312
1629376357014,50236,305500,311326
1629376357024,50236,305519,311291
1629376357034,50243,305469,311297
1629376357044,50234,305539,311268
1629376357054,50246,305544,311284
1629376357064,50243,305490,311301
1629376357074,50255,305513,311286
1629376357084,50253,305522,311312
1629376357094,50252,305521,311297
1629376357104,50262,305500,311312
1629376357114,50260,305555,311316
1629376357124,50273,305547,311267
1629376357134,50269,305541,311295
1629376357144,50277,305523,311279
1629376357154,50289,305566,311310
1629376357164,50299,305524,311310
1629376357174,50307,305529,311282
1629376357184,50300,305545,311286
1629376357194,50321,305561,311275
1629376357204,50327,305616,311291
1629376357214,50331,305563,311288
1629376357224,50332,305570,311282
1629376357234,50345,305553,311321
1629376357244,50359,305621,311242
1629376357254,50363,305595,311281
1629376357264,50374,305595,311267
1629376357274,50374,305589,311292
1629376357284,50381,305578,311280
1629376357294,50387,305657,311309
1629376357304,50397,305645,311307
1629376357314,50410,305651,311276
1629376357324,50428,305668,311265
1629376357334,50440,305645,311323
1629376357344,50454,305652,311292
1629376357354,50471,305659,311299
1629376357364,50473,305666,311303
1629376357374,50484,305708,311316
1629376357384,50504,305709,311290
1629376357394,50515,305750,311294
1629376357404,50526,305744,311326
1629376357414,50544,305692,311320
1629376357424,50548,305747,311349
1629376357434,50570,305727,311343
1629376357444,50588,305708,311355
1629376357454,50581,305685,311342
1629376357464,50568,305658,311385
1629376357474,50547,305630,311416
1629376357484,50549,305644,311415
1629376357494,50519,305599,311433
1629376357504,50503,305574,311419
1629376357514,50476,305573,311360
1629376357524,50451,305530,311382
1629376357534,50423,305546,311400
1629376357544,50407,305572,311378
1629376357554,50387,305516,311379
1629376357564,50366,305528,311360
1629376357574,50352,305492,311380
1629376357584,50321,305456,311366
1629376357594,50303,305508,311381
1629376357604,50282,305468,311359
1629376357614,50267,305473,311355
1629376357624,50237,305454,311374
1629376357634,50211,305421,311377
1629376357644,50189,305437,311368
1629376357654,50172,305444,311353
1629376357664,50152,305397,311343
1629376357674,50130,305418,311325
1629376357684,50100,305418,311299
1629376357694,50093,305358,311308
1629376357704,50075,305380,311267
1629376357714,50068,305409,311279
1629376357724,50048,305370,311277
1629376357734,50041,305397,311257
1629376357744,50030,305376,311262
1629376357754,50017,305403,311249
1629376357764,50014,305362,311257
1629376357774,49985,305364,311270
1629376357784,49980,305343,311264
1629376357794,49975,305358,311271
1629376357804,49957,305329,311222
1629376357814,49954,305363,311231
1629376357824,49942,305375,311222
1629376357834,49931,305348,311217
1629376357844,49929,305327,311211
1629376357854,49917,305335,311203
1629376357864,49916,305375,311195
1629376357874,49902,305346,311209
1629376357884,49904,305305,311185
1629376357894,49899,305330,311223
1629376357904,49894,305368,311173
1629376357914,49900,305375,311174
1629376357924,49889,305341,311215
1629376357934,49889,305374,311200
1629376357944,49896,305379,311159
1629376357954,49902,305386,311174
1629376357964,49900,305384,311167
1629376357974,49905,305356,311169
1629376357984,49897,305387,311176
1629376357994,49911,305387,311151
1629376358004,49922,305413,311165
1629376358014,49907,305384,311161
1629376358024,49921,305423,311184
1629376358034,49926,305421,311172
1629376358044,49943,305442,311163
1629376358054,49953,305415,311175
1629376358064,49953,305434,311192
1629376358074,49961,305426,311160
1629376358084,49967,305407,311191
1629376358094,49979,305439,311177
1629376358104,49982,305454,311159
1629376358114,49996,305431,311162
1629376358124,49996,305479,311186
1629376358134,50017,305512,311180
1629376358144,50019,305472,311189
1629376358154,50021,305466,311195
1629376358164,50036,305489,311192
1629376358174,50046,305492,311191
1629376358184,50059,305470,311173
1629376358194,50061,305526,311185
1629376358204,50075,305495,311224
1629376358214,50083,305511,311230
1629376358224,50093,305557,311217
1629376358234,50108,305539,311191
1629376358244,50112,305562,311228
1629376358254,50121,305564,311210
1629376358264,50128,305557,311217
1629376358274,50147,305612,311228
1629376358284,50168,305581,311206
1629376358294,50168,305617,311220
1629376358304,50191,305606,311236
1629376358314,50208,305620,311209
1629376358324,50223,305639,311245
1629376358334,50238,305656,311253
1629376358344,50254,305629,311249
1629376358354,50264,305651,311222
1629376358364,50282,305620,311255
1629376358374,50295,305673,311272
1629376358384,50314,305655,311323
1629376358394,50313,305618,311313
1629376358404,50311,305547,311339
1629376358414,50311,305577,311330
1629376358424,50302,305540,311369
1629376358434,50280,305541,311343
1629376358444,50261,305495,311342
1629376358454,50244,305520,311341
1629376358464,50219,305493,311397
1629376358474,50202,305456,311373
1629376358484,50179,305459,311402
1629376358494,50150,305450,311348
1629376358504,50125,305418,311320
1629376358514,50108,305438,311346
1629376358524,50093,305400,311355
1629376358534,50069,305407,311315
1629376358544,50041,305388,311362
1629376358554,50017,305327,311308
1629376358564,49987,305361,311299
1629376358574,49961,305326,311275
1629376358584,49924,305352,311265
1629376358594,49915,305328,311281
1629376358604,49890,305337,311272
1629376358614,49865,305343,311263
1629376358624,49841,305267,311246
1629376358634,49819,305320,311239
1629376358644,49795,305265,311252
1629376358654,49789,305306,311238
1629376358664,49770,305277,311202
1629376358674,49755,305310,311207
1629376358684,49745,305265,311190
1629376358694,49735,305244,311201
1629376358704,49712,305226,311215
1629376358714,49708,305218,311207
1629376358724,49695,305205,311182
1629376358734,49692,305264,311219
1629376358744,49669,305253,311172
1629376358754,49660,305252,311162
1629376358764,49651,305222,311178
1629376358774,49630,305188,311147
1629376358784,49635,305208,311181
1629376358794,49619,305240,311166
1629376358804,49619,305218,311197
1629376358814,49607,305206,311215
1629376358824,49598,305244,311169
1629376358834,49597,305220,311175
1629376358844,49587,305207,311161
1629376358854,49590,305210,311126
1629376358864,49591,305187,311145
1629376358874,49586,305232,311174
1629376358884,49583,305226,311155
1629376358894,49593,305236,311142
1629376358904,49590,305203,311154
1629376358914,49581,305261,311132
1629376358924,49578,305273,311134
1629376358934,49593,305290,311138
1629376358944,49609,305276,311120
1629376358954,49596,305271,311146
1629376358964,49604,305304,311104
1629376358974,49613,305318,311116
1629376358984,49610,305231,311153
1629376358994,49622,305276,311154
1629376359004,49624,305293,311143
1629376359014,49629,305326,311144
1629376359024,49644,305288,311140
1629376359034,49644,305359,311121
1629376359044,49658,305344,311138
1629376359054,49664,305362,311151
1629376359064,49679,305352,311160
1629376359074,49684,305331,311166
1629376359084,49698,305344,311143
1629376359094,49712,305367,311208
1629376359104,49717,305378,311172
1629376359114,49723,305392,311159
1629376359124,49741,305399,311178
1629376359134,49744,305375,311149
1629376359144,49753,305383,311200
1629376359154,49778,305431,311209
1629376359164,49786,305403,311213
1629376359174,49794,305429,311202
1629376359184,49810,305432,311205
1629376359194,49826,305420,311202
1629376359204,49833,305451,311202
1629376359214,49848,305395,311239
1629376359224,49858,305455,311227
1629376359234,49873,305465,311235
1629376359244,49893,305438,311300
1629376359254,49908,305520,311222
1629376359264,49915,305524,311192
1629376359274,49934,305500,311258
1629376359284,49955,305532,311232
1629376359294,49967,305531,311269
1629376359304,49984,305549,311307
1629376359314,50006,305639,311295
1629376359324,50022,305612,311289
1629376359334,50039,305605,311306
1629376359344,50048,305623,311329
1629376359354,50069,305596,311291
1629376359364,50083,305573,311335
1629376359374,50106,305552,311330
1629376359384,50100,305547,311382
1629376359394,50123,305571,311365
1629376359404,50114,305536,311402
1629376359414,50116,305493,311380
1629376359424,50095,305474,311432
1629376359434,50086,305477,311409
1629376359444,50072,305446,311410
1629376359454,50049,305444,311384
1629376359464,50021,305418,311385
1629376359474,50006,305436,311408
1629376359484,49988,305436,311423
1629376359494,49973,305401,311430
1629376359504,49948,305383,311413
1629376359514,49925,305397,311413
1629376359524,49914,305389,311408
1629376359534,49887,305349,311376
1629376359544,49869,305333,311395
1629376359554,49863,305327,311397
1629376359564,49844,305299,311381
1629376359574,49816,305273,311378
1629376359584,49797,305327,311375
1629376359594,49773,305339,311410
1629376359604,49753,305246,311375
1629376359614,49733,305265,311378
1629376359624,49719,305293,311365
1629376359634,49696,305247,311348
1629376359644,49682,305275,311346
1629376359654,49666,305260,311352
1629376359664,49666,305254,311324
1629376359674,49654,305248,311350
1629376359684,49644,305240,311330
1629376359694,49633,305238,311315
1629376359704,49614,305280,311327
1629376359714,49611,305202,311329
1629376359724,49609,305234,311306
1629376359734,49590,305280,311285
1629376359744,49575,305255,311322
1629376359754,49569,305205,311295
1629376359764,49570,305191,311344
1629376359774,49567,305243,311316
1629376359784,49552,305195,311284
1629376359794,49554,305245,311288
1629376359804,49548,305216,311329
1629376359814,49539,305205,311316
1629376359824,49538,305279,311323
1629376359834,49545,305217,311316
1629376359844,49540,305272,311335
1629376359854,49536,305218,311339
1629376359864,49541,305245,311324
1629376359874,49542,305277,311310
1629376359884,49542,305255,311313
1629376359894,49543,305253,311292
1629376359904,49554,305235,311346
1629376359914,49540,305265,311354
1629376359924,49549,305298,311320
1629376359934,49559,305307,311348
1629376359944,49570,305261,311340
1629376359954,49562,305268,311355
1629376359964,49585,305296,311327
1629376359974,49584,305286,311349
1629376359984,49587,305348,311361
1629376359994,49595,305282,311368
1629376360004,49602,305341,311359
1629376360014,49615,305277,311364
1629376360024,49620,305329,311385
1629376360034,49635,305355,311387
1629376360044,49646,305321,311361
1629376360054,49648,305274,311381
1629376360064,49666,305352,311364
1629376360074,49664,305362,311375
1629376360084,49680,305343,311373
1629376360094,49699,305366,311412
1629376360104,49696,305360,311404
1629376360114,49708,305346,311432
1629376360124,49718,305404,311398
1629376360134,49737,305330,311398
1629376360144,49750,305413,311436
1629376360154,49753,305367,311429
1629376360164,49766,305387,311424
1629376360174,49783,305386,311404
1629376360184,49794,305386,311438
1629376360194,49792,305403,311445
1629376360204,49815,305397,311407
1629376360214,49833,305466,311432
1629376360224,49841,305413,311438
1629376360234,49861,305396,311424
1629376360244,49861,305468,311429
1629376360254,49886,305464,311449
1629376360264,49891,305454,311464
1629376360274,49910,305461,311422
1629376360284,49928,305488,311446
1629376360294,49950,305497,311432
1629376360304,49975,305531,311445
1629376360314,49972,305519,311422
1629376360324,49993,305469,311488
1629376360334,50005,305503,311490
1629376360344,50023,305462,311494
1629376360354,50019,305436,311546
1629376360364,50032,305456,311520
1629376360374,50033,305451,311566
1629376360384,50012,305423,311548
1629376360394,49999,305364,311551
1629376360404,49987,305353,311567
1629376360414,49968,305395,311553
1629376360424,49945,305306,311560
1629376360434,49923,305339,311572
1629376360444,49910,305352,311555
1629376360454,49900,305295,311598
1629376360464,49888,305325,311527
1629376360474,49872,305273,311553
1629376360484,49852,305284,311530
1629376360494,49837,305279,311563
1629376360504,49824,305281,311549
1629376360514,49797,305216,311547
1629376360524,49785,305216,311540
1629376360534,49756,305201,311543
1629376360544,49752,305235,311567
1629376360554,49720,305207,311521
1629376360564,49705,305194,311506
1629376360574,49681,305197,311520
1629376360584,49670,305215,311505
1629376360594,49657,305171,311483
1629376360604,49644,305195,311520
1629376360614,49642,305216,311494
1629376360624,49637,305201,311487
1629376360634,49631,305216,311470
1629376360644,49621,305171,311509
1629376360654,49611,305180,311512
1629376360664,49602,305168,311483
1629376360674,49598,305157,311475
1629376360684,49578,305168,311501
1629376360694,49572,305149,311472
1629376360704,49581,305150,311466
1629376360714,49565,305159,311460
1629376360724,49557,305139,311466
1629376360734,49562,305145,311474
1629376360744,49561,305139,311451
1629376360754,49551,305163,311453
1629376360764,49551,305165,311466
1629376360774,49546,305151,311454
1629376360784,49542,305163,311468
1629376360794,49547,305196,311462
1629376360804,49545,305185,311465
1629376360814,49545,305172,311458
1629376360824,49548,305210,311455
1629376360834,49554,305180,311474
1629376360844,49553,305179,311438
1629376360854,49552,305226,311460
1629376360864,49572,305207,311464
1629376360874,49557,305164,311464
1629376360884,49571,305166,311440
1629376360894,49579,305209,311433
1629376360904,49593,305218,311436
1629376360914,49587,305185,311457
1629376360924,49606,305193,311464
1629376360934,49610,305228,311446
1629376360944,49615,305228,311487
1629376360954,49628,305225,311468
1629376360964,49636,305277,311444
1629376360974,49643,305207,311411
1629376360984,49661,305239,311445
1629376360994,49664,305272,311466
1629376361004,49674,305255,311443
1629376361014,49692,305281,311464
1629376361024,49697,305294,311449
1629376361034,49710,305285,311443
1629376361044,49720,305248,311490
1629376361054,49743,305278,311482
1629376361064,49749,305305,311500
1629376361074,49761,305294,311486
1629376361084,49765,305321,311532
1629376361094,49787,305362,311528
1629376361104,49808,305325,311486
1629376361114,49808,305342,311501
1629376361124,49825,305336,311479
1629376361134,49842,305338,311493
1629376361144,49863,305375,311535
1629376361154,49857,305394,311515
1629376361164,49885,305392,311529
1629376361174,49898,305376,311540
1629376361184,49909,305387,311540
1629376361194,49918,305418,311540
1629376361204,49951,305426,311552
1629376361214,49962,305448,311556
1629376361224,49982,305449,311534
1629376361234,49990,305455,311561
1629376361244,50016,305488,311587
1629376361254,50024,305514,311596
1629376361264,50050,305498,311594
1629376361274,50071,305533,311608
1629376361284,50082,305459,311606
1629376361294,50104,305499,311633
1629376361304,50116,305486,311666
1629376361314,50121,305440,311702
1629376361324,50128,305455,311679
1629376361334,50121,305396,311719
1629376361344,50111,305450,311721
1629376361354,50082,305380,311722
1629376361364,50074,305390,311737
1629376361374,50060,305357,311729
1629376361384,50043,305407,311744
1629376361394,50019,305331,311746
1629376361404,50010,305327,311719
1629376361414,49980,305326,311713
1629376361424,49970,305255,311715
1629376361434,49950,305277,311707
1629376361444,49933,305287,311721
1629376361454,49907,305246,311726
1629376361464,49890,305299,311669
1629376361474,49876,305295,311705
1629376361484,49863,305282,311682
1629376361494,49834,305165,311716
1629376361504,49829,305224,311694
1629376361514,49786,305241,311660
1629376361524,49775,305207,311655
1629376361534,49741,305192,311682
1629376361544,49731,305139,311635
1629376361554,49714,305181,311620
1629376361564,49693,305174,311620
1629376361574,49690,305149,311647
1629376361584,49674,305188,311650
1629376361594,49665,305204,311643
1629376361604,49659,305178,311612
1629376361614,49645,305166,311662
1629376361624,49642,305164,311630
1629376361634,49632,305140,311635
1629376361644,49610,305181,311647
1629376361654,49619,305172,311632
1629376361664,49604,305112,311646
1629376361674,49591,305155,311635
1629376361684,49582,305142,311629
1629376361694,49577,305160,311638
1629376361704,49575,305139,311626
1629376361714,49566,305131,311619
1629376361724,49567,305140,311643
1629376361734,49562,305124,311619
1629376361744,49555,305146,311624
1629376361754,49559,305151,311606
1629376361764,49555,305154,311605
1629376361774,49549,305191,311636
1629376361784,49548,305170,311630
1629376361794,49545,305131,311614
1629376361804,49546,305138,311618
1629376361814,49552,305161,311599
1629376361824,49546,305149,311608
1629376361834,49546,305203,311601
1629376361844,49549,305192,311608
1629376361854,49554,305165,311581
1629376361864,49569,305191,311619
1629376361874,49569,305171,311574
1629376361884,49569,305181,311582
1629376361894,49583,305226,311640
1629376361904,49591,305198,311591
1629376361914,49589,305207,311581
1629376361924,49604,305215,311577
1629376361934,49613,305271,311584
1629376361944,49615,305273,311594
1629376361954,49630,305241,311598
1629376361964,49637,305259,311630
1629376361974,49644,305261,311610
1629376361984,49665,305255,311598
1629376361994,49661,305296,311617
1629376362004,49689,305293,311633
1629376362014,49695,305281,311627
1629376362024,49695,305281,311613
1629376362034,49712,305287,311603
1629376362044,49728,305334,311631
1629376362054,49732,305319,311610
1629376362064,49749,305347,311607
1629376362074,49765,305353,311634
1629376362084,49777,305349,311638
1629376362094,49786,305329,311631
1629376362104,49805,305353,311664
1629376362114,49813,305400,311649
1629376362124,49830,305365,311651
1629376362134,49847,305395,311675
1629376362144,49855,305440,311699
1629376362154,49868,305396,311692
1629376362164,49890,305407,311658
1629376362174,49904,305443,311689
1629376362184,49911,305405,311676
1629376362194,49927,305454,311686
1629376362204,49950,305476,311694
1629376362214,49971,305451,311702
1629376362224,49984,305440,311688
1629376362234,50005,305497,311689
1629376362244,50021,305470,311755
1629376362254,50039,305525,311744
1629376362264,50056,305486,311769
1629376362274,50071,305555,311756
1629376362284,50099,305563,311751
1629376362294,50115,305541,311767
1629376362304,50132,305520,311761
1629376362314,50157,305507,311788
1629376362324,50160,305483,311812
1629376362334,50171,305464,311832
1629376362344,50170,305448,311852
1629376362354,50153,305418,311851
1629376362364,50147,305430,311868
1629376362374,50130,305414,311869
1629376362384,50117,305369,311909
1629376362394,50097,305385,311878
1629376362404,50079,305403,311871
1629376362414,50054,305351,311844
1629376362424,50035,305321,311867
1629376362434,50014,305330,311879
1629376362444,49996,305317,311851
1629376362454,49980,305287,311849
1629376362464,49948,305315,311881
1629376362474,49938,305281,311821
1629376362484,49921,305283,311836
1629376362494,49893,305261,311837
1629376362504,49871,305223,311790
1629376362514,49844,305268,311800
1629376362524,49821,305217,311761
1629376362534,49806,305207,311769
1629376362544,49788,305237,311757
1629376362554,49762,305246,311741
1629376362564,49746,305216,311763
1629376362574,49724,305149,311758
1629376362584,49715,305190,311729
1629376362594,49700,305211,311772
1629376362604,49690,305204,311723
1629376362614,49687,305198,311705
1629376362624,49671,305226,311737
1629376362634,49659,305187,311728
1629376362644,49664,305173,311704
1629376362654,49640,305158,311728
1629376362664,49625,305191,311697
1629376362674,49618,305179,311667
1629376362684,49605,305157,311686
1629376362694,49591,305153,311649
1629376362704,49577,305195,311657
1629376362714,49568,305194,311648
1629376362724,49565,305151,311652
1629376362734,49550,305162,311661
1629376362744,49543,305121,311649
1629376362754,49529,305182,311598
1629376362764,49523,305195,311569
1629376362774,49529,305230,311588
1629376362784,49521,305167,311581
1629376362794,49514,305231,311552
1629376362804,49514,305197,311547
1629376362814,49521,305242,311543
1629376362824,49523,305194,311542
1629376362834,49517,305217,311570
1629376362844,49525,305231,311548
1629376362854,49536,305244,311565
1629376362864,49533,305245,311556
1629376362874,49542,305245,311574
1629376362884,49555,305257,311575
1629376362894,49554,305287,311571
1629376362904,49574,305276,311578
1629376362914,49581,305236,311589
1629376362924,49586,305290,311565
1629376362934,49607,305289,311560
1629376362944,49615,305310,311592
1629376362954,49619,305264,311626
1629376362964,49633,305290,311647
1629376362974,49639,305310,311608
1629376362984,49651,305304,311668
1629376362994,49668,305327,311657
1629376363004,49677,305319,311618
1629376363014,49682,305357,311630
1629376363024,49693,305341,311621
1629376363034,49701,305354,311632
1629376363044,49713,305379,311659
1629376363054,49727,305408,311682
1629376363064,49738,305361,311668
1629376363074,49756,305375,311661
1629376363084,49769,305356,311673
1629376363094,49785,305393,311651
1629376363104,49790,305396,311693
1629376363114,49800,305428,311705
1629376363124,49819,305405,311716
1629376363134,49848,305436,311692
1629376363144,49856,305448,311686
1629376363154,49872,305471,311707
1629376363164,49886,305397,311707
1629376363174,49889,305446,311715
1629376363184,49902,305466,311725
1629376363194,49920,305477,311760
1629376363204,49950,305506,311766
1629376363214,49959,305533,311750
1629376363224,49973,305499,311750
1629376363234,49991,305511,311738
1629376363244,50004,305534,311766
1629376363254,50030,305523,311776
1629376363264,50041,305546,311781
1629376363274,50067,305525,311786
1629376363284,50083,305541,311795
1629376363294,50090,305551,311809
1629376363304,50119,305574,311802
1629376363314,50133,305609,311834
1629376363324,50150,305550,311839
1629376363334,50161,305555,311877
1629376363344,50173,305505,311889
1629376363354,50165,305565,311864
1629376363364,50163,305514,311910
1629376363374,50157,305456,311910
1629376363384,50138,305431,311908
1629376363394,50125,305428,311919
1629376363404,50107,305441,311912
1629376363414,50091,305390,311917
1629376363424,50069,305438,311910
1629376363434,50067,305439,311912
1629376363444,50047,305388,311913
1629376363454,50028,305366,311908
1629376363464,50016,305401,311899
1629376363474,49993,305346,311905
1629376363484,49967,305329,311907
1629376363494,49959,305345,311914
1629376363504,49955,305357,311870
1629376363514,49926,305325,311851
1629376363524,49906,305331,311863
1629376363534,49894,305276,311880
1629376363544,49870,305282,311905
1629376363554,49856,305292,311866
1629376363564,49854,305283,311873
1629376363574,49829,305268,311849
1629376363584,49823,305317,311802
1629376363594,49814,305294,311870
1629376363604,49802,305258,311849
1629376363614,49796,305295,311816
1629376363624,49784,305305,311807
1629376363634,49769,305269,311812
1629376363644,49778,305281,311817
1629376363654,49757,305295,311773
1629376363664,49757,305344,311806
1629376363674,49742,305314,311754
1629376363684,49740,305269,311760
1629376363694,49729,305280,311762
1629376363704,49726,305284,311762
1629376363714,49718,305272,311740
1629376363724,49717,305271,311749
1629376363734,49717,305254,311729
1629376363744,49717,305289,311776
1629376363754,49713,305319,311735
1629376363764,49719,305288,311752
1629376363774,49727,305283,311765
1629376363784,49713,305293,311767
1629376363794,49726,305322,311779
1629376363804,49735,305250,311791
1629376363814,49730,305289,311759
1629376363824,49739,305292,311784
1629376363834,49743,305343,311765
1629376363844,49747,305286,311759
1629376363854,49756,305359,311817
1629376363864,49759,305328,311792
1629376363874,49770,305335,311804
1629376363884,49777,305286,311778
1629376363894,49778,305351,311816
1629376363904,49793,305347,311823
1629376363914,49792,305338,311831
1629376363924,49804,305332,311844
1629376363934,49808,305334,311845
1629376363944,49826,305397,311810
1629376363954,49835,305422,311824
1629376363964,49839,305416,311816
1629376363974,49858,305396,311860
1629376363984,49867,305418,311836
1629376363994,49880,305381,311800
1629376364004,49892,305387,311872
1629376364014,49898,305430,311855
1629376364024,49910,305463,311880
1629376364034,49921,305439,311851
1629376364044,49931,305412,311880
1629376364054,49945,305426,311869
1629376364064,49956,305461,311837
1629376364074,49968,305431,311868
1629376364084,49978,305451,311849
1629376364094,49992,305433,311853
1629376364104,50010,305439,311866
1629376364114,50021,305457,311865
1629376364124,50022,305510,311879
1629376364134,50031,305508,311848
1629376364144,50041,305499,311856
1629376364154,50059,305512,311862
1629376364164,50080,305524,311843
1629376364174,50085,305522,311848
1629376364184,50109,305512,311816
1629376364194,50112,305558,311833
1629376364204,50127,305588,311849
1629376364214,50146,305567,311838
1629376364224,50156,305561,311845
1629376364234,50170,305627,311840
1629376364244,50190,305586,311819
1629376364254,50202,305601,311849
1629376364264,50234,305616,311873
1629376364274,50242,305633,311835
1629376364284,50264,305618,311857
1629376364294,50285,305625,311918
1629376364304,50290,305601,311914
1629376364314,50299,305594,311917
1629376364324,50306,305556,311939
1629376364334,50296,305537,311953
1629376364344,50291,305569,311958
1629376364354,50270,305505,311935
1629376364364,50257,305487,311948
1629376364374,50240,305494,311993
1629376364384,50223,305483,311953
1629376364394,50203,305489,311965
1629376364404,50180,305463,311951
1629376364414,50175,305446,311933
1629376364424,50165,305468,311949
1629376364434,50153,305480,311938
1629376364444,50146,305466,311954
1629376364454,50124,305417,311945
1629376364464,50103,305379,311931
1629376364474,50094,305339,311945
1629376364484,50068,305392,311965
1629376364494,50059,305403,311964
1629376364504,50042,305325,311937
1629376364514,50025,305377,311943
1629376364524,50007,305370,311934
1629376364534,49987,305338,311917
1629376364544,49973,305381,311906
1629376364554,49959,305324,311913
1629376364564,49948,305362,311902
1629376364574,49946,305368,311881
1629376364584,49940,305343,311859
1629376364594,49928,305344,311878
1629376364604,49924,305350,311882
1629376364614,49914,305372,311890
1629376364624,49907,305324,311872
1629376364634,49889,305314,311856
1629376364644,49894,305351,311860
1629376364654,49874,305337,311839
1629376364664,49867,305333,311862
1629376364674,49859,305314,311859
1629376364684,49850,305328,311825
1629376364694,49840,305353,311815
1629376364704,49836,305285,311831
1629376364714,49842,305287,311814
1629376364724,49826,305360,311807
1629376364734,49841,305264,311842
1629376364744,49834,305284,311803
1629376364754,49830,305336,311810
1629376364764,49826,305298,311825
1629376364774,49831,305276,311761
1629376364784,49833,305324,311810
1629376364794,49829,305338,311791
1629376364804,49833,305332,311792
1629376364814,49839,305386,311803
1629376364824,49834,305338,311812
1629376364834,49844,305361,311782
1629376364844,49847,305335,311786
1629376364854,49851,305361,311801
1629376364864,49863,305347,311791
1629376364874,49862,305336,311788
1629376364884,49877,305320,311778
1629376364894,49885,305342,311798
1629376364904,49884,305389,311784
1629376364914,49894,305369,311830
1629376364924,49905,305420,311788
1629376364934,49908,305403,311817
1629376364944,49921,305419,311798
1629376364954,49932,305405,311803
1629376364964,49941,305466,311791
1629376364974,49952,305437,311796
1629376364984,49966,305409,311811
1629376364994,49971,305451,311780
1629376365004,49978,305462,311832
1629376365014,49988,305440,311827
1629376365024,50004,305452,311831
1629376365034,50018,305484,311854
1629376365044,50025,305434,311810
1629376365054,50034,305477,311823
1629376365064,50042,305473,311828
1629376365074,50055,305496,311837
1629376365084,50076,305524,311791
1629376365094,50085,305516,311828
1629376365104,50095,305512,311838
1629376365114,50104,305543,311795
1629376365124,50118,305558,311856
1629376365134,50139,305524,311854
1629376365144,50151,305570,311864
1629376365154,50163,305547,311832
1629376365164,50176,305594,311863
1629376365174,50189,305580,311821
1629376365184,50209,305602,311861
1629376365194,50226,305582,311872
1629376365204,50239,305574,311869
1629376365214,50247,305592,311872
1629376365224,50273,305642,311884
1629376365234,50290,305611,311867
1629376365244,50288,305588,311891
1629376365254,50312,305627,311885
1629376365264,50323,305610,311916
1629376365274,50316,305533,311948
