timestamp,green,ir,red
1629376330006,43741,263820,248280
1629376330016,43727,263797,248273
1629376330026,43724,263797,248253
1629376330036,43696,263781,248235
1629376330046,43686,263748,248252
1629376330056,43669,263725,248265
1629376330066,43636,263750,248241
1629376330076,43617,263725,248264
1629376330086,43603,263724,248249
1629376330096,43576,263675,248239
1629376330106,43546,263677,248249
1629376330116,43530,263688,248227
1629376330126,43498,263632,248227
1629376330136,43471,263637,248234
1629376330146,43445,263628,248240
1629376330156,43427,263631,248248
1629376330166,43397,263562,248212
1629376330176,43369,263589,248224
1629376330186,43336,263603,248223
1629376330196,43299,263592,248205
1629376330206,43295,263524,248196
1629376330216,43264,263552,248219
1629376330226,43229,263571,248210
1629376330236,43186,263493,248239
1629376330246,43169,263515,248214
1629376330256,43158,263498,248223
1629376330266,43129,263515,248232
1629376330276,43110,263506,248200
1629376330286,43092,263548,248210
1629376330296,43069,263487,248229
1629376330306,43053,263494,248182
1629376330316,43037,263492,248193
1629376330326,43009,263429,248220
1629376330336,42988,263430,248217
1629376330346,42973,263451,248187
1629376330356,42953,263459,248175
1629376330366,42929,263430,248161
1629376330376,42914,263405,248177
1629376330386,42890,263422,248182
1629376330396,42875,263396,248191
1629376330406,42860,263418,248164
1629376330416,42837,263412,248160
1629376330426,42822,263350,248167
1629376330436,42808,263406,248148
1629376330446,42794,263370,248176
1629376330456,42784,263357,248170
1629376330466,42769,263354,248157
1629376330476,42755,263386,248126
1629376330486,42746,263356,248136
1629376330496,42739,263375,248160
1629376330506,42725,263335,248165
1629376330516,42711,263351,248143
1629376330526,42705,263337,248161
1629376330536,42702,263363,248151
1629376330546,42693,263339,248165
1629376330556,42681,263355,248158
1629376330566,42673,263339,248166
1629376330576,42683,263313,248165
1629376330586,42675,263316,248146
1629376330596,42672,263303,248114
1629376330606,42668,263318,248138
1629376330616,42668,263309,248144
1629376330626,42662,263305,248141
1629376330636,42656,263284,248144
1629376330646,42655,263279,248128
1629376330656,42654,263316,248134
1629376330666,42649,263283,248146
1629376330676,42653,263256,248161
1629376330686,42651,263273,248162
1629376330696,42647,263222,248136
1629376330706,42651,263245,248111
1629376330716,42643,263232,248162
1629376330726,42633,263222,248123
1629376330736,42651,263276,248152
1629376330746,42629,263224,248133
1629376330756,42637,263254,248140
1629376330766,42636,263272,248126
1629376330776,42636,263235,248149
1629376330786,42645,263248,248150
1629376330796,42634,263230,248131
1629376330806,42639,263261,248154
1629376330816,42643,263227,248108
1629376330826,42641,263256,248113
1629376330836,42642,263257,248099
1629376330846,42652,263263,248122
1629376330856,42656,263235,248144
1629376330866,42651,263248,248090
1629376330876,42650,263270,248089
1629376330886,42655,263253,248110
1629376330896,42660,263248,248092
1629376330906,42659,263242,248116
1629376330916,42645,263200,248113
1629376330926,42637,263208,248106
1629376330936,42621,263178,248079
1629376330946,42594,263171,248083
1629376330956,42567,263159,248059
1629376330966,42533,263163,248048
1629376330976,42507,263118,248041
1629376330986,42477,263092,248055
1629376330996,42438,263074,248032
1629376331006,42405,263057,248038
1629376331016,42364,263067,247997
1629376331026,42350,263045,248018
1629376331036,42303,262999,247975
1629376331046,42269,262955,248011
1629376331056,42235,262969,248001
1629376331066,42204,262984,247968
1629376331076,42167,262960,247969
1629376331086,42138,262893,247975
1629376331096,42103,262901,247978
1629376331106,42065,262928,247968
1629376331116,42034,262877,247967
1629376331126,41997,262845,247940
1629376331136,41973,262867,247935
1629376331146,41948,262835,247969
1629376331156,41916,262806,247921
1629376331166,41880,262827,247911
1629376331176,41867,262805,247916
1629376331186,41843,262756,247918
1629376331196,41818,262797,247912
1629376331206,41798,262799,247892
1629376331216,41777,262770,247916
1629376331226,41748,262760,247898
1629376331236,41724,262753,247886
1629376331246,41699,262733,247895
1629376331256,41683,262681,247888
1629376331266,41661,262722,247855
1629376331276,41641,262690,247835
1629376331286,41619,262686,247818
1629376331296,41597,262688,247860
1629376331306,41586,262678,247813
1629376331316,41569,262658,247807
1629376331326,41548,262635,247833
1629376331336,41536,262682,247818
1629376331346,41527,262610,247808
1629376331356,41516,262638,247824
1629376331366,41515,262615,247808
1629376331376,41498,262658,247787
1629376331386,41492,262628,247785
1629376331396,41476,262629,247813
1629376331406,41476,262623,247821
1629376331416,41465,262642,247789
1629376331426,41462,262633,247803
1629376331436,41454,262602,247779
1629376331446,41452,262579,247786
1629376331456,41446,262614,247829
1629376331466,41446,262595,247788
1629376331476,41447,262622,247794
1629376331486,41436,262618,247851
1629376331496,41439,262666,247834
1629376331506,41446,262624,247803
1629376331516,41433,262600,247809
1629376331526,41437,262629,247834
1629376331536,41427,262636,247811
1629376331546,41433,262621,247809
1629376331556,41440,262630,247811
1629376331566,41432,262654,247816
1629376331576,41431,262658,247796
1629376331586,41432,262664,247822
1629376331596,41437,262645,247799
1629376331606,41434,262653,247831
1629376331616,41429,262669,247810
1629376331626,41431,262651,247832
1629376331636,41438,262663,247843
1629376331646,41443,262627,247809
1629376331656,41441,262615,247806
1629376331666,41438,262642,247827
1629376331676,41448,262615,247791
1629376331686,41444,262648,247779
1629376331696,41457,262618,247796
1629376331706,41461,262682,247805
1629376331716,41467,262668,247807
1629376331726,41469,262681,247783
1629376331736,41476,262669,247802
1629376331746,41483,262645,247800
1629376331756,41491,262677,247821
1629376331766,41502,262674,247798
1629376331776,41509,262665,247793
1629376331786,41520,262677,247787
1629376331796,41523,262694,247786
1629376331806,41525,262676,247777
1629376331816,41532,262660,247773
1629376331826,41543,262635,247777
1629376331836,41546,262677,247779
1629376331846,41512,262636,247776
1629376331856,41509,262647,247707
1629376331866,41489,262616,247754
1629376331876,41466,262596,247698
1629376331886,41443,262605,247723
1629376331896,41405,262546,247719
1629376331906,41381,262523,247731
1629376331916,41350,262508,247684
1629376331926,41323,262505,247704
1629376331936,41285,262474,247698
1629376331946,41274,262502,247661
1629376331956,41238,262432,247693
1629376331966,41225,262478,247652
1629376331976,41205,262465,247627
1629376331986,41157,262456,247621
1629376331996,41139,262452,247611
1629376332006,41117,262407,247612
1629376332016,41100,262366,247619
1629376332026,41070,262368,247603
1629376332036,41043,262382,247593
1629376332046,41025,262329,247564
1629376332056,41013,262338,247601
1629376332066,40991,262340,247560
1629376332076,40986,262369,247571
1629376332086,40975,262339,247573
1629376332096,40963,262326,247598
1629376332106,40954,262332,247566
1629376332116,40947,262307,247599
1629376332126,40934,262308,247587
1629376332136,40929,262293,247612
1629376332146,40917,262269,247569
1629376332156,40902,262264,247540
1629376332166,40902,262276,247554
1629376332176,40889,262269,247589
1629376332186,40877,262266,247538
1629376332196,40869,262234,247530
1629376332206,40859,262250,247516
1629376332216,40857,262228,247551
1629376332226,40862,262225,247518
1629376332236,40846,262262,247483
1629376332246,40857,262228,247501
1629376332256,40846,262214,247477
1629376332266,40848,262215,247467
1629376332276,40849,262215,247462
1629376332286,40859,262211,247462
1629376332296,40853,262205,247447
1629376332306,40863,262240,247452
1629376332316,40871,262201,247437
1629376332326,40864,262246,247461
1629376332336,40870,262180,247455
1629376332346,40900,262208,247435
1629376332356,40893,262162,247461
1629376332366,40894,262198,247476
1629376332376,40902,262211,247440
1629376332386,40918,262206,247473
1629376332396,40925,262222,247486
1629376332406,40931,262240,247473
1629376332416,40935,262238,247464
1629376332426,40954,262225,247479
1629376332436,40967,262224,247478
1629376332446,40973,262265,247456
1629376332456,40989,262253,247458
1629376332466,40999,262271,247427
1629376332476,41009,262258,247464
1629376332486,41038,262324,247454
1629376332496,41037,262304,247485
1629376332506,41051,262320,247449
1629376332516,41064,262330,247479
1629376332526,41087,262337,247476
1629376332536,41098,262393,247495
1629376332546,41116,262420,247474
1629376332556,41123,262385,247488
1629376332566,41136,262385,247484
1629376332576,41155,262419,247488
1629376332586,41175,262422,247449
1629376332596,41192,262386,247462
1629376332606,41211,262422,247447
1629376332616,41219,262418,247451
1629376332626,41247,262415,247437
1629376332636,41272,262469,247425
1629376332646,41288,262461,247422
1629376332656,41299,262482,247421
1629376332666,41331,262533,247435
1629376332676,41357,262544,247440
1629376332686,41381,262536,247438
1629376332696,41410,262552,247432
1629376332706,41438,262571,247439
1629376332716,41458,262586,247455
1629376332726,41477,262590,247438
1629376332736,41502,262559,247461
1629376332746,41515,262557,247464
1629376332756,41535,262576,247469
1629376332766,41541,262580,247453
1629376332776,41539,262561,247430
1629376332786,41537,262581,247458
1629376332796,41519,262526,247421
1629376332806,41493,262535,247408
1629376332816,41494,262501,247431
1629376332826,41458,262502,247394
1629376332836,41441,262528,247434
1629376332846,41423,262527,247434
1629376332856,41410,262478,247414
1629376332866,41391,262491,247409
1629376332876,41375,262485,247418
1629376332886,41354,262532,247441
1629376332896,41345,262522,247431
1629376332906,41322,262534,247385
1629376332916,41310,262503,247413
1629376332926,41296,262487,247423
1629376332936,41268,262490,247399
1629376332946,41253,262471,247412
1629376332956,41218,262493,247409
1629376332966,41217,262468,247395
1629376332976,41198,262467,247416
1629376332986,41172,262453,247393
1629376332996,41167,262497,247397
1629376333006,41157,262482,247411
1629376333016,41153,262458,247421
1629376333026,41142,262501,247410
1629376333036,41136,262469,247356
1629376333046,41134,262491,247347
1629376333056,41130,262502,247345
1629376333066,41124,262471,247339
1629376333076,41126,262442,247329
1629376333086,41117,262471,247308
1629376333096,41112,262448,247344
1629376333106,41118,262473,247326
1629376333116,41104,262461,247318
1629376333126,41118,262484,247332
1629376333136,41110,262461,247314
1629376333146,41127,262493,247313
1629376333156,41127,262487,247339
1629376333166,41134,262504,247344
1629376333176,41146,262497,247321
1629376333186,41152,262517,247340
1629376333196,41159,262530,247329
1629376333206,41171,262533,247363
1629376333216,41175,262580,247371
1629376333226,41192,262585,247390
1629376333236,41203,262590,247383
1629376333246,41210,262594,247366
1629376333256,41216,262605,247387
1629376333266,41246,262601,247393
1629376333276,41254,262646,247426
1629376333286,41265,262664,247458
1629376333296,41284,262675,247452
1629376333306,41311,262686,247452
1629376333316,41323,262683,247454
1629376333326,41343,262695,247438
1629376333336,41353,262700,247411
1629376333346,41368,262702,247446
1629376333356,41387,262732,247470
1629376333366,41403,262748,247464
1629376333376,41419,262735,247471
1629376333386,41441,262730,247480
1629376333396,41464,262756,247454
1629376333406,41479,262755,247499
1629376333416,41492,262780,247464
1629376333426,41508,262788,247484
1629376333436,41540,262758,247489
1629376333446,41556,262836,247485
1629376333456,41569,262793,247447
1629376333466,41586,262812,247457
1629376333476,41601,262824,247425
1629376333486,41641,262841,247426
1629376333496,41668,262860,247440
1629376333506,41690,262896,247400
1629376333516,41737,262908,247422
1629376333526,41774,262914,247416
1629376333536,41802,262961,247419
1629376333546,41849,262997,247445
1629376333556,41896,262993,247416
1629376333566,41936,262981,247408
1629376333576,41980,263010,247401
1629376333586,42022,263033,247409
1629376333596,42074,263056,247392
1629376333606,42123,263093,247421
1629376333616,42160,263090,247424
1629376333626,42195,263079,247411
1629376333636,42239,263068,247445
1629376333646,42291,263071,247406
1629376333656,42324,263087,247425
1629376333666,42355,263083,247409
1629376333676,42373,263074,247409
1629376333686,42393,263019,247417
1629376333696,42405,263011,247409
1629376333706,42406,262996,247383
1629376333716,42407,263023,247379
1629376333726,42406,262978,247373
1629376333736,42407,262966,247328
1629376333746,42410,262981,247329
1629376333756,42418,262941,247350
1629376333766,42431,262923,247306
1629376333776,42425,262922,247297
1629376333786,42430,262908,247325
1629376333796,42437,262898,247293
1629376333806,42448,262870,247300
1629376333816,42456,262855,247276
1629376333826,42460,262882,247270
1629376333836,42470,262851,247261
1629376333846,42484,262878,247266
1629376333856,42492,262874,247286
1629376333866,42502,262863,247257
1629376333876,42509,262824,247251
1629376333886,42530,262803,247283
1629376333896,42539,262852,247233
1629376333906,42566,262843,247248
1629376333916,42580,262844,247246
1629376333926,42622,262833,247262
1629376333936,42640,262848,247271
1629376333946,42668,262907,247251
1629376333956,42695,262882,247242
1629376333966,42722,262900,247278
1629376333976,42744,262924,247234
1629376333986,42786,262908,247274
1629376333996,42808,262964,247254
1629376334006,42838,262907,247272
1629376334016,42868,262968,247267
1629376334026,42904,262957,247299
1629376334036,42941,262979,247297
1629376334046,42974,262994,247263
1629376334056,43014,262999,247316
1629376334066,43039,263024,247302
1629376334076,43083,263054,247348
1629376334086,43116,263048,247359
1629376334096,43143,263055,247375
1629376334106,43159,263063,247346
1629376334116,43212,263035,247374
1629376334126,43236,263058,247420
1629376334136,43268,263088,247441
1629376334146,43305,263120,247457
1629376334156,43329,263114,247480
1629376334166,43349,263078,247484
1629376334176,43374,263053,247511
1629376334186,43401,263086,247517
1629376334196,43420,263146,247532
1629376334206,43443,263117,247579
1629376334216,43463,263136,247589
1629376334226,43486,263105,247578
1629376334236,43506,263102,247590
1629376334246,43516,263140,247592
1629376334256,43524,263144,247605
1629376334266,43543,263122,247600
1629376334276,43553,263090,247634
1629376334286,43572,263101,247697
1629376334296,43561,263098,247656
1629376334306,43563,263136,247663
1629376334316,43565,263087,247673
1629376334326,43562,263076,247641
1629376334336,43568,263101,247677
1629376334346,43555,263123,247667
1629376334356,43560,263126,247694
1629376334366,43558,263124,247674
1629376334376,43556,263118,247672
1629376334386,43558,263151,247670
1629376334396,43540,263129,247648
1629376334406,43546,263141,247682
1629376334416,43550,263095,247635
1629376334426,43549,263158,247645
1629376334436,43545,263153,247659
1629376334446,43548,263103,247642
1629376334456,43558,263135,247626
1629376334466,43561,263128,247626
1629376334476,43567,263168,247671
1629376334486,43570,263158,247627
1629376334496,43577,263167,247648
1629376334506,43595,263189,247617
1629376334516,43587,263203,247657
1629376334526,43607,263194,247606
1629376334536,43612,263206,247622
1629376334546,43623,263222,247631
1629376334556,43624,263199,247633
1629376334566,43623,263216,247630
1629376334576,43610,263240,247605
1629376334586,43592,263158,247625
1629376334596,43584,263183,247564
1629376334606,43566,263199,247608
1629376334616,43566,263177,247562
1629376334626,43546,263190,247580
1629376334636,43532,263203,247572
1629376334646,43521,263221,247563
1629376334656,43515,263225,247554
1629376334666,43501,263240,247550
1629376334676,43496,263196,247569
1629376334686,43493,263205,247534
1629376334696,43490,263264,247557
1629376334706,43488,263226,247555
1629376334716,43477,263212,247545
1629376334726,43480,263244,247550
1629376334736,43479,263269,247559
1629376334746,43476,263220,247540
1629376334756,43482,263297,247523
1629376334766,43491,263334,247533
1629376334776,43496,263305,247530
1629376334786,43505,263356,247547
1629376334796,43522,263378,247551
1629376334806,43526,263378,247528
1629376334816,43551,263468,247523
1629376334826,43572,263430,247521
1629376334836,43600,263456,247551
1629376334846,43634,263475,247556
1629376334856,43658,263520,247545
1629376334866,43701,263533,247576
1629376334876,43733,263507,247540
1629376334886,43780,263570,247552
1629376334896,43819,263601,247606
1629376334906,43868,263577,247608
1629376334916,43913,263629,247599
1629376334926,43980,263664,247619
1629376334936,44025,263712,247659
1629376334946,44057,263724,247730
1629376334956,44134,263774,247729
1629376334966,44194,263820,247744
1629376334976,44248,263865,247792
1629376334986,44305,263846,247853
1629376334996,44364,263903,247927
1629376335006,44413,263976,247959
1629376335016,44463,263978,247962
1629376335026,44512,264000,248027
1629376335036,44563,264036,248045
1629376335046,44602,264083,248109
1629376335056,44650,264129,248147
1629376335066,44690,264125,248160
1629376335076,44720,264125,248219
1629376335086,44767,264199,248270
1629376335096,44803,264167,248266
1629376335106,44826,264201,248304
1629376335116,44856,264239,248315
1629376335126,44882,264251,248349
1629376335136,44905,264270,248382
1629376335146,44932,264303,248395
1629376335156,44956,264335,248442
1629376335166,44973,264342,248444
1629376335176,45001,264339,248511
1629376335186,45027,264359,248513
1629376335196,45049,264373,248563
1629376335206,45074,264427,248577
1629376335216,45096,264450,248601
1629376335226,45109,264481,248607
1629376335236,45136,264486,248633
1629376335246,45164,264500,248652
1629376335256,45168,264568,248713
1629376335266,45208,264562,248711
1629376335276,45219,264581,248727
1629376335286,45234,264584,248750
1629376335296,45260,264624,248768
1629376335306,45273,264619,248773
1629376335316,45296,264679,248821
1629376335326,45312,264656,248819
1629376335336,45334,264658,248823
1629376335346,45346,264696,248825
1629376335356,45360,264638,248850
1629376335366,45382,264691,248839
1629376335376,45384,264696,248866
1629376335386,45389,264708,248837
1629376335396,45390,264746,248858
1629376335406,45405,264754,248855
1629376335416,45430,264758,248884
1629376335426,45422,264728,248844
1629376335436,45448,264729,248873
1629376335446,45450,264734,248857
1629376335456,45472,264797,248840
1629376335466,45479,264775,248837
1629376335476,45490,264768,248821
1629376335486,45493,264806,248814
1629376335496,45507,264769,248768
1629376335506,45511,264788,248770
1629376335516,45495,264779,248736
1629376335526,45492,264748,248705
1629376335536,45478,264728,248680
1629376335546,45466,264713,248633
1629376335556,45461,264759,248659
1629376335566,45455,264732,248633
1629376335576,45427,264745,248643
1629376335586,45429,264752,248642
1629376335596,45404,264720,248627
1629376335606,45402,264699,248630
1629376335616,45387,264699,248625
1629376335626,45378,264743,248635
1629376335636,45363,264715,248633
1629376335646,45351,264771,248649
1629376335656,45345,264780,248663
1629376335666,45333,264746,248652
1629376335676,45326,264802,248656
1629376335686,45331,264825,248631
1629376335696,45325,264790,248668
1629376335706,45321,264827,248662
1629376335716,45317,264807,248673
1629376335726,45309,264845,248683
1629376335736,45313,264825,248666
1629376335746,45314,264809,248691
1629376335756,45315,264793,248664
1629376335766,45309,264793,248685
1629376335776,45306,264760,248670
1629376335786,45310,264754,248692
1629376335796,45310,264720,248650
1629376335806,45313,264742,248673
1629376335816,45310,264780,248659
1629376335826,45313,264720,248651
1629376335836,45314,264731,248637
1629376335846,45315,264697,248645
1629376335856,45318,264663,248633
1629376335866,45322,264626,248600
1629376335876,45339,264691,248545
1629376335886,45317,264656,248521
1629376335896,45339,264667,248524
1629376335906,45339,264683,248487
1629376335916,45339,264665,248468
1629376335926,45341,264595,248479
1629376335936,45351,264613,248445
1629376335946,45352,264591,248458
1629376335956,45357,264629,248485
1629376335966,45363,264564,248455
1629376335976,45366,264559,248439
1629376335986,45382,264597,248434
1629376335996,45382,264539,248442
1629376336006,45382,264491,248368
1629376336016,45387,264458,248393
1629376336026,45386,264484,248385
1629376336036,45407,264421,248394
1629376336046,45412,264397,248304
1629376336056,45419,264383,248323
1629376336066,45442,264351,248332
1629376336076,45443,264394,248301
1629376336086,45475,264404,248354
1629376336096,45490,264401,248328
1629376336106,45520,264395,248352
1629376336116,45545,264461,248391
1629376336126,45563,264417,248375
1629376336136,45596,264474,248428
1629376336146,45622,264463,248466
1629376336156,45648,264487,248512
1629376336166,45679,264447,248470
1629376336176,45712,264519,248520
1629376336186,45740,264536,248560
1629376336196,45757,264540,248528
1629376336206,45800,264551,248549
1629376336216,45811,264604,248598
1629376336226,45856,264637,248634
1629376336236,45868,264695,248666
1629376336246,45904,264699,248724
1629376336256,45929,264726,248737
1629376336266,45962,264785,248759
1629376336276,45980,264773,248789
1629376336286,46000,264765,248787
1629376336296,46021,264770,248777
1629376336306,46036,264785,248768
1629376336316,46050,264803,248807
1629376336326,46071,264814,248788
1629376336336,46107,264821,248823
1629376336346,46112,264832,248839
1629376336356,46133,264879,248867
1629376336366,46144,264848,248840
1629376336376,46157,264908,248853
1629376336386,46167,264923,248843
1629376336396,46192,264976,248934
1629376336406,46190,264930,248900
1629376336416,46204,264951,248887
1629376336426,46216,264952,248867
1629376336436,46215,264921,248821
1629376336446,46203,264908,248763
1629376336456,46197,264920,248706
1629376336466,46191,264895,248666
1629376336476,46177,264868,248635
1629376336486,46158,264856,248605
1629376336496,46149,264873,248581
1629376336506,46143,264888,248602
1629376336516,46121,264836,248579
1629376336526,46107,264867,248565
1629376336536,46084,264877,248568
1629376336546,46094,264831,248556
1629376336556,46062,264832,248564
1629376336566,46052,264789,248576
1629376336576,46055,264821,248596
1629376336586,46050,264781,248579
1629376336596,46046,264805,248624
1629376336606,46038,264763,248597
1629376336616,46033,264769,248589
1629376336626,46027,264801,248586
1629376336636,46022,264775,248617
1629376336646,46013,264763,248587
1629376336656,46001,264708,248547
1629376336666,45992,264728,248602
1629376336676,45986,264741,248610
1629376336686,46001,264713,248634
1629376336696,45988,264723,248629
1629376336706,46006,264729,248613
1629376336716,45999,264702,248631
1629376336726,46016,264728,248607
1629376336736,46016,264695,248635
1629376336746,46024,264729,248670
1629376336756,46038,264759,248648
1629376336766,46040,264796,248629
1629376336776,46053,264765,248645
1629376336786,46061,264763,248650
1629376336796,46070,264765,248636
1629376336806,46077,264763,248628
1629376336816,46082,264773,248630
1629376336826,46090,264765,248611
1629376336836,46097,264789,248605
1629376336846,46108,264748,248610
1629376336856,46128,264778,248634
1629376336866,46136,264748,248650
1629376336876,46140,264743,248644
1629376336886,46150,264785,248614
1629376336896,46151,264774,248621
1629376336906,46162,264811,248575
1629376336916,46175,264766,248607
1629376336926,46186,264821,248614
1629376336936,46196,264798,248606
1629376336946,46204,264841,248600
1629376336956,46218,264818,248604
1629376336966,46228,264841,248653
1629376336976,46238,264772,248599
1629376336986,46249,264807,248630
1629376336996,46257,264813,248605
1629376337006,46276,264855,248613
1629376337016,46283,264859,248606
1629376337026,46297,264840,248631
1629376337036,46298,264812,248600
1629376337046,46303,264811,248599
1629376337056,46326,264823,248586
1629376337066,46325,264885,248563
1629376337076,46329,264812,248551
1629376337086,46337,264813,248529
1629376337096,46347,264805,248496
1629376337106,46351,264821,248497
1629376337116,46366,264776,248504
1629376337126,46372,264817,248479
1629376337136,46381,264767,248436
1629376337146,46389,264748,248479
1629376337156,46401,264748,248455
1629376337166,46401,264764,248477
1629376337176,46406,264763,248414
1629376337186,46434,264739,248449
1629376337196,46435,264735,248394
1629376337206,46455,264700,248419
1629376337216,46451,264789,248357
1629376337226,46472,264696,248358
1629376337236,46481,264706,248328
1629376337246,46487,264739,248337
1629376337256,46497,264700,248314
1629376337266,46489,264708,248279
1629376337276,46492,264661,248242
1629376337286,46486,264638,248234
1629376337296,46473,264599,248168
1629376337306,46467,264630,248120
1629376337316,46446,264576,248094
1629376337326,46414,264535,248079
1629376337336,46383,264484,248022
1629376337346,46350,264469,247956
1629376337356,46321,264386,247863
1629376337366,46265,264339,247844
1629376337376,46240,264295,247772
1629376337386,46190,264332,247699
1629376337396,46155,264286,247674
1629376337406,46117,264273,247631
1629376337416,46083,264226,247586
1629376337426,46040,264236,247560
1629376337436,46008,264240,247525
1629376337446,45965,264221,247491
1629376337456,45932,264186,247453
1629376337466,45889,264198,247409
1629376337476,45843,264181,247346
1629376337486,45807,264157,247306
1629376337496,45765,264107,247268
1629376337506,45744,264143,247217
1629376337516,45707,264121,247211
1629376337526,45677,264087,247152
1629376337536,45642,264102,247163
1629376337546,45626,264096,247140
1629376337556,45601,264108,247104
1629376337566,45589,264117,247121
1629376337576,45566,264097,247108
1629376337586,45543,264119,247096
1629376337596,45536,264143,247084
1629376337606,45513,264102,247068
1629376337616,45495,264061,247059
1629376337626,45478,264105,247047
1629376337636,45476,264092,247068
1629376337646,45464,264124,247101
1629376337656,45462,264144,247079
1629376337666,45446,264195,247086
1629376337676,45455,264162,247074
1629376337686,45441,264184,247059
1629376337696,45429,264227,247098
1629376337706,45436,264203,247138
1629376337716,45436,264264,247123
1629376337726,45434,264268,247119
1629376337736,45437,264240,247126
1629376337746,45435,264317,247165
1629376337756,45435,264287,247146
1629376337766,45436,264346,247178
1629376337776,45445,264339,247176
1629376337786,45443,264336,247141
1629376337796,45437,264336,247149
1629376337806,45450,264372,247202
1629376337816,45466,264348,247169
1629376337826,45467,264386,247191
1629376337836,45475,264409,247181
1629376337846,45489,264483,247210
1629376337856,45492,264469,247233
1629376337866,45502,264540,247239
1629376337876,45522,264557,247244
1629376337886,45528,264564,247256
1629376337896,45550,264641,247289
1629376337906,45558,264634,247290
1629376337916,45568,264654,247302
1629376337926,45585,264696,247325
1629376337936,45613,264714,247318
1629376337946,45610,264688,247320
1629376337956,45624,264726,247317
1629376337966,45635,264778,247344
1629376337976,45647,264723,247325
1629376337986,45661,264817,247373
1629376337996,45662,264862,247349
1629376338006,45686,264885,247380
1629376338016,45689,264848,247383
1629376338026,45708,264949,247377
1629376338036,45716,264939,247388
1629376338046,45724,264903,247401
1629376338056,45727,264925,247395
1629376338066,45725,264904,247373
1629376338076,45710,264901,247379
1629376338086,45702,264924,247368
1629376338096,45679,264935,247363
1629376338106,45656,264917,247359
1629376338116,45632,264943,247364
1629376338126,45616,264901,247341
1629376338136,45602,264977,247382
1629376338146,45581,264945,247341
1629376338156,45568,264943,247355
1629376338166,45531,264909,247357
1629376338176,45508,264923,247336
1629376338186,45492,264939,247305
1629376338196,45473,264928,247310
1629376338206,45451,264965,247319
1629376338216,45439,264955,247327
1629376338226,45415,264958,247351
1629376338236,45393,264940,247302
1629376338246,45373,264952,247320
1629376338256,45365,264924,247323
1629376338266,45331,264936,247285
1629376338276,45312,264964,247273
1629376338286,45286,264967,247298
1629376338296,45272,264959,247229
1629376338306,45253,264924,247219
1629376338316,45240,264946,247224
1629376338326,45221,264906,247205
1629376338336,45197,264895,247206
1629376338346,45171,264895,247138
1629376338356,45157,264870,247173
1629376338366,45118,264882,247122
1629376338376,45116,264838,247110
1629376338386,45097,264820,247069
1629376338396,45084,264840,247049
1629376338406,45049,264815,247026
1629376338416,45026,264784,246989
1629376338426,45000,264759,246973
1629376338436,44982,264697,246911
1629376338446,44955,264736,246894
1629376338456,44925,264704,246844
1629376338466,44896,264657,246844
1629376338476,44867,264661,246838
1629376338486,44851,264632,246797
1629376338496,44831,264615,246823
1629376338506,44822,264614,246758
1629376338516,44792,264633,246742
1629376338526,44775,264633,246719
1629376338536,44757,264557,246675
1629376338546,44739,264579,246667
1629376338556,44719,264537,246652
1629376338566,44697,264542,246634
1629376338576,44682,264508,246587
1629376338586,44656,264516,246577
1629376338596,44629,264467,246564
1629376338606,44615,264471,246521
1629376338616,44597,264423,246518
1629376338626,44582,264435,246488
1629376338636,44574,264414,246442
1629376338646,44561,264409,246457
1629376338656,44533,264395,246457
1629376338666,44528,264393,246431
1629376338676,44524,264376,246440
1629376338686,44518,264405,246411
1629376338696,44507,264407,246428
1629376338706,44502,264371,246394
1629376338716,44501,264391,246375
1629376338726,44504,264398,246369
1629376338736,44502,264431,246374
1629376338746,44494,264443,246364
1629376338756,44486,264430,246335
1629376338766,44487,264426,246338
1629376338776,44491,264461,246358
1629376338786,44493,264417,246363
1629376338796,44481,264442,246341
1629376338806,44459,264378,246292
1629376338816,44442,264383,246328
1629376338826,44428,264369,246279
1629376338836,44390,264372,246304
1629376338846,44363,264376,246245
1629376338856,44327,264317,246258
1629376338866,44288,264337,246241
1629376338876,44254,264313,246203
1629376338886,44225,264273,246207
1629376338896,44193,264296,246210
1629376338906,44157,264271,246222
1629376338916,44128,264267,246181
1629376338926,44091,264255,246183
1629376338936,44063,264250,246188
1629376338946,44037,264247,246187
1629376338956,44008,264231,246191
1629376338966,43989,264224,246168
1629376338976,43958,264228,246141
1629376338986,43930,264181,246116
1629376338996,43914,264202,246117
1629376339006,43873,264181,246110
1629376339016,43847,264165,246102
1629376339026,43822,264181,246084
1629376339036,43802,264190,246104
1629376339046,43772,264164,246097
1629376339056,43763,264147,246065
1629376339066,43737,264169,246087
1629376339076,43726,264174,246090
1629376339086,43704,264173,246089
1629376339096,43682,264129,246064
1629376339106,43658,264113,246056
1629376339116,43653,264148,246038
1629376339126,43642,264140,246034
1629376339136,43623,264141,246034
1629376339146,43602,264127,246028
1629376339156,43591,264133,246027
1629376339166,43557,264108,246012
1629376339176,43538,264141,245994
1629376339186,43537,264150,246009
1629376339196,43521,264142,245991
1629376339206,43507,264159,245968
1629376339216,43500,264156,245981
1629376339226,43490,264174,245995
1629376339236,43483,264129,245987
1629376339246,43475,264119,245959
1629376339256,43481,264141,245973
1629376339266,43469,264163,245975
1629376339276,43454,264145,245966
1629376339286,43466,264141,245967
1629376339296,43464,264177,245967
1629376339306,43459,264198,245960
1629376339316,43446,264153,245954
1629376339326,43450,264157,245952
1629376339336,43445,264210,245976
1629376339346,43442,264207,245955
1629376339356,43447,264152,245973
1629376339366,43444,264208,245981
1629376339376,43450,264215,245955
1629376339386,43450,264186,245944
1629376339396,43453,264202,245911
1629376339406,43456,264207,245909
1629376339416,43455,264235,245910
1629376339426,43461,264223,245930
1629376339436,43459,264228,245902
1629376339446,43458,264288,245893
1629376339456,43459,264235,245922
1629376339466,43459,264256,245915
1629376339476,43454,264269,245907
1629376339486,43472,264273,245877
1629376339496,43470,264217,245924
1629376339506,43481,264240,245895
1629376339516,43484,264270,245880
1629376339526,43484,264239,245867
1629376339536,43488,264244,245848
1629376339546,43496,264279,245862
1629376339556,43501,264263,245866
1629376339566,43509,264289,245871
1629376339576,43514,264321,245842
1629376339586,43522,264263,245916
1629376339596,43513,264317,245858
1629376339606,43523,264277,245854
1629376339616,43533,264329,245849
1629376339626,43530,264235,245838
1629376339636,43525,264293,245865
1629376339646,43510,264258,245805
1629376339656,43502,264256,245816
1629376339666,43481,264213,245799
1629376339676,43456,264214,245817
1629376339686,43427,264196,245785
1629376339696,43401,264209,245767
1629376339706,43377,264199,245786
1629376339716,43340,264172,245784
1629376339726,43317,264185,245777
1629376339736,43291,264172,245749
1629376339746,43267,264131,245757
1629376339756,43236,264158,245748
1629376339766,43191,264120,245728
1629376339776,43168,264130,245746
1629376339786,43140,264144,245711
1629376339796,43108,264091,245737
1629376339806,43075,264123,245690
1629376339816,43046,264105,245713
1629376339826,43013,264100,245702
1629376339836,42981,264063,245692
1629376339846,42957,264039,245687
1629376339856,42926,264067,245662
1629376339866,42901,264024,245655
1629376339876,42867,264051,245641
1629376339886,42860,264027,245631
1629376339896,42837,264039,245618
1629376339906,42817,264059,245663
1629376339916,42803,264018,245655
1629376339926,42790,264004,245630
1629376339936,42780,264049,245601
1629376339946,42767,264020,245626
1629376339956,42741,264036,245595
1629376339966,42731,264006,245589
1629376339976,42705,264015,245599
1629376339986,42698,263991,245593
1629376339996,42687,264023,245584
1629376340006,42672,264007,245545
1629376340016,42650,264004,245559
1629376340026,42639,264001,245555
1629376340036,42628,264012,245526
1629376340046,42616,264014,245551
1629376340056,42605,263977,245561
1629376340066,42587,263980,245546
1629376340076,42581,263979,245532
1629376340086,42562,263988,245525
1629376340096,42577,264003,245505
1629376340106,42568,263986,245525
1629376340116,42579,263992,245503
1629376340126,42558,264008,245528
1629376340136,42555,263983,245497
1629376340146,42554,264005,245489
1629376340156,42566,264003,245509
1629376340166,42567,264005,245507
1629376340176,42570,264033,245495
1629376340186,42579,264081,245516
1629376340196,42587,264076,245521
1629376340206,42597,264082,245527
1629376340216,42607,264094,245481
1629376340226,42618,264082,245523
1629376340236,42624,264125,245547
1629376340246,42640,264083,245527
1629376340256,42651,264112,245515
1629376340266,42668,264105,245512
1629376340276,42681,264147,245518
1629376340286,42685,264147,245503
1629376340296,42701,264167,245503
1629376340306,42715,264182,245495
1629376340316,42715,264141,245513
1629376340326,42729,264113,245494
1629376340336,42728,264111,245498
1629376340346,42743,264150,245483
1629376340356,42757,264203,245491
1629376340366,42762,264133,245533
1629376340376,42773,264174,245480
1629376340386,42780,264179,245471
1629376340396,42791,264179,245502
1629376340406,42792,264194,245505
1629376340416,42799,264163,245472
1629376340426,42802,264222,245460
1629376340436,42819,264194,245473
1629376340446,42838,264220,245478
1629376340456,42843,264166,245473
1629376340466,42844,264199,245473
1629376340476,42863,264191,245473
1629376340486,42877,264203,245490
1629376340496,42882,264249,245488
1629376340506,42897,264231,245448
1629376340516,42912,264252,245467
1629376340526,42919,264252,245506
1629376340536,42937,264257,245496
1629376340546,42950,264292,245464
1629376340556,42963,264297,245457
1629376340566,42970,264327,245446
1629376340576,42969,264262,245462
1629376340586,42990,264285,245441
1629376340596,42986,264286,245454
1629376340606,42977,264249,245432
1629376340616,42958,264268,245423
1629376340626,42941,264223,245444
1629376340636,42920,264200,245456
1629376340646,42896,264206,245434
1629376340656,42874,264160,245441
1629376340666,42853,264156,245464
1629376340676,42833,264175,245420
1629376340686,42812,264143,245423
1629376340696,42788,264128,245395
1629376340706,42770,264122,245401
1629376340716,42751,264137,245391
1629376340726,42720,264104,245381
1629376340736,42701,264090,245357
1629376340746,42685,264092,245351
1629376340756,42663,264092,245352
1629376340766,42645,264069,245359
1629376340776,42624,264062,245337
1629376340786,42600,264049,245330
1629376340796,42574,264022,245340
1629376340806,42561,264014,245342
1629376340816,42534,264034,245324
1629376340826,42522,263995,245313
1629376340836,42514,264021,245288
1629376340846,42505,264010,245314
1629376340856,42483,264000,245314
1629376340866,42478,264014,245305
1629376340876,42474,264005,245255
1629376340886,42458,263944,245248
1629376340896,42447,263983,245253
1629376340906,42450,263974,245298
1629376340916,42423,263953,245247
1629376340926,42417,263961,245247
1629376340936,42419,263943,245246
1629376340946,42404,263917,245221
1629376340956,42405,263909,245232
1629376340966,42395,263915,245217
1629376340976,42388,263915,245208
1629376340986,42381,263922,245221
1629376340996,42373,263893,245203
1629376341006,42365,263918,245211
1629376341016,42370,263929,245188
1629376341026,42365,263908,245188
1629376341036,42359,263897,245182
1629376341046,42363,263910,245177
1629376341056,42364,263879,245145
1629376341066,42361,263919,245184
1629376341076,42348,263942,245189
1629376341086,42353,263927,245171
1629376341096,42370,263898,245167
1629376341106,42361,263927,245146
1629376341116,42374,263946,245156
1629376341126,42379,263929,245150
1629376341136,42377,263916,245144
1629376341146,42382,263907,245127
1629376341156,42385,263943,245125
1629376341166,42390,263938,245134
1629376341176,42403,263940,245135
1629376341186,42411,263922,245119
1629376341196,42427,263944,245130
1629376341206,42432,263924,245097
1629376341216,42445,263968,245111
1629376341226,42466,264020,245122
1629376341236,42489,264046,245187
1629376341246,42549,264086,245198
1629376341256,42573,264076,245261
1629376341266,42631,264170,245259
1629376341276,42671,264154,245288
1629376341286,42711,264191,245299
1629376341296,42742,264218,245310
1629376341306,42789,264264,245318
1629376341316,42826,264275,245335
1629376341326,42860,264276,245348
1629376341336,42884,264295,245320
1629376341346,42907,264302,245335
1629376341356,42922,264281,245328
1629376341366,42930,264309,245336
1629376341376,42949,264301,245334
1629376341386,42953,264347,245294
1629376341396,42972,264333,245312
1629376341406,42979,264254,245320
1629376341416,42980,264271,245300
1629376341426,42987,264277,245299
1629376341436,43003,264308,245246
1629376341446,43004,264299,245278
1629376341456,43013,264299,245234
1629376341466,43022,264293,245237
1629376341476,43020,264267,245220
1629376341486,43023,264274,245242
1629376341496,43034,264328,245186
1629376341506,43024,264303,245139
1629376341516,43015,264266,245161
1629376341526,43017,264278,245170
1629376341536,43020,264227,245128
1629376341546,42978,264223,245101
1629376341556,42951,264209,245089
1629376341566,42910,264188,245057
1629376341576,42895,264164,245085
1629376341586,42847,264105,245046
1629376341596,42808,264142,245042
1629376341606,42775,264111,245008
1629376341616,42731,264050,244968
1629376341626,42695,264007,244938
1629376341636,42650,264003,244913
1629376341646,42619,263953,244890
1629376341656,42583,263974,244869
1629376341666,42540,263958,244870
1629376341676,42512,263919,244855
1629376341686,42475,263899,244839
1629376341696,42444,263841,244859
1629376341706,42426,263889,244825
1629376341716,42402,263906,244813
1629376341726,42372,263875,244798
1629376341736,42368,263865,244829
1629376341746,42336,263876,244806
1629376341756,42305,263923,244813
1629376341766,42304,263897,244824
1629376341776,42293,263933,244806
1629376341786,42285,263916,244826
1629376341796,42276,263934,244811
1629376341806,42269,263984,244797
1629376341816,42264,263943,244838
1629376341826,42251,263940,244811
1629376341836,42250,263944,244838
1629376341846,42239,263981,244840
1629376341856,42235,264001,244818
1629376341866,42237,263959,244812
1629376341876,42242,263948,244804
1629376341886,42223,263952,244795
1629376341896,42222,263954,244836
1629376341906,42223,263952,244817
1629376341916,42217,263969,244809
1629376341926,42213,263980,244774
1629376341936,42214,263965,244784
1629376341946,42208,263989,244824
1629376341956,42211,263941,244803
1629376341966,42210,263957,244789
1629376341976,42220,264001,244793
1629376341986,42216,263984,244785
1629376341996,42216,263984,244776
1629376342006,42213,263992,244818
1629376342016,42219,264027,244770
1629376342026,42222,263998,244817
1629376342036,42218,264038,244813
1629376342046,42220,264009,244813
1629376342056,42212,264056,244823
1629376342066,42232,264052,244805
1629376342076,42243,264023,244804
1629376342086,42253,264061,244805
1629376342096,42249,264033,244801
1629376342106,42261,264071,244797
1629376342116,42260,264067,244785
1629376342126,42274,264047,244789
1629376342136,42271,264041,244766
1629376342146,42274,264003,244742
1629376342156,42277,264039,244750
1629376342166,42280,264060,244739
1629376342176,42287,263991,244724
1629376342186,42284,263981,244714
1629376342196,42290,264037,244710
1629376342206,42293,263953,244690
1629376342216,42288,263990,244664
1629376342226,42295,263968,244648
1629376342236,42292,263957,244640
1629376342246,42297,263943,244647
1629376342256,42304,263929,244644
1629376342266,42309,263964,244634
1629376342276,42326,263939,244635
1629376342286,42336,263946,244633
1629376342296,42338,263944,244606
1629376342306,42344,263974,244630
1629376342316,42358,263939,244629
1629376342326,42370,263939,244616
1629376342336,42385,263992,244634
1629376342346,42388,263960,244640
1629376342356,42400,263976,244650
1629376342366,42411,263972,244632
1629376342376,42431,263935,244630
1629376342386,42453,263948,244622
1629376342396,42463,264017,244698
1629376342406,42487,263977,244635
1629376342416,42496,263973,244641
1629376342426,42509,264020,244661
1629376342436,42530,264005,244648
1629376342446,42551,264004,244671
1629376342456,42568,263987,244661
1629376342466,42577,264029,244657
1629376342476,42590,264038,244660
1629376342486,42597,264011,244644
1629376342496,42609,263992,244648
1629376342506,42610,263968,244632
1629376342516,42597,263958,244628
1629376342526,42595,263976,244639
1629376342536,42590,263932,244620
1629376342546,42574,263908,244636
1629376342556,42551,263925,244642
1629376342566,42546,263946,244637
1629376342576,42528,263861,244640
1629376342586,42508,263866,244618
1629376342596,42488,263857,244611
1629376342606,42473,263814,244592
1629376342616,42449,263810,244610
1629376342626,42431,263836,244640
1629376342636,42414,263795,244601
1629376342646,42392,263804,244573
1629376342656,42378,263803,244599
1629376342666,42347,263768,244557
1629376342676,42326,263821,244572
1629376342686,42306,263757,244564
1629376342696,42295,263723,244549
1629376342706,42281,263741,244557
1629376342716,42238,263689,244545
1629376342726,42232,263724,244557
1629376342736,42215,263669,244564
1629376342746,42195,263673,244534
1629376342756,42181,263706,244535
1629376342766,42171,263671,244510
1629376342776,42165,263679,244526
1629376342786,42149,263668,244548
1629376342796,42148,263656,244530
1629376342806,42144,263674,244546
1629376342816,42141,263706,244537
1629376342826,42138,263647,244523
1629376342836,42128,263675,244525
1629376342846,42119,263652,244560
1629376342856,42122,263663,244511
1629376342866,42112,263647,244531
1629376342876,42114,263717,244566
1629376342886,42118,263676,244483
1629376342896,42117,263675,244532
1629376342906,42115,263672,244534
1629376342916,42112,263637,244524
1629376342926,42108,263659,244554
1629376342936,42111,263632,244526
1629376342946,42116,263603,244521
1629376342956,42107,263621,244513
1629376342966,42111,263668,244511
1629376342976,42119,263645,244539
1629376342986,42120,263643,244536
1629376342996,42121,263705,244556
1629376343006,42130,263662,244542
1629376343016,42136,263726,244511
1629376343026,42139,263678,244536
1629376343036,42153,263663,244531
1629376343046,42146,263697,244486
1629376343056,42168,263708,244506
1629376343066,42159,263702,244526
1629376343076,42172,263733,244532
1629376343086,42185,263711,244508
1629376343096,42198,263740,244543
1629376343106,42205,263711,244558
1629376343116,42219,263756,244531
1629376343126,42225,263750,244541
1629376343136,42244,263724,244544
1629376343146,42241,263764,244553
1629376343156,42255,263777,244546
1629376343166,42270,263742,244517
1629376343176,42276,263805,244535
1629376343186,42297,263801,244574
1629376343196,42308,263789,244553
1629376343206,42326,263793,244576
1629376343216,42338,263828,244557
1629376343226,42347,263820,244568
1629376343236,42361,263830,244579
1629376343246,42371,263774,244557
1629376343256,42385,263812,244548
1629376343266,42396,263839,244508
1629376343276,42407,263834,244529
1629376343286,42426,263820,244549
1629376343296,42432,263856,244548
1629376343306,42445,263829,244544
1629376343316,42462,263861,244537
1629376343326,42475,263866,244531
1629376343336,42500,263897,244521
1629376343346,42517,263852,244529
1629376343356,42530,263872,244546
1629376343366,42534,263927,244534
1629376343376,42552,263878,244525
1629376343386,42574,263904,244567
1629376343396,42580,263963,244559
1629376343406,42601,263922,244526
1629376343416,42619,263921,244555
1629376343426,42633,263941,244538
1629376343436,42654,263958,244522
1629376343446,42665,263975,244542
1629376343456,42683,263972,244588
1629376343466,42700,264015,244586
1629376343476,42708,263976,244563
1629376343486,42724,263974,244600
1629376343496,42746,263993,244575
1629376343506,42740,263960,244537
1629376343516,42731,263986,244578
1629376343526,42727,263925,244568
1629376343536,42711,263911,244559
1629376343546,42693,263891,244526
1629376343556,42693,263872,244542
1629376343566,42676,263906,244525
1629376343576,42651,263843,244527
1629376343586,42638,263859,244511
1629376343596,42622,263858,244525
1629376343606,42606,263838,244523
1629376343616,42598,263835,244502
1629376343626,42579,263825,244523
1629376343636,42563,263801,244505
1629376343646,42551,263767,244489
1629376343656,42538,263787,244503
1629376343666,42530,263771,244526
1629376343676,42513,263740,244506
1629376343686,42489,263747,244510
1629376343696,42486,263757,244505
1629376343706,42462,263716,244525
1629376343716,42446,263760,244530
1629376343726,42438,263747,244488
1629376343736,42428,263733,244508
1629376343746,42417,263742,244484
1629376343756,42410,263736,244522
1629376343766,42408,263777,244499
1629376343776,42396,263739,244489
1629376343786,42397,263713,244474
1629376343796,42387,263739,244499
1629376343806,42383,263712,244464
1629376343816,42377,263719,244522
1629376343826,42362,263706,244517
1629376343836,42364,263736,244457
1629376343846,42355,263700,244481
1629376343856,42352,263704,244487
1629376343866,42345,263705,244497
1629376343876,42334,263734,244503
1629376343886,42334,263732,244507
1629376343896,42334,263745,244462
1629376343906,42323,263735,244495
1629376343916,42323,263735,244461
1629376343926,42329,263765,244490
1629376343936,42317,263790,244481
1629376343946,42320,263735,244476
1629376343956,42322,263759,244488
1629376343966,42321,263717,244461
1629376343976,42321,263776,244463
1629376343986,42328,263787,244437
1629376343996,42323,263731,244467
1629376344006,42324,263756,244465
1629376344016,42338,263783,244456
1629376344026,42315,263735,244454
1629376344036,42332,263769,244444
1629376344046,42337,263783,244437
1629376344056,42340,263744,244420
1629376344066,42346,263724,244471
1629376344076,42348,263744,244454
1629376344086,42357,263754,244431
1629376344096,42365,263767,244427
1629376344106,42371,263772,244418
1629376344116,42375,263778,244417
1629376344126,42381,263789,244414
1629376344136,42397,263798,244414
1629376344146,42409,263806,244422
1629376344156,42410,263797,244415
1629376344166,42416,263828,244439
1629376344176,42417,263809,244407
1629376344186,42427,263811,244409
1629376344196,42443,263829,244384
1629376344206,42453,263825,244428
1629376344216,42461,263805,244397
1629376344226,42470,263803,244387
1629376344236,42476,263796,244405
1629376344246,42489,263808,244376
1629376344256,42508,263798,244378
1629376344266,42502,263807,244393
1629376344276,42509,263834,244347
1629376344286,42525,263810,244403
1629376344296,42535,263860,244381
1629376344306,42539,263840,244395
1629376344316,42548,263848,244383
1629376344326,42551,263833,244395
1629376344336,42578,263856,244381
1629376344346,42596,263853,244376
1629376344356,42593,263880,244371
1629376344366,42605,263857,244406
1629376344376,42613,263864,244373
1629376344386,42626,263906,244349
1629376344396,42639,263910,244401
1629376344406,42654,263907,244382
1629376344416,42658,263888,244379
1629376344426,42673,263916,244388
1629376344436,42685,263925,244391
1629376344446,42695,263894,244388
1629376344456,42699,263928,244380
1629376344466,42686,263897,244406
1629376344476,42698,263878,244352
1629376344486,42679,263842,244371
1629376344496,42661,263836,244341
1629376344506,42640,263800,244363
1629376344516,42631,263788,244333
1629376344526,42606,263778,244351
1629376344536,42584,263746,244350
1629376344546,42565,263745,244329
1629376344556,42539,263779,244317
1629376344566,42526,263756,244313
1629376344576,42503,263742,244325
1629376344586,42487,263745,244324
1629376344596,42463,263712,244304
1629376344606,42452,263716,244304
1629376344616,42426,263660,244274
1629376344626,42411,263652,244271
1629376344636,42387,263660,244290
1629376344646,42373,263623,244270
1629376344656,42348,263658,244243
1629376344666,42345,263660,244274
1629376344676,42321,263632,244255
1629376344686,42312,263622,244289
1629376344696,42301,263619,244237
1629376344706,42289,263602,244271
1629376344716,42285,263618,244254
1629376344726,42277,263574,244250
1629376344736,42282,263594,244238
1629376344746,42261,263597,244267
1629376344756,42262,263606,244234
1629376344766,42256,263582,244271
1629376344776,42249,263614,244259
1629376344786,42237,263603,244245
1629376344796,42221,263608,244229
1629376344806,42224,263589,244230
1629376344816,42225,263543,244224
1629376344826,42217,263566,244251
1629376344836,42205,263574,244229
1629376344846,42200,263553,244234
1629376344856,42200,263541,244230
1629376344866,42196,263540,244232
1629376344876,42194,263546,244226
1629376344886,42193,263548,244224
1629376344896,42188,263550,244220
1629376344906,42180,263567,244248
1629376344916,42188,263553,244213
1629376344926,42186,263568,244189
1629376344936,42184,263591,244235
1629376344946,42190,263552,244218
1629376344956,42190,263580,244205
1629376344966,42186,263601,244218
1629376344976,42195,263566,244209
1629376344986,42194,263640,244225
1629376344996,42206,263584,244214
1629376345006,42199,263581,244233
1629376345016,42202,263599,244200
1629376345026,42212,263600,244227
1629376345036,42213,263606,244210
1629376345046,42223,263585,244208
1629376345056,42219,263634,244200
1629376345066,42232,263623,244211
1629376345076,42241,263644,244237
1629376345086,42246,263626,244202
1629376345096,42254,263648,244236
1629376345106,42260,263614,244212
1629376345116,42269,263639,244200
1629376345126,42273,263641,244203
1629376345136,42282,263635,244221
1629376345146,42287,263675,244195
1629376345156,42306,263654,244217
1629376345166,42299,263701,244191
1629376345176,42313,263679,244235
1629376345186,42320,263671,244227
1629376345196,42329,263713,244237
1629376345206,42339,263731,244208
1629376345216,42355,263722,244230
1629376345226,42362,263734,244212
1629376345236,42367,263729,244206
1629376345246,42378,263722,244239
1629376345256,42383,263714,244231
1629376345266,42398,263754,244252
1629376345276,42402,263757,244244
1629376345286,42417,263783,244243
1629376345296,42436,263724,244258
1629376345306,42441,263744,244239
1629376345316,42447,263787,244180
1629376345326,42453,263782,244212
1629376345336,42471,263770,244206
1629376345346,42477,263758,244239
1629376345356,42493,263813,244222
1629376345366,42502,263803,244220
1629376345376,42515,263823,244211
1629376345386,42526,263832,244232
1629376345396,42536,263836,244216
1629376345406,42541,263807,244213
1629376345416,42550,263809,244243
1629376345426,42542,263817,244219
1629376345436,42542,263761,244218
1629376345446,42533,263754,244215
1629376345456,42510,263772,244197
1629376345466,42496,263759,244186
1629376345476,42472,263732,244193
1629376345486,42456,263688,244203
1629376345496,42428,263654,244172
1629376345506,42401,263654,244171
1629376345516,42378,263622,244160
1629376345526,42349,263631,244155
1629376345536,42328,263595,244176
1629376345546,42311,263595,244163
1629376345556,42283,263540,244118
1629376345566,42259,263577,244127
1629376345576,42234,263550,244111
1629376345586,42214,263528,244134
1629376345596,42185,263517,244100
1629376345606,42153,263507,244114
1629376345616,42136,263494,244111
1629376345626,42113,263451,244111
1629376345636,42105,263488,244112
1629376345646,42076,263444,244108
1629376345656,42043,263424,244100
1629376345666,42029,263463,244066
1629376345676,42017,263427,244076
1629376345686,41997,263404,244093
1629376345696,41984,263439,244050
1629376345706,41969,263387,244074
1629376345716,41959,263382,244076
1629376345726,41950,263398,244063
1629376345736,41931,263413,244075
1629376345746,41926,263413,244054
1629376345756,41910,263402,244061
1629376345766,41906,263409,244071
1629376345776,41879,263367,244037
1629376345786,41880,263377,244042
1629376345796,41866,263368,244035
1629376345806,41868,263372,244024
1629376345816,41848,263362,244034
1629376345826,41841,263328,244043
1629376345836,41835,263339,244054
1629376345846,41827,263332,244041
1629376345856,41826,263337,244066
1629376345866,41812,263357,244039
1629376345876,41817,263343,244013
1629376345886,41814,263374,244006
1629376345896,41806,263362,244057
1629376345906,41797,263349,244053
1629376345916,41805,263312,244039
1629376345926,41800,263337,244023
1629376345936,41809,263377,244022
1629376345946,41803,263369,244039
1629376345956,41805,263354,244056
1629376345966,41827,263416,244077
1629376345976,41825,263347,244064
1629376345986,41827,263418,244059
1629376345996,41828,263430,244052
1629376346006,41836,263420,244072
1629376346016,41844,263447,244059
1629376346026,41857,263422,244073
1629376346036,41875,263444,244081
1629376346046,41885,263478,244088
1629376346056,41900,263470,244090
1629376346066,41909,263510,244104
1629376346076,41920,263449,244096
1629376346086,41941,263488,244096
1629376346096,41950,263497,244101
1629376346106,41976,263528,244121
1629376346116,41980,263533,244091
1629376346126,41994,263537,244051
1629376346136,42010,263569,244113
1629376346146,42019,263520,244093
1629376346156,42034,263572,244097
1629376346166,42042,263564,244092
1629376346176,42057,263544,244095
1629376346186,42066,263583,244110
1629376346196,42081,263618,244125
1629376346206,42099,263572,244153
1629376346216,42106,263600,244133
1629376346226,42113,263622,244144
1629376346236,42122,263595,244125
1629376346246,42138,263643,244099
1629376346256,42146,263608,244135
1629376346266,42151,263620,244150
1629376346276,42167,263664,244110
1629376346286,42188,263630,244121
1629376346296,42195,263658,244120
1629376346306,42203,263643,244134
1629376346316,42218,263657,244162
1629376346326,42223,263622,244142
1629376346336,42243,263670,244121
1629376346346,42246,263687,244130
1629376346356,42264,263697,244114
1629376346366,42272,263704,244129
1629376346376,42282,263692,244139
1629376346386,42294,263757,244148
1629376346396,42301,263693,244165
1629376346406,42307,263714,244141
1629376346416,42307,263644,244149
1629376346426,42305,263676,244117
1629376346436,42288,263611,244145
1629376346446,42292,263608,244114
1629376346456,42255,263602,244099
1629376346466,42237,263579,244118
1629376346476,42217,263544,244104
1629376346486,42190,263583,244094
1629376346496,42169,263546,244074
1629376346506,42149,263535,244048
1629376346516,42119,263477,244078
1629376346526,42111,263527,244086
1629376346536,42083,263457,244091
1629376346546,42061,263445,244061
1629376346556,42043,263421,244067
1629376346566,42023,263414,244068
1629376346576,42007,263396,244054
1629376346586,41966,263407,244068
1629376346596,41965,263392,244055
1629376346606,41946,263368,244069
1629376346616,41923,263362,244059
1629376346626,41894,263335,244032
1629376346636,41875,263321,244034
1629376346646,41859,263339,244060
1629376346656,41841,263323,244047
1629376346666,41824,263318,244050
1629376346676,41820,263333,244045
1629376346686,41814,263306,244028
1629376346696,41801,263295,244042
1629376346706,41795,263316,244033
1629376346716,41783,263267,244021
1629376346726,41770,263266,244038
1629376346736,41759,263295,244012
1629376346746,41762,263271,244008
1629376346756,41731,263250,244010
1629376346766,41742,263237,244040
1629376346776,41743,263269,244009
1629376346786,41717,263235,244036
1629376346796,41720,263281,244049
1629376346806,41712,263288,244043
1629376346816,41702,263308,244036
1629376346826,41698,263261,244035
1629376346836,41701,263276,244024
1629376346846,41696,263267,244052
1629376346856,41696,263268,244042
1629376346866,41685,263266,244036
1629376346876,41698,263247,244024
1629376346886,41689,263252,244023
1629376346896,41688,263252,244022
1629376346906,41689,263277,244049
1629376346916,41691,263271,244018
1629376346926,41699,263296,244037
1629376346936,41700,263240,244033
1629376346946,41705,263253,244026
1629376346956,41695,263257,244030
1629376346966,41700,263268,244044
1629376346976,41696,263310,244066
1629376346986,41712,263298,244053
1629376346996,41714,263270,244036
1629376347006,41725,263288,244033
1629376347016,41728,263309,244042
1629376347026,41733,263330,244059
1629376347036,41739,263301,244046
1629376347046,41752,263293,244044
1629376347056,41765,263341,244084
1629376347066,41775,263315,244039
1629376347076,41775,263357,244066
1629376347086,41776,263354,244062
1629376347096,41796,263377,244091
1629376347106,41805,263385,244060
1629376347116,41813,263391,244075
1629376347126,41817,263399,244065
1629376347136,41836,263396,244079
1629376347146,41833,263382,244067
1629376347156,41849,263395,244117
1629376347166,41864,263439,244085
1629376347176,41862,263422,244066
1629376347186,41879,263389,244106
1629376347196,41880,263459,244090
1629376347206,41898,263426,244096
1629376347216,41909,263487,244087
1629376347226,41923,263487,244123
1629376347236,41931,263462,244144
1629376347246,41937,263456,244114
1629376347256,41954,263519,244115
1629376347266,41981,263485,244108
1629376347276,41978,263511,244127
1629376347286,41996,263523,244103
1629376347296,42004,263533,244126
1629376347306,42023,263520,244115
1629376347316,42030,263554,244118
1629376347326,42047,263548,244123
1629376347336,42065,263568,244142
1629376347346,42063,263550,244128
1629376347356,42075,263519,244125
1629376347366,42076,263533,244140
1629376347376,42069,263520,244112
1629376347386,42056,263500,244105
1629376347396,42028,263483,244112
1629376347406,42019,263462,244117
1629376347416,42001,263411,244105
1629376347426,41968,263403,244115
1629376347436,41946,263377,244096
1629376347446,41926,263321,244057
1629376347456,41899,263334,244053
1629376347466,41871,263296,244073
1629376347476,41850,263313,244079
1629376347486,41829,263275,244052
1629376347496,41802,263284,244061
1629376347506,41782,263237,244069
1629376347516,41755,263242,244050
1629376347526,41735,263231,244097
1629376347536,41701,263221,244043
1629376347546,41686,263213,244010
1629376347556,41677,263193,244043
1629376347566,41641,263206,244039
1629376347576,41617,263192,244033
1629376347586,41599,263180,244031
1629376347596,41592,263142,244007
1629376347606,41572,263159,244022
1629376347616,41562,263130,244019
1629376347626,41550,263137,244035
1629376347636,41532,263160,244058
1629376347646,41524,263138,244004
1629376347656,41515,263105,244051
1629376347666,41506,263143,244007
1629376347676,41492,263134,244005
1629376347686,41481,263108,244012
1629376347696,41473,263080,244017
1629376347706,41460,263061,244039
1629376347716,41459,263091,243992
1629376347726,41434,263113,243994
1629376347736,41428,263067,244017
1629376347746,41421,263088,243985
1629376347756,41408,263063,244030
1629376347766,41406,263061,244001
1629376347776,41402,263044,243982
1629376347786,41397,263076,243997
1629376347796,41400,263031,244018
1629376347806,41389,263058,243997
1629376347816,41390,263102,244007
1629376347826,41396,263098,244003
1629376347836,41402,263083,244027
1629376347846,41400,263093,244007
1629376347856,41398,263070,244016
1629376347866,41397,263106,244006
1629376347876,41392,263117,244024
1629376347886,41407,263075,244013
1629376347896,41401,263119,243981
1629376347906,41410,263083,244011
1629376347916,41416,263104,244011
1629376347926,41419,263120,243990
1629376347936,41412,263112,244001
1629376347946,41421,263077,244026
1629376347956,41426,263123,244000
1629376347966,41444,263110,244038
1629376347976,41446,263113,244023
1629376347986,41450,263113,244024
1629376347996,41462,263186,244010
1629376348006,41465,263128,244040
1629376348016,41479,263160,244049
1629376348026,41479,263145,244006
1629376348036,41497,263142,244013
1629376348046,41498,263162,243993
1629376348056,41509,263135,244030
1629376348066,41525,263167,244032
1629376348076,41521,263169,243999
1629376348086,41539,263183,244058
1629376348096,41554,263186,244018
1629376348106,41557,263190,244019
1629376348116,41570,263218,244040
1629376348126,41586,263194,244048
1629376348136,41589,263246,244015
1629376348146,41598,263227,244055
1629376348156,41612,263217,244033
1629376348166,41613,263237,244041
1629376348176,41629,263206,244023
1629376348186,41636,263212,244033
1629376348196,41655,263236,244035
1629376348206,41665,263219,244018
1629376348216,41670,263259,244035
1629376348226,41692,263268,244050
1629376348236,41699,263231,244046
1629376348246,41705,263275,244064
1629376348256,41724,263307,244067
1629376348266,41737,263280,244065
1629376348276,41753,263295,244035
1629376348286,41763,263296,244074
1629376348296,41778,263322,244043
1629376348306,41785,263318,244070
1629376348316,41792,263311,244062
1629376348326,41791,263260,244043
1629376348336,41781,263235,244047
1629376348346,41766,263232,244033
1629376348356,41749,263218,244054
1629376348366,41730,263220,244025
1629376348376,41702,263181,243980
1629376348386,41677,263187,243996
1629376348396,41656,263147,244010
1629376348406,41626,263158,243986
1629376348416,41605,263099,243993
1629376348426,41582,263090,244010
1629376348436,41570,263082,244013
1629376348446,41556,263135,244011
1629376348456,41554,263153,244049
1629376348466,41557,263174,244053
1629376348476,41559,263209,244100
1629376348486,41563,263208,244107
1629376348496,41572,263211,244112
1629376348506,41574,263244,244117
1629376348516,41572,263237,244145
1629376348526,41586,263216,244130
1629376348536,41580,263268,244136
1629376348546,41575,263271,244115
1629376348556,41587,263229,244144
1629376348566,41581,263210,244105
1629376348576,41572,263199,244100
1629376348586,41570,263179,244138
1629376348596,41566,263182,244113
1629376348606,41561,263200,244098
1629376348616,41552,263130,244069
1629376348626,41538,263153,244097
1629376348636,41529,263094,244063
1629376348646,41512,263115,244096
1629376348656,41498,263096,244048
1629376348666,41494,263069,244064
1629376348676,41469,263077,244070
1629376348686,41453,263038,244075
1629376348696,41438,263060,244016
1629376348706,41418,263049,244031
1629376348716,41411,262979,244017
1629376348726,41385,263023,244037
1629376348736,41383,262969,244025
1629376348746,41373,262966,244031
1629376348756,41362,263011,244020
1629376348766,41346,262974,244026
1629376348776,41340,262982,244027
1629376348786,41327,262941,244034
1629376348796,41317,262923,244024
1629376348806,41313,262942,243984
1629376348816,41309,262956,244016
1629376348826,41308,262941,244004
1629376348836,41304,262955,244031
1629376348846,41296,262990,244001
1629376348856,41303,262948,244023
1629376348866,41288,262955,243972
1629376348876,41297,262948,243995
1629376348886,41296,262957,244013
1629376348896,41285,262982,243971
1629376348906,41297,263003,244021
1629376348916,41296,262996,244000
1629376348926,41303,262980,244016
1629376348936,41307,262978,244014
1629376348946,41303,263001,244034
1629376348956,41312,262979,244001
1629376348966,41315,263005,244017
1629376348976,41318,262990,244043
1629376348986,41327,262986,244009
1629376348996,41323,263015,244032
1629376349006,41335,263011,244044
1629376349016,41336,263023,244021
1629376349026,41345,263002,244007
1629376349036,41346,263008,244030
1629376349046,41368,262996,244048
1629376349056,41359,263015,244037
1629376349066,41376,263030,244032
1629376349076,41383,263054,244067
1629376349086,41385,263045,244051
1629376349096,41396,263012,244029
1629376349106,41409,263034,244041
1629376349116,41418,263080,244064
1629376349126,41426,263031,244025
1629376349136,41438,263070,244025
1629376349146,41449,263067,244007
1629376349156,41466,263075,244039
1629376349166,41486,263052,244037
1629376349176,41503,263103,244064
1629376349186,41514,263147,244030
1629376349196,41559,263100,244073
1629376349206,41572,263182,244076
1629376349216,41599,263160,244096
1629376349226,41624,263178,244074
1629376349236,41655,263193,244096
1629376349246,41678,263222,244099
1629376349256,41709,263242,244124
1629376349266,41730,263265,244097
1629376349276,41754,263296,244085
1629376349286,41778,263270,244111
1629376349296,41807,263256,244088
1629376349306,41818,263296,244129
1629376349316,41832,263300,244113
1629376349326,41846,263253,244109
1629376349336,41826,263215,244122
1629376349346,41836,263203,244127
1629376349356,41818,263244,244091
1629376349366,41793,263197,244095
1629376349376,41775,263154,244093
1629376349386,41742,263137,244073
1629376349396,41724,263086,244096
1629376349406,41690,263065,244089
1629376349416,41664,263080,244108
1629376349426,41641,263035,244087
1629376349436,41619,263029,244072
1629376349446,41594,263041,244062
1629376349456,41572,262998,244043
1629376349466,41542,263011,244087
1629376349476,41511,263014,244055
1629376349486,41491,262964,244060
1629376349496,41463,262956,244053
1629376349506,41445,262924,244055
1629376349516,41423,262935,244045
1629376349526,41397,262937,244028
1629376349536,41368,262933,244041
1629376349546,41339,262882,244019
1629376349556,41329,262871,244037
1629376349566,41306,262870,244034
1629376349576,41299,262865,244023
1629376349586,41276,262865,244042
1629376349596,41264,262834,244011
1629376349606,41248,262881,244023
1629376349616,41241,262847,244018
1629376349626,41220,262867,244024
1629376349636,41211,262819,243998
1629376349646,41194,262805,244029
1629376349656,41171,262815,244033
1629376349666,41172,262823,244019
1629376349676,41152,262843,244018
1629376349686,41132,262825,244015
1629376349696,41130,262844,244010
1629376349706,41120,262822,244024
1629376349716,41112,262837,243990
1629376349726,41106,262825,243993
1629376349736,41103,262819,244022
1629376349746,41096,262849,244016
1629376349756,41091,262827,244007
1629376349766,41082,262801,243999
1629376349776,41082,262844,244025
1629376349786,41070,262793,244027
1629376349796,41075,262849,243992
1629376349806,41077,262819,244011
1629376349816,41079,262850,243983
1629376349826,41082,262806,243993
1629376349836,41081,262865,244004
1629376349846,41096,262845,244013
1629376349856,41087,262818,244004
1629376349866,41090,262867,244016
1629376349876,41086,262880,244006
1629376349886,41089,262862,244008
1629376349896,41096,262876,244004
1629376349906,41098,262807,243991
1629376349916,41100,262860,244021
1629376349926,41110,262847,244013
1629376349936,41121,262822,244011
1629376349946,41123,262870,244032
1629376349956,41128,262884,244049
1629376349966,41141,262894,243988
1629376349976,41150,262848,243989
1629376349986,41171,262874,244035
1629376349996,41172,262834,244059
1629376350006,41190,262880,244032
1629376350016,41187,262898,244050
1629376350026,41204,262898,244055
1629376350036,41209,262860,244034
1629376350046,41217,262911,244060
1629376350056,41224,262900,244037
1629376350066,41236,262938,244039
1629376350076,41247,262903,244051
1629376350086,41257,262908,244067
1629376350096,41265,262918,244089
1629376350106,41279,262907,244048
1629376350116,41272,262959,244065
1629376350126,41288,262898,244053
1629376350136,41290,262901,244044
1629376350146,41293,262925,244068
1629376350156,41317,262958,244015
1629376350166,41321,262912,244059
1629376350176,41326,262879,244034
1629376350186,41348,262866,244047
1629376350196,41355,262848,244039
1629376350206,41369,262838,244056
1629376350216,41385,262841,244017
1629376350226,41400,262877,244029
1629376350236,41416,262865,244014
1629376350246,41428,262818,244031
1629376350256,41448,262832,244036
1629376350266,41467,262860,244032
1629376350276,41486,262862,244051
1629376350286,41501,262881,244019
1629376350296,41510,262913,244042
1629376350306,41525,262861,244050
1629376350316,41536,262886,244063
1629376350326,41562,262843,244050
1629376350336,41556,262877,244049
1629376350346,41539,262878,244024
1629376350356,41535,262858,244044
1629376350366,41506,262803,244027
1629376350376,41484,262792,244022
1629376350386,41451,262768,244028
1629376350396,41417,262769,244031
1629376350406,41382,262694,244027
1629376350416,41343,262754,243990
1629376350426,41306,262694,244011
1629376350436,41266,262666,243991
1629376350446,41236,262660,243974
1629376350456,41194,262617,244008
1629376350466,41155,262597,243969
1629376350476,41114,262594,243951
1629376350486,41095,262539,243958
1629376350496,41053,262527,243965
1629376350506,41016,262532,243953
1629376350516,40987,262479,243920
1629376350526,40939,262474,243919
1629376350536,40907,262437,243940
1629376350546,40864,262441,243910
1629376350556,40840,262401,243897
1629376350566,40808,262376,243939
1629376350576,40777,262383,243897
1629376350586,40751,262376,243886
1629376350596,40726,262339,243907
1629376350606,40702,262335,243882
1629376350616,40684,262327,243883
1629376350626,40660,262347,243870
1629376350636,40661,262316,243844
1629376350646,40635,262315,243894
1629376350656,40614,262337,243844
1629376350666,40591,262265,243858
1629376350676,40578,262328,243881
1629376350686,40554,262289,243861
1629376350696,40532,262319,243879
1629376350706,40520,262287,243844
1629376350716,40501,262259,243815
1629376350726,40483,262258,243832
1629376350736,40476,262256,243853
1629376350746,40457,262263,243832
1629376350756,40449,262252,243823
1629376350766,40432,262272,243818
1629376350776,40423,262249,243834
1629376350786,40415,262207,243786
1629376350796,40421,262251,243822
1629376350806,40404,262248,243818
1629376350816,40395,262216,243806
1629376350826,40381,262192,243805
1629376350836,40382,262207,243783
1629376350846,40381,262254,243770
1629376350856,40385,262231,243791
1629376350866,40380,262211,243796
1629376350876,40382,262276,243786
1629376350886,40379,262241,243772
1629376350896,40387,262226,243779
1629376350906,40388,262248,243767
1629376350916,40390,262266,243765
1629376350926,40398,262282,243801
1629376350936,40394,262234,243808
1629376350946,40406,262214,243790
1629376350956,40404,262234,243782
1629376350966,40407,262263,243781
1629376350976,40429,262269,243780
1629376350986,40424,262255,243762
1629376350996,40429,262260,243765
1629376351006,40439,262278,243788
1629376351016,40453,262264,243807
1629376351026,40455,262287,243793
1629376351036,40467,262243,243784
1629376351046,40483,262295,243770
1629376351056,40485,262258,243772
1629376351066,40499,262262,243800
1629376351076,40517,262317,243800
1629376351086,40516,262310,243795
1629376351096,40517,262339,243794
1629376351106,40539,262287,243828
1629376351116,40547,262331,243794
1629376351126,40555,262324,243816
1629376351136,40563,262335,243808
1629376351146,40591,262374,243818
1629376351156,40591,262371,243820
1629376351166,40594,262403,243820
1629376351176,40609,262432,243842
1629376351186,40620,262380,243823
1629376351196,40632,262409,243835
1629376351206,40644,262415,243831
1629376351216,40652,262393,243844
1629376351226,40671,262370,243843
1629376351236,40678,262430,243885
1629376351246,40697,262437,243888
1629376351256,40703,262423,243858
1629376351266,40716,262466,243863
1629376351276,40722,262489,243857
1629376351286,40741,262460,243846
1629376351296,40763,262462,243865
1629376351306,40775,262487,243853
1629376351316,40781,262461,243858
1629376351326,40783,262468,243863
1629376351336,40797,262512,243864
1629376351346,40799,262506,243845
1629376351356,40803,262465,243839
1629376351366,40788,262449,243866
1629376351376,40769,262395,243869
1629376351386,40747,262360,243856
1629376351396,40736,262321,243823
1629376351406,40708,262299,243840
1629376351416,40693,262299,243817
1629376351426,40670,262315,243828
1629376351436,40649,262268,243818
1629376351446,40619,262260,243836
1629376351456,40624,262224,243842
1629376351466,40591,262183,243829
1629376351476,40569,262206,243825
1629376351486,40571,262182,243841
1629376351496,40547,262160,243836
1629376351506,40530,262187,243819
1629376351516,40512,262181,243819
1629376351526,40492,262143,243802
1629376351536,40482,262119,243812
1629376351546,40462,262127,243817
1629376351556,40446,262108,243804
1629376351566,40433,262056,243793
1629376351576,40413,262029,243797
1629376351586,40414,262089,243814
1629376351596,40397,262041,243774
1629376351606,40401,261989,243798
1629376351616,40393,261992,243756
1629376351626,40407,261975,243804
1629376351636,40384,261924,243826
1629376351646,40403,261935,243795
1629376351656,40405,261904,243769
1629376351666,40403,261869,243774
1629376351676,40411,261868,243795
1629376351686,40412,261838,243776
1629376351696,40419,261855,243807
1629376351706,40430,261825,243804
1629376351716,40446,261817,243803
1629376351726,40445,261835,243822
1629376351736,40463,261828,243848
1629376351746,40474,261861,243847
1629376351756,40480,261814,243850
1629376351766,40490,261810,243868
1629376351776,40508,261821,243813
1629376351786,40496,261843,243837
1629376351796,40522,261807,243872
1629376351806,40551,261815,243821
1629376351816,40554,261834,243860
1629376351826,40571,261795,243852
1629376351836,40582,261823,243857
1629376351846,40601,261858,243866
1629376351856,40609,261883,243870
1629376351866,40626,261901,243871
1629376351876,40646,261883,243904
1629376351886,40661,261885,243899
1629376351896,40682,261895,243865
1629376351906,40693,261934,243900
1629376351916,40706,261937,243892
1629376351926,40728,261958,243891
1629376351936,40743,261986,243919
1629376351946,40753,261995,243950
1629376351956,40769,262056,243956
1629376351966,40776,262025,243937
1629376351976,40799,262063,243976
1629376351986,40805,262039,243952
1629376351996,40814,262102,243969
1629376352006,40826,262115,243957
1629376352016,40839,262105,243949
1629376352026,40846,262159,243949
1629376352036,40865,262144,244000
1629376352046,40875,262162,243969
1629376352056,40892,262136,244002
1629376352066,40899,262160,243988
1629376352076,40913,262200,244016
1629376352086,40916,262222,244035
1629376352096,40945,262250,243990
1629376352106,40940,262274,244031
1629376352116,40951,262325,244035
1629376352126,40971,262309,244041
1629376352136,40973,262358,244014
1629376352146,40985,262376,244060
1629376352156,40996,262374,244040
1629376352166,41008,262392,244064
1629376352176,41020,262441,244051
1629376352186,41028,262422,244061
1629376352196,41040,262420,244061
1629376352206,41055,262450,244101
1629376352216,41065,262468,244061
1629376352226,41071,262477,244111
1629376352236,41089,262485,244078
1629376352246,41102,262550,244092
1629376352256,41121,262517,244074
1629376352266,41116,262536,244093
1629376352276,41145,262599,244082
1629376352286,41146,262522,244119
1629376352296,41166,262543,244117
1629376352306,41153,262583,244087
1629376352316,41149,262530,244088
1629376352326,41142,262541,244094
1629376352336,41127,262505,244097
1629376352346,41104,262542,244101
1629376352356,41086,262478,244068
1629376352366,41063,262472,244082
1629376352376,41039,262457,244103
1629376352386,41011,262427,244080
1629376352396,40991,262414,244076
1629376352406,40977,262411,244073
1629376352416,40939,262379,244110
1629376352426,40929,262376,244087
1629376352436,40909,262396,244088
1629376352446,40885,262350,244082
1629376352456,40849,262299,244071
1629376352466,40838,262332,244061
1629376352476,40819,262294,244079
1629376352486,40795,262319,244049
1629376352496,40781,262288,244055
1629376352506,40754,262316,244064
1629376352516,40746,262260,244068
1629376352526,40724,262207,244062
1629376352536,40709,262245,244061
1629376352546,40695,262262,244039
1629376352556,40683,262288,244039
1629376352566,40672,262259,244059
1629376352576,40674,262241,244022
1629376352586,40654,262258,244052
1629376352596,40642,262268,244046
1629376352606,40664,262263,244039
1629376352616,40646,262240,244068
1629376352626,40634,262273,244080
1629376352636,40627,262233,244050
1629376352646,40621,262213,244037
1629376352656,40619,262243,244072
1629376352666,40614,262249,244064
1629376352676,40613,262298,244043
1629376352686,40616,262228,244051
1629376352696,40604,262261,244068
1629376352706,40609,262231,244086
1629376352716,40609,262232,244065
1629376352726,40605,262237,244043
1629376352736,40614,262261,244035
1629376352746,40616,262249,244071
1629376352756,40615,262228,244072
1629376352766,40619,262268,244080
1629376352776,40629,262242,244070
1629376352786,40624,262260,244064
1629376352796,40642,262294,244097
1629376352806,40642,262247,244074
1629376352816,40651,262255,244060
1629376352826,40654,262288,244091
1629376352836,40667,262299,244073
1629376352846,40670,262330,244069
1629376352856,40687,262338,244108
1629376352866,40693,262330,244106
1629376352876,40707,262306,244135
1629376352886,40717,262354,244122
1629376352896,40726,262370,244085
1629376352906,40737,262377,244098
1629376352916,40748,262401,244105
1629376352926,40771,262382,244096
1629376352936,40766,262392,244102
1629376352946,40786,262409,244139
1629376352956,40800,262414,244131
1629376352966,40814,262440,244112
1629376352976,40825,262419,244132
1629376352986,40833,262479,244122
1629376352996,40851,262472,244118
1629376353006,40862,262434,244116
1629376353016,40883,262484,244123
1629376353026,40899,262499,244141
1629376353036,40915,262532,244128
1629376353046,40940,262503,244146
1629376353056,40945,262513,244151
1629376353066,40964,262528,244178
1629376353076,40989,262548,244147
1629376353086,40989,262556,244189
1629376353096,41019,262562,244171
1629376353106,41031,262570,244159
1629376353116,41047,262569,244189
1629376353126,41065,262602,244187
1629376353136,41069,262630,244199
1629376353146,41101,262615,244162
1629376353156,41112,262655,244193
1629376353166,41133,262647,244182
1629376353176,41151,262662,244207
1629376353186,41167,262648,244204
1629376353196,41182,262684,244188
1629376353206,41204,262692,244224
1629376353216,41219,262743,244208
1629376353226,41244,262686,244227
1629376353236,41263,262748,244247
1629376353246,41277,262766,244257
1629376353256,41305,262764,244209
1629376353266,41324,262771,244269
1629376353276,41348,262790,244239
1629376353286,41356,262772,244233
1629376353296,41361,262779,244235
1629376353306,41368,262777,244218
1629376353316,41371,262747,244238
1629376353326,41359,262713,244231
1629376353336,41349,262721,244234
1629376353346,41331,262727,244217
1629376353356,41309,262680,244219
1629376353366,41291,262681,244213
1629376353376,41273,262645,244208
1629376353386,41253,262622,244232
1629376353396,41236,262606,244188
1629376353406,41202,262620,244221
1629376353416,41189,262584,244213
1629376353426,41173,262601,244185
1629376353436,41137,262563,244181
1629376353446,41129,262523,244154
1629376353456,41114,262505,244203
1629376353466,41093,262510,244199
1629376353476,41078,262501,244184
1629376353486,41064,262461,244163
1629376353496,41037,262498,244187
1629376353506,41029,262498,244189
1629376353516,41003,262459,244162
1629376353526,40988,262435,244159
1629376353536,40961,262420,244160
1629376353546,40956,262453,244148
1629376353556,40941,262413,244147
1629376353566,40948,262416,244167
1629376353576,40928,262444,244179
1629376353586,40920,262412,244186
1629376353596,40912,262433,244155
1629376353606,40907,262417,244174
1629376353616,40910,262424,244180
1629376353626,40907,262388,244156
1629376353636,40896,262417,244148
1629376353646,40898,262387,244170
1629376353656,40890,262387,244146
1629376353666,40893,262378,244153
1629376353676,40890,262388,244147
1629376353686,40887,262422,244145
1629376353696,40877,262368,244137
1629376353706,40876,262428,244179
1629376353716,40862,262392,244154
1629376353726,40889,262409,244154
1629376353736,40866,262383,244145
1629376353746,40866,262403,244109
1629376353756,40881,262402,244158
1629376353766,40880,262418,244149
1629376353776,40885,262388,244121
1629376353786,40889,262412,244148
1629376353796,40891,262404,244177
1629376353806,40897,262392,244166
1629376353816,40914,262431,244160
1629376353826,40927,262429,244151
1629376353836,40931,262438,244190
1629376353846,40944,262426,244170
1629376353856,40957,262472,244183
1629376353866,40966,262476,244194
1629376353876,40976,262480,244170
1629376353886,40991,262474,244181
1629376353896,41023,262473,244168
1629376353906,41020,262477,244226
1629376353916,41030,262522,244205
1629376353926,41048,262526,244212
1629376353936,41066,262497,244233
1629376353946,41068,262525,244178
1629376353956,41095,262546,244179
1629376353966,41107,262564,244226
1629376353976,41122,262554,244200
1629376353986,41133,262570,244237
1629376353996,41154,262585,244230
1629376354006,41172,262577,244263
1629376354016,41187,262601,244230
1629376354026,41201,262618,244226
1629376354036,41212,262609,244241
1629376354046,41223,262624,244244
1629376354056,41248,262697,244265
1629376354066,41265,262616,244264
1629376354076,41267,262721,244263
1629376354086,41285,262663,244268
1629376354096,41307,262714,244266
1629376354106,41320,262702,244280
1629376354116,41338,262705,244266
1629376354126,41350,262740,244293
1629376354136,41371,262751,244305
1629376354146,41384,262784,244308
1629376354156,41396,262785,244270
1629376354166,41413,262757,244301
1629376354176,41429,262769,244289
1629376354186,41453,262806,244300
1629376354196,41461,262827,244301
1629376354206,41475,262831,244308
1629376354216,41513,262836,244315
1629376354226,41530,262832,244294
1629376354236,41544,262835,244296
1629376354246,41568,262843,244334
1629376354256,41573,262877,244317
1629376354266,41597,262869,244343
1629376354276,41607,262935,244322
1629376354286,41629,262903,244337
1629376354296,41641,262901,244334
1629376354306,41654,262878,244331
1629376354316,41660,262895,244396
1629376354326,41658,262899,244313
1629376354336,41650,262850,244348
1629376354346,41636,262848,244354
1629376354356,41626,262835,244291
1629376354366,41606,262776,244325
1629376354376,41582,262820,244369
1629376354386,41583,262787,244333
1629376354396,41572,262751,244301
1629376354406,41539,262739,244349
1629376354416,41530,262754,244307
1629376354426,41504,262754,244312
1629376354436,41492,262648,244322
1629376354446,41470,262689,244297
1629376354456,41465,262704,244294
1629376354466,41442,262683,244302
1629376354476,41426,262672,244316
1629376354486,41410,262677,244280
1629376354496,41392,262650,244289
1629376354506,41375,262605,244278
1629376354516,41363,262625,244285
1629376354526,41351,262590,244270
1629376354536,41337,262613,244280
1629376354546,41311,262613,244279
1629376354556,41326,262589,244272
1629376354566,41312,262610,244273
1629376354576,41304,262542,244268
1629376354586,41290,262614,244280
1629376354596,41294,262599,244302
1629376354606,41279,262599,244263
1629376354616,41281,262600,244254
1629376354626,41277,262573,244286
1629376354636,41268,262615,244277
1629376354646,41261,262613,244265
1629376354656,41261,262573,244251
1629376354666,41249,262573,244266
1629376354676,41253,262606,244272
1629376354686,41247,262579,244250
1629376354696,41254,262600,244272
1629376354706,41242,262607,244273
1629376354716,41241,262641,244262
1629376354726,41229,262567,244293
1629376354736,41231,262600,244259
1629376354746,41239,262601,244288
1629376354756,41234,262578,244262
1629376354766,41243,262606,244296
1629376354776,41247,262630,244276
1629376354786,41250,262652,244284
1629376354796,41258,262615,244286
1629376354806,41263,262618,244282
1629376354816,41269,262643,244284
1629376354826,41276,262692,244283
1629376354836,41280,262634,244277
1629376354846,41285,262650,244308
1629376354856,41298,262660,244266
1629376354866,41311,262673,244296
1629376354876,41319,262652,244299
1629376354886,41321,262677,244265
1629376354896,41340,262700,244300
1629376354906,41339,262684,244306
1629376354916,41356,262689,244310
1629376354926,41377,262720,244326
1629376354936,41382,262736,244307
1629376354946,41398,262767,244298
1629376354956,41410,262751,244340
1629376354966,41425,262763,244332
1629376354976,41439,262762,244333
1629376354986,41449,262775,244335
1629376354996,41463,262775,244328
1629376355006,41480,262822,244341
1629376355016,41499,262805,244345
1629376355026,41511,262826,244327
1629376355036,41523,262860,244329
1629376355046,41531,262816,244347
1629376355056,41536,262866,244359
1629376355066,41563,262842,244341
1629376355076,41578,262874,244362
1629376355086,41590,262877,244312
1629376355096,41607,262880,244352
1629376355106,41619,262885,244354
1629376355116,41632,262910,244365
1629376355126,41648,262928,244348
1629376355136,41681,262933,244359
1629376355146,41685,262958,244405
1629376355156,41701,262957,244369
1629376355166,41717,262965,244395
1629376355176,41736,263007,244402
1629376355186,41751,262966,244412
1629376355196,41768,263045,244373
1629376355206,41782,263039,244411
1629376355216,41792,263059,244425
1629376355226,41820,263039,244407
1629376355236,41831,263037,244415
1629376355246,41838,263058,244374
1629376355256,41849,263034,244408
1629376355266,41849,263041,244417
1629376355276,41851,262998,244404
1629376355286,41840,262971,244377
1629376355296,41818,262960,244404
1629376355306,41810,262955,244388
1629376355316,41790,262893,244372
1629376355326,41764,262945,244394
1629376355336,41737,262919,244403
1629376355346,41708,262873,244378
1629376355356,41693,262869,244372
1629376355366,41681,262873,244360
1629376355376,41663,262843,244352
1629376355386,41619,262818,244358
1629376355396,41607,262809,244353
1629376355406,41580,262787,244352
1629376355416,41560,262773,244352
1629376355426,41538,262780,244346
1629376355436,41514,262777,244325
1629376355446,41484,262739,244318
1629376355456,41462,262699,244331
1629376355466,41449,262721,244335
1629376355476,41427,262647,244305
1629376355486,41412,262719,244285
1629376355496,41382,262653,244309
1629376355506,41361,262657,244305
1629376355516,41363,262653,244269
1629376355526,41352,262650,244321
1629376355536,41350,262649,244289
1629376355546,41322,262622,244284
1629376355556,41318,262621,244307
1629376355566,41317,262642,244271
1629376355576,41294,262620,244277
1629376355586,41289,262628,244272
1629376355596,41280,262618,244287
1629376355606,41272,262607,244272
1629376355616,41262,262619,244270
1629376355626,41257,262608,244277
1629376355636,41242,262599,244281
1629376355646,41236,262612,244253
1629376355656,41238,262614,244278
1629376355666,41235,262613,244266
1629376355676,41228,262604,244263
1629376355686,41224,262643,244302
1629376355696,41228,262652,244249
1629376355706,41219,262598,244270
1629376355716,41224,262614,244258
1629376355726,41220,262588,244267
1629376355736,41226,262639,244251
1629376355746,41219,262644,244293
1629376355756,41227,262631,244266
1629376355766,41228,262627,244263
1629376355776,41232,262646,244243
1629376355786,41236,262603,244242
1629376355796,41248,262645,244273
1629376355806,41250,262655,244304
1629376355816,41256,262654,244265
1629376355826,41278,262639,244274
1629376355836,41274,262688,244275
1629376355846,41286,262667,244282
1629376355856,41274,262653,244303
1629376355866,41287,262675,244291
1629376355876,41303,262663,244308
1629376355886,41313,262721,244298
1629376355896,41324,262698,244304
1629376355906,41334,262717,244298
1629376355916,41345,262704,244323
1629376355926,41354,262745,244277
1629376355936,41367,262732,244303
1629376355946,41369,262731,244312
1629376355956,41375,262740,244302
1629376355966,41405,262756,244314
1629376355976,41401,262767,244322
1629376355986,41417,262782,244286
1629376355996,41426,262821,244329
1629376356006,41428,262774,244341
1629376356016,41451,262792,244304
1629376356026,41451,262820,244315
1629376356036,41475,262809,244308
1629376356046,41490,262854,244311
1629376356056,41506,262848,244347
1629376356066,41517,262872,244338
1629376356076,41526,262846,244328
1629376356086,41544,262849,244334
1629376356096,41561,262882,244361
1629376356106,41576,262912,244354
1629376356116,41588,262896,244368
1629376356126,41603,262907,244357
1629376356136,41615,262939,244382
1629376356146,41634,262938,244360
1629376356156,41654,262974,244357
1629376356166,41660,263002,244342
1629376356176,41688,262968,244380
1629376356186,41683,262973,244386
1629376356196,41712,263021,244402
1629376356206,41726,263021,244398
1629376356216,41749,263029,244393
1629376356226,41758,263027,244404
1629376356236,41772,263011,244402
1629376356246,41787,263048,244394
1629376356256,41792,263031,244375
1629376356266,41793,263004,244360
1629376356276,41787,262994,244360
1629376356286,41772,262981,244386
1629376356296,41757,262975,244365
1629376356306,41741,262919,244369
1629376356316,41718,262949,244381
1629376356326,41692,262876,244351
1629376356336,41674,262875,244352
1629376356346,41638,262845,244331
1629376356356,41625,262842,244370
1629376356366,41610,262872,244373
1629376356376,41575,262828,244352
1629376356386,41558,262779,244324
1629376356396,41531,262744,244350
1629376356406,41515,262765,244355
1629376356416,41488,262719,244317
1629376356426,41469,262723,244334
1629376356436,41446,262702,244280
1629376356446,41421,262724,244307
1629376356456,41394,262701,244310
1629376356466,41375,262685,244309
1629376356476,41353,262665,244306
1629376356486,41340,262653,244315
1629376356496,41322,262624,244306
1629376356506,41291,262651,244297
1629376356516,41276,262609,244311
1629376356526,41271,262647,244290
1629376356536,41257,262626,244270
1629376356546,41257,262597,244288
1629376356556,41238,262590,244284
1629376356566,41239,262624,244260
1629376356576,41232,262563,244281
1629376356586,41212,262604,244281
1629376356596,41208,262621,244248
1629376356606,41197,262605,244276
1629376356616,41183,262582,244290
1629376356626,41180,262573,244290
1629376356636,41157,262560,244265
1629376356646,41162,262588,244296
1629376356656,41150,262599,244266
1629376356666,41169,262579,244264
1629376356676,41167,262542,244252
1629376356686,41153,262565,244256
1629376356696,41147,262582,244269
1629376356706,41149,262575,244253
1629376356716,41144,262606,244266
1629376356726,41145,262564,244297
1629376356736,41149,262579,244260
1629376356746,41150,262601,244264
1629376356756,41155,262595,244286
1629376356766,41150,262592,244273
1629376356776,41158,262595,244259
1629376356786,41165,262599,244250
1629376356796,41162,262595,244269
1629376356806,41168,262612,244247
1629376356816,41183,262607,244290
1629376356826,41178,262659,244267
1629376356836,41193,262652,244264
1629376356846,41196,262637,244266
1629376356856,41202,262587,244257
1629376356866,41214,262678,244286
1629376356876,41217,262647,244301
1629376356886,41234,262665,244298
1629376356896,41241,262687,244297
1629376356906,41247,262677,244309
1629376356916,41265,262699,244292
1629376356926,41273,262676,244307
1629376356936,41282,262703,244273
1629376356946,41287,262713,244300
1629376356956,41299,262693,244297
1629376356966,41308,262695,244276
1629376356976,41317,262684,244288
1629376356986,41330,262671,244293
1629376356996,41341,262707,244315
1629376357006,41358,262712,244302
1629376357016,41365,262748,244308
1629376357026,41376,262734,244312
1629376357036,41393,262774,244310
1629376357046,41411,262791,244324
1629376357056,41422,262732,244335
1629376357066,41436,262810,244314
1629376357076,41446,262823,244320
1629376357086,41464,262771,244370
1629376357096,41474,262852,244341
1629376357106,41499,262856,244342
1629376357116,41508,262850,244326
1629376357126,41515,262820,244363
1629376357136,41532,262878,244361
1629376357146,41560,262891,244313
1629376357156,41562,262843,244340
1629376357166,41582,262860,244371
1629376357176,41603,262918,244349
1629376357186,41622,262914,244368
1629376357196,41636,262911,244382
1629376357206,41652,262912,244388
1629376357216,41666,262904,244373
1629376357226,41685,262943,244402
1629376357236,41705,262958,244380
1629376357246,41724,262950,244396
1629376357256,41735,262980,244408
1629376357266,41743,262927,244389
1629376357276,41740,262972,244359
1629376357286,41725,262940,244408
1629376357296,41727,262881,244369
1629376357306,41723,262857,244361
1629376357316,41702,262866,244368
1629376357326,41680,262819,244378
1629376357336,41651,262810,244358
1629376357346,41635,262769,244360
1629376357356,41613,262759,244353
1629376357366,41598,262801,244371
1629376357376,41573,262761,244328
1629376357386,41554,262757,244335
1629376357396,41536,262740,244360
1629376357406,41516,262739,244339
1629376357416,41503,262719,244335
1629376357426,41477,262697,244321
1629376357436,41460,262681,244323
1629376357446,41450,262653,244340
1629376357456,41422,262698,244347
1629376357466,41409,262669,244327
1629376357476,41393,262659,244340
1629376357486,41359,262637,244301
1629376357496,41347,262628,244300
1629376357506,41337,262604,244277
1629376357516,41327,262542,244291
1629376357526,41310,262610,244305
1629376357536,41303,262577,244291
1629376357546,41296,262548,244300
1629376357556,41290,262587,244310
1629376357566,41285,262558,244281
1629376357576,41271,262596,244273
1629376357586,41269,262508,244283
1629376357596,41254,262567,244298
1629376357606,41250,262550,244255
1629376357616,41237,262527,244294
1629376357626,41220,262565,244269
1629376357636,41215,262577,244287
1629376357646,41206,262517,244287
1629376357656,41218,262557,244259
1629376357666,41208,262555,244257
1629376357676,41205,262548,244265
1629376357686,41203,262534,244265
1629376357696,41202,262514,244267
1629376357706,41202,262522,244271
1629376357716,41205,262536,244262
1629376357726,41201,262491,244272
1629376357736,41204,262521,244294
1629376357746,41205,262505,244259
1629376357756,41205,262512,244272
1629376357766,41215,262514,244305
1629376357776,41219,262555,244280
1629376357786,41227,262599,244301
1629376357796,41224,262546,244275
1629376357806,41239,262605,244303
1629376357816,41241,262539,244264
1629376357826,41243,262589,244300
1629376357836,41261,262604,244314
1629376357846,41264,262595,244306
1629376357856,41272,262594,244302
1629376357866,41278,262610,244283
1629376357876,41294,262645,244331
1629376357886,41296,262630,244312
1629376357896,41305,262630,244282
1629376357906,41314,262656,244308
1629376357916,41326,262630,244301
1629376357926,41332,262642,244288
1629376357936,41340,262621,244301
1629376357946,41364,262688,244316
1629376357956,41365,262677,244316
1629376357966,41364,262634,244348
1629376357976,41385,262678,244331
1629376357986,41396,262719,244336
1629376357996,41402,262729,244353
1629376358006,41416,262730,244313
1629376358016,41426,262761,244330
1629376358026,41427,262745,244317
1629376358036,41454,262766,244323
1629376358046,41462,262765,244335
1629376358056,41478,262758,244347
1629376358066,41484,262784,244344
1629376358076,41496,262780,244377
1629376358086,41513,262820,244326
1629376358096,41516,262843,244340
1629376358106,41521,262790,244369
1629376358116,41552,262853,244360
1629376358126,41560,262855,244348
1629376358136,41575,262789,244367
1629376358146,41594,262859,244389
1629376358156,41601,262849,244366
1629376358166,41613,262860,244398
1629376358176,41625,262846,244404
1629376358186,41639,262908,244395
1629376358196,41653,262900,244378
1629376358206,41663,262889,244368
1629376358216,41668,262921,244383
1629376358226,41678,262891,244372
1629376358236,41671,262845,244400
1629376358246,41667,262841,244396
1629376358256,41642,262842,244361
1629376358266,41614,262799,244359
1629376358276,41593,262821,244371
1629376358286,41577,262799,244356
1629376358296,41547,262753,244339
1629376358306,41535,262748,244342
1629376358316,41506,262697,244360
1629376358326,41484,262708,244346
1629376358336,41466,262693,244335
1629376358346,41435,262675,244330
1629376358356,41424,262685,244333
1629376358366,41397,262666,244312
1629376358376,41372,262657,244309
1629376358386,41351,262641,244305
1629376358396,41331,262632,244323
1629376358406,41310,262624,244305
1629376358416,41283,262600,244301
1629376358426,41271,262556,244316
1629376358436,41244,262512,244305
1629376358446,41228,262580,244293
1629376358456,41212,262577,244302
1629376358466,41186,262534,244283
1629376358476,41181,262532,244277
1629376358486,41167,262505,244305
1629376358496,41154,262554,244284
1629376358506,41149,262541,244317
1629376358516,41138,262563,244280
1629376358526,41120,262534,244308
1629376358536,41116,262536,244314
1629376358546,41104,262488,244268
1629376358556,41084,262533,244282
1629376358566,41077,262486,244264
1629376358576,41066,262485,244243
1629376358586,41048,262512,244294
1629376358596,41050,262471,244251
1629376358606,41045,262478,244283
1629376358616,41036,262451,244257
1629376358626,41022,262494,244247
1629376358636,41012,262476,244271
1629376358646,41014,262473,244269
1629376358656,41001,262459,244270
1629376358666,41000,262488,244256
1629376358676,40996,262481,244270
1629376358686,40990,262469,244265
1629376358696,40996,262461,244283
1629376358706,40992,262496,244277
1629376358716,40992,262458,244288
1629376358726,40990,262498,244265
1629376358736,40990,262484,244272
1629376358746,41001,262492,244274
1629376358756,40988,262519,244279
1629376358766,41005,262498,244277
1629376358776,41012,262491,244249
1629376358786,41029,262497,244250
1629376358796,41023,262497,244284
1629376358806,41029,262518,244289
1629376358816,41039,262519,244285
1629376358826,41045,262518,244282
1629376358836,41050,262512,244339
1629376358846,41061,262555,244282
1629376358856,41075,262593,244302
1629376358866,41084,262586,244310
1629376358876,41094,262579,244314
1629376358886,41109,262564,244299
1629376358896,41111,262588,244288
1629376358906,41119,262585,244330
1629376358916,41120,262573,244327
1629376358926,41133,262593,244307
1629376358936,41146,262620,244295
1629376358946,41171,262658,244300
1629376358956,41177,262621,244301
1629376358966,41187,262610,244319
1629376358976,41195,262664,244314
1629376358986,41205,262697,244311
1629376358996,41217,262670,244313
1629376359006,41230,262679,244321
1629376359016,41236,262717,244311
1629376359026,41251,262661,244348
1629376359036,41264,262709,244317
1629376359046,41280,262679,244350
1629376359056,41289,262724,244331
1629376359066,41315,262714,244358
1629376359076,41317,262770,244368
1629376359086,41343,262735,244336
1629376359096,41350,262793,244363
1629376359106,41376,262768,244358
1629376359116,41378,262738,244364
1629376359126,41396,262763,244362
1629376359136,41414,262765,244369
1629376359146,41425,262805,244359
1629376359156,41454,262818,244374
1629376359166,41461,262817,244383
1629376359176,41459,262800,244386
1629376359186,41465,262800,244369
1629376359196,41455,262754,244376
1629376359206,41448,262762,244355
1629376359216,41425,262741,244346
1629376359226,41400,262721,244387
1629376359236,41367,262673,244335
1629376359246,41354,262661,244351
1629376359256,41332,262635,244334
1629376359266,41301,262604,244342
1629376359276,41277,262599,244324
1629376359286,41250,262577,244321
1629376359296,41229,262613,244344
1629376359306,41205,262562,244338
1629376359316,41181,262541,244306
1629376359326,41154,262514,244281
1629376359336,41131,262517,244322
1629376359346,41111,262486,244317
1629376359356,41085,262516,244274
1629376359366,41052,262472,244289
1629376359376,41038,262487,244292
1629376359386,41018,262478,244295
1629376359396,40985,262408,244253
1629376359406,40943,262406,244284
1629376359416,40943,262405,244275
1629376359426,40912,262369,244235
1629376359436,40911,262391,244273
1629376359446,40883,262351,244262
1629376359456,40873,262351,244271
1629376359466,40863,262364,244254
1629376359476,40855,262367,244264
1629376359486,40844,262385,244234
1629376359496,40825,262348,244245
1629376359506,40813,262327,244280
1629376359516,40800,262325,244243
1629376359526,40790,262338,244258
1629376359536,40778,262334,244251
1629376359546,40767,262351,244243
1629376359556,40759,262378,244223
1629376359566,40745,262291,244207
1629376359576,40738,262301,244224
1629376359586,40714,262286,244240
1629376359596,40725,262334,244227
1629376359606,40725,262347,244213
1629376359616,40719,262287,244228
1629376359626,40714,262273,244230
1629376359636,40712,262296,244219
1629376359646,40711,262309,244230
1629376359656,40703,262306,244250
1629376359666,40702,262323,244215
1629376359676,40704,262323,244226
1629376359686,40706,262339,244210
1629376359696,40713,262280,244224
1629376359706,40716,262322,244258
1629376359716,40721,262309,244256
1629376359726,40714,262335,244251
1629376359736,40732,262300,244275
1629376359746,40728,262276,244253
1629376359756,40721,262352,244235
1629376359766,40753,262351,244235
1629376359776,40756,262329,244240
1629376359786,40766,262354,244235
1629376359796,40770,262351,244238
1629376359806,40776,262359,244243
1629376359816,40787,262380,244264
1629376359826,40796,262375,244229
1629376359836,40808,262342,244266
1629376359846,40818,262343,244286
1629376359856,40817,262371,244240
1629376359866,40831,262392,244245
1629376359876,40846,262390,244285
1629376359886,40850,262378,244260
1629376359896,40870,262401,244263
1629376359906,40879,262414,244275
1629376359916,40889,262433,244271
1629376359926,40890,262423,244286
1629376359936,40918,262443,244284
1629376359946,40932,262460,244284
1629376359956,40934,262415,244274
1629376359966,40947,262476,244314
1629376359976,40956,262478,244274
1629376359986,40969,262515,244320
1629376359996,40982,262461,244297
1629376360006,41003,262501,244285
1629376360016,41015,262513,244314
1629376360026,41033,262565,244326
1629376360036,41035,262557,244340
1629376360046,41060,262520,244315
1629376360056,41066,262595,244323
1629376360066,41078,262566,244350
1629376360076,41103,262594,244317
1629376360086,41111,262578,244386
1629376360096,41139,262641,244354
1629376360106,41155,262599,244384
1629376360116,41173,262640,244367
1629376360126,41186,262637,244365
1629376360136,41200,262636,244388
1629376360146,41219,262633,244368
1629376360156,41236,262666,244376
1629376360166,41240,262643,244362
1629376360176,41242,262660,244368
1629376360186,41231,262630,244331
1629376360196,41231,262586,244349
1629376360206,41211,262572,244311
1629376360216,41189,262562,244350
1629376360226,41167,262503,244318
1629376360236,41128,262518,244295
1629376360246,41114,262474,244292
1629376360256,41097,262436,244326
1629376360266,41067,262445,244331
1629376360276,41046,262427,244296
1629376360286,41028,262413,244316
1629376360296,41001,262407,244292
1629376360306,40981,262386,244300
1629376360316,40953,262362,244285
1629376360326,40933,262339,244292
1629376360336,40909,262317,244298
1629376360346,40883,262318,244305
1629376360356,40854,262297,244278
1629376360366,40834,262306,244253
1629376360376,40804,262225,244245
1629376360386,40790,262228,244265
1629376360396,40753,262198,244265
1629376360406,40748,262214,244244
1629376360416,40724,262221,244235
1629376360426,40707,262175,244211
1629376360436,40696,262160,244243
1629376360446,40683,262133,244209
1629376360456,40668,262186,244194
1629376360466,40657,262176,244245
1629376360476,40651,262139,244220
1629376360486,40632,262132,244211
1629376360496,40625,262089,244202
1629376360506,40616,262133,244230
1629376360516,40605,262107,244195
1629376360526,40591,262123,244213
1629376360536,40579,262138,244202
1629376360546,40583,262078,244194
1629376360556,40570,262109,244212
1629376360566,40563,262115,244170
1629376360576,40555,262131,244192
1629376360586,40547,262080,244208
1629376360596,40543,262108,244199
1629376360606,40540,262077,244190
1629376360616,40544,262090,244174
1629376360626,40535,262065,244173
1629376360636,40531,262080,244179
1629376360646,40530,262087,244185
1629376360656,40532,262092,244166
1629376360666,40529,262109,244205
1629376360676,40537,262093,244209
1629376360686,40532,262082,244203
1629376360696,40551,262067,244198
1629376360706,40530,262120,244190
1629376360716,40561,262127,244213
1629376360726,40550,262116,244192
1629376360736,40560,262112,244217
1629376360746,40576,262146,244204
1629376360756,40570,262124,244193
1629376360766,40580,262109,244209
1629376360776,40589,262160,244195
1629376360786,40597,262154,244231
1629376360796,40607,262132,244241
1629376360806,40619,262193,244223
1629376360816,40625,262191,244216
1629376360826,40630,262200,244242
1629376360836,40638,262215,244238
1629376360846,40653,262196,244264
1629376360856,40669,262243,244266
1629376360866,40667,262211,244261
1629376360876,40673,262235,244244
1629376360886,40692,262242,244253
1629376360896,40701,262254,244263
1629376360906,40715,262265,244273
1629376360916,40724,262251,244255
1629376360926,40730,262244,244263
1629376360936,40740,262293,244273
1629376360946,40754,262269,244292
1629376360956,40757,262281,244280
1629376360966,40768,262293,244290
1629376360976,40779,262285,244274
1629376360986,40794,262297,244307
1629376360996,40804,262318,244304
1629376361006,40822,262336,244319
1629376361016,40815,262338,244305
1629376361026,40828,262316,244327
1629376361036,40849,262308,244325
1629376361046,40863,262334,244326
1629376361056,40870,262378,244315
1629376361066,40895,262399,244321
1629376361076,40902,262373,244319
1629376361086,40917,262421,244364
1629376361096,40926,262423,244355
1629376361106,40942,262430,244350
1629376361116,40948,262417,244346
1629376361126,40964,262409,244377
1629376361136,40959,262425,244354
1629376361146,40958,262391,244352
1629376361156,40948,262388,244327
1629376361166,40929,262363,244327
1629376361176,40906,262331,244301
1629376361186,40879,262310,244353
1629376361196,40862,262296,244321
1629376361206,40819,262220,244290
1629376361216,40806,262232,244289
1629376361226,40766,262206,244304
1629376361236,40750,262182,244302
1629376361246,40726,262215,244304
1629376361256,40700,262153,244284
1629376361266,40676,262139,244279
1629376361276,40646,262132,244278
1629376361286,40623,262105,244283
1629376361296,40602,262082,244288
1629376361306,40579,262080,244266
1629376361316,40557,262100,244273
1629376361326,40530,262013,244271
1629376361336,40507,262033,244279
1629376361346,40482,262027,244259
1629376361356,40461,262003,244246
1629376361366,40444,262003,244237
1629376361376,40411,261993,244255
1629376361386,40413,261995,244239
1629376361396,40389,261975,244255
1629376361406,40383,261968,244222
1629376361416,40371,262006,244270
1629376361426,40361,261975,244221
1629376361436,40350,261967,244244
1629376361446,40337,261946,244222
1629376361456,40328,261949,244216
1629376361466,40321,261964,244199
1629376361476,40310,261940,244212
1629376361486,40296,261941,244225
1629376361496,40283,261902,244215
1629376361506,40288,261925,244207
1629376361516,40265,261925,244237
1629376361526,40264,261924,244227
1629376361536,40251,261937,244207
1629376361546,40256,261920,244214
1629376361556,40249,261944,244215
1629376361566,40241,261929,244216
1629376361576,40244,261951,244226
1629376361586,40246,261896,244220
1629376361596,40247,261885,244249
1629376361606,40246,261902,244208
1629376361616,40250,261944,244215
1629376361626,40249,261902,244226
1629376361636,40256,261948,244246
1629376361646,40260,261949,244228
1629376361656,40264,261963,244228
1629376361666,40263,261946,244230
1629376361676,40267,261951,244256
1629376361686,40274,261952,244237
1629376361696,40282,261958,244242
1629376361706,40289,261939,244204
1629376361716,40303,261961,244236
1629376361726,40308,261974,244235
1629376361736,40312,262009,244232
1629376361746,40320,261947,244243
1629376361756,40325,261978,244237
1629376361766,40330,262004,244243
1629376361776,40339,262015,244263
1629376361786,40349,261980,244243
1629376361796,40355,262031,244257
1629376361806,40359,261992,244242
1629376361816,40369,261973,244244
1629376361826,40385,262012,244252
1629376361836,40394,261980,244267
1629376361846,40412,262061,244255
1629376361856,40409,262012,244244
1629376361866,40427,262034,244249
1629376361876,40427,262022,244241
1629376361886,40435,262034,244274
1629376361896,40450,262048,244275
1629376361906,40463,262029,244271
1629376361916,40468,262076,244265
1629376361926,40477,262124,244278
1629376361936,40494,262089,244327
1629376361946,40500,262106,244268
1629376361956,40513,262103,244273
1629376361966,40526,262108,244312
1629376361976,40537,262100,244303
1629376361986,40554,262105,244287
1629376361996,40558,262150,244289
1629376362006,40585,262136,244310
1629376362016,40592,262148,244300
1629376362026,40627,262152,244298
1629376362036,40618,262216,244310
1629376362046,40646,262194,244296
1629376362056,40661,262188,244310
1629376362066,40683,262209,244341
1629376362076,40689,262217,244299
1629376362086,40701,262218,244336
1629376362096,40698,262195,244310
1629376362106,40693,262187,244327
1629376362116,40689,262195,244347
1629376362126,40661,262137,244315
1629376362136,40636,262061,244307
1629376362146,40615,262093,244299
1629376362156,40598,262072,244318
1629376362166,40553,262062,244277
1629376362176,40524,262008,244295
1629376362186,40501,262032,244273
1629376362196,40471,261929,244277
1629376362206,40456,261933,244276
1629376362216,40429,261951,244299
1629376362226,40397,261921,244252
1629376362236,40375,261921,244279
1629376362246,40348,261873,244270
1629376362256,40316,261904,244267
1629376362266,40296,261858,244243
1629376362276,40266,261878,244227
1629376362286,40237,261803,244256
1629376362296,40210,261806,244236
1629376362306,40182,261747,244210
1629376362316,40157,261790,244207
1629376362326,40140,261719,244211
1629376362336,40100,261743,244201
1629376362346,40084,261731,244219
1629376362356,40068,261756,244216
1629376362366,40079,261754,244202
1629376362376,40054,261741,244192
1629376362386,40040,261715,244169
1629376362396,40026,261707,244199
1629376362406,40012,261701,244219
1629376362416,40003,261691,244216
1629376362426,39990,261651,244163
1629376362436,39973,261686,244200
1629376362446,39961,261685,244181
1629376362456,39950,261699,244224
1629376362466,39949,261682,244188
1629376362476,39919,261682,244202
1629376362486,39930,261671,244187
1629376362496,39925,261639,244184
1629376362506,39922,261652,244200
1629376362516,39907,261664,244193
1629376362526,39903,261621,244191
1629376362536,39908,261651,244194
1629376362546,39905,261649,244206
1629376362556,39901,261634,244174
1629376362566,39899,261648,244161
1629376362576,39896,261631,244171
1629376362586,39905,261666,244183
1629376362596,39906,261641,244213
1629376362606,39906,261623,244200
1629376362616,39909,261649,244181
1629376362626,39921,261673,244193
1629376362636,39936,261711,244185
1629376362646,39932,261694,244202
1629376362656,39925,261683,244192
1629376362666,39933,261660,244199
1629376362676,39936,261722,244196
1629376362686,39956,261678,244190
1629376362696,39956,261714,244188
1629376362706,39969,261711,244228
1629376362716,39984,261718,244209
1629376362726,39987,261728,244211
1629376362736,39999,261727,244201
1629376362746,40015,261737,244210
1629376362756,40015,261707,244242
1629376362766,40040,261739,244238
1629376362776,40049,261779,244236
1629376362786,40064,261805,244246
1629376362796,40074,261800,244230
1629376362806,40092,261802,244204
1629376362816,40105,261773,244249
1629376362826,40118,261806,244239
1629376362836,40135,261826,244270
1629376362846,40144,261836,244235
1629376362856,40157,261832,244250
1629376362866,40162,261838,244262
1629376362876,40185,261851,244273
1629376362886,40199,261865,244286
1629376362896,40215,261826,244276
1629376362906,40225,261871,244281
1629376362916,40242,261882,244293
1629376362926,40257,261890,244285
1629376362936,40276,261911,244279
1629376362946,40284,261914,244306
1629376362956,40301,261938,244285
1629376362966,40320,261926,244322
1629376362976,40345,261956,244301
1629376362986,40348,261982,244337
1629376362996,40360,261967,244320
1629376363006,40384,261967,244314
1629376363016,40398,261982,244329
1629376363026,40418,262007,244338
1629376363036,40431,262038,244320
1629376363046,40452,262038,244333
1629376363056,40467,262024,244337
1629376363066,40482,262047,244346
1629376363076,40499,262047,244355
1629376363086,40525,262051,244378
1629376363096,40536,262100,244361
1629376363106,40534,262083,244375
1629376363116,40539,262083,244367
1629376363126,40520,262042,244371
1629376363136,40538,261977,244345
1629376363146,40505,261986,244354
1629376363156,40492,261965,244351
1629376363166,40465,261942,244328
1629376363176,40442,261962,244323
1629376363186,40404,261906,244327
1629376363196,40390,261903,244360
1629376363206,40359,261867,244317
1629376363216,40338,261852,244273
1629376363226,40316,261853,244319
1629376363236,40281,261798,244293
1629376363246,40261,261772,244304
1629376363256,40233,261828,244286
1629376363266,40207,261809,244301
1629376363276,40191,261746,244281
1629376363286,40168,261732,244281
1629376363296,40131,261704,244253
1629376363306,40103,261716,244289
1629376363316,40090,261673,244285
1629376363326,40071,261625,244268
1629376363336,40036,261663,244289
1629376363346,40019,261661,244265
1629376363356,40002,261646,244270
1629376363366,39984,261609,244257
1629376363376,39976,261646,244287
1629376363386,39958,261623,244258
1629376363396,39948,261642,244243
1629376363406,39941,261639,244237
1629376363416,39932,261591,244230
1629376363426,39918,261674,244240
1629376363436,39912,261610,244272
1629376363446,39893,261595,244249
1629376363456,39915,261621,244261
1629376363466,39889,261592,244235
1629376363476,39875,261594,244226
1629376363486,39869,261591,244236
1629376363496,39865,261547,244243
1629376363506,39860,261581,244246
1629376363516,39859,261571,244242
1629376363526,39849,261583,244250
1629376363536,39845,261589,244237
1629376363546,39848,261554,244240
1629376363556,39849,261591,244226
1629376363566,39849,261583,244249
1629376363576,39854,261604,244234
1629376363586,39855,261567,244233
1629376363596,39852,261585,244253
1629376363606,39854,261589,244257
1629376363616,39855,261593,244251
1629376363626,39857,261578,244242
1629376363636,39865,261609,244250
1629376363646,39875,261603,244235
1629376363656,39890,261584,244227
1629376363666,39885,261624,244270
1629376363676,39891,261581,244256
1629376363686,39901,261623,244249
1629376363696,39900,261630,244258
1629376363706,39912,261616,244266
1629376363716,39922,261664,244226
1629376363726,39936,261648,244269
1629376363736,39943,261634,244265
1629376363746,39950,261680,244258
1629376363756,39964,261630,244242
1629376363766,39976,261685,244283
1629376363776,39968,261702,244255
1629376363786,39989,261699,244277
1629376363796,40015,261678,244260
1629376363806,40023,261690,244275
1629376363816,40040,261730,244306
1629376363826,40049,261741,244286
1629376363836,40065,261748,244293
1629376363846,40085,261696,244344
1629376363856,40092,261786,244317
1629376363866,40112,261768,244284
1629376363876,40132,261832,244309
1629376363886,40146,261800,244348
1629376363896,40162,261807,244353
1629376363906,40179,261846,244345
1629376363916,40191,261846,244322
1629376363926,40214,261841,244330
1629376363936,40234,261846,244328
1629376363946,40250,261867,244356
1629376363956,40265,261871,244348
1629376363966,40274,261893,244361
1629376363976,40299,261876,244371
1629376363986,40311,261896,244390
1629376363996,40323,261920,244384
1629376364006,40345,261908,244399
1629376364016,40357,261921,244372
1629376364026,40382,261938,244387
1629376364036,40400,261954,244388
1629376364046,40416,261969,244380
1629376364056,40436,261955,244386
1629376364066,40460,261999,244404
1629376364076,40471,261986,244404
1629376364086,40491,262008,244406
1629376364096,40509,262056,244433
1629376364106,40528,262027,244422
1629376364116,40548,262075,244406
1629376364126,40559,261999,244454
1629376364136,40550,262038,244422
1629376364146,40543,262045,244419
1629376364156,40532,261975,244434
1629376364166,40514,261961,244421
1629376364176,40497,261931,244417
1629376364186,40470,261913,244427
1629376364196,40452,261899,244417
1629376364206,40429,261846,244395
1629376364216,40406,261838,244387
1629376364226,40383,261839,244384
1629376364236,40365,261826,244378
1629376364246,40344,261825,244414
1629376364256,40320,261800,244397
1629376364266,40293,261806,244373
1629376364276,40292,261806,244380
1629376364286,40268,261780,244409
1629376364296,40224,261729,244395
1629376364306,40218,261739,244412
1629376364316,40197,261699,244373
1629376364326,40180,261683,244369
1629376364336,40147,261704,244351
1629376364346,40135,261719,244361
1629376364356,40117,261666,244383
1629376364366,40105,261635,244378
1629376364376,40092,261674,244333
1629376364386,40084,261684,244339
1629376364396,40084,261692,244347
1629376364406,40077,261656,244333
1629376364416,40079,261648,244349
1629376364426,40072,261661,244324
1629376364436,40081,261663,244327
1629376364446,40079,261655,244347
1629376364456,40071,261685,244351
1629376364466,40064,261686,244364
1629376364476,40074,261687,244356
1629376364486,40074,261700,244359
1629376364496,40079,261710,244385
1629376364506,40082,261766,244334
1629376364516,40092,261677,244368
1629376364526,40099,261737,244366
1629376364536,40104,261742,244355
1629376364546,40110,261711,244391
1629376364556,40114,261766,244387
1629376364566,40129,261695,244387
1629376364576,40127,261725,244369
1629376364586,40132,261744,244373
1629376364596,40139,261771,244401
1629376364606,40160,261739,244411
1629376364616,40153,261742,244381
1629376364626,40170,261741,244394
1629376364636,40165,261752,244402
1629376364646,40183,261763,244427
1629376364656,40191,261777,244374
1629376364666,40198,261744,244429
1629376364676,40210,261755,244392
1629376364686,40220,261788,244410
1629376364696,40234,261791,244387
1629376364706,40240,261809,244402
1629376364716,40251,261800,244434
1629376364726,40261,261799,244418
1629376364736,40281,261829,244426
1629376364746,40296,261829,244409
1629376364756,40305,261841,244447
1629376364766,40322,261886,244429
1629376364776,40336,261876,244425
1629376364786,40345,261900,244447
1629376364796,40356,261869,244460
1629376364806,40377,261927,244441
1629376364816,40393,261937,244438
1629376364826,40408,261880,244507
1629376364836,40419,261928,244483
1629376364846,40430,261921,244479
1629376364856,40443,261931,244465
1629376364866,40465,261968,244486
1629376364876,40473,261961,244457
1629376364886,40490,261956,244473
1629376364896,40510,261947,244494
1629376364906,40520,261977,244481
1629376364916,40543,261986,244490
1629376364926,40550,261996,244504
1629376364936,40561,261979,244500
1629376364946,40571,262038,244485
1629376364956,40587,262026,244503
1629376364966,40609,262016,244522
1629376364976,40622,262079,244492
1629376364986,40644,262056,244540
1629376364996,40659,262077,244541
1629376365006,40682,262092,244493
1629376365016,40697,262043,244543
1629376365026,40707,262118,244537
1629376365036,40734,262122,244557
1629376365046,40755,262157,244561
1629376365056,40769,262170,244546
1629376365066,40786,262178,244562
1629376365076,40804,262170,244583
1629376365086,40808,262176,244564
1629376365096,40831,262176,244561
1629376365106,40822,262172,244539
1629376365116,40815,262125,244532
1629376365126,40817,262093,244573
1629376365136,40787,262123,244527
1629376365146,40774,262098,244561
1629376365156,40757,262036,244542
1629376365166,40732,262004,244546
1629376365176,40709,262024,244534
1629376365186,40687,262032,244529
1629376365196,40674,261989,244530
1629376365206,40652,261973,244503
1629376365216,40631,261929,244514
1629376365226,40608,261965,244524
1629376365236,40605,261901,244476
1629376365246,40565,261897,244518
1629376365256,40545,261881,244521
1629376365266,40523,261872,244505
1629376365276,40508,261864,244510
