timestamp,ecg_waveform
1630588169003,2050
1630588169007,2050
1630588169011,2051
1630588169015,2053
1630588169019,2055
1630588169023,2057
1630588169027,2058
1630588169031,2058
1630588169035,2058
1630588169039,2057
1630588169043,2056
1630588169047,2056
1630588169051,2056
1630588169055,2058
1630588169059,2059
1630588169063,2062
1630588169067,2064
1630588169071,2067
1630588169075,2068
1630588169079,2068
1630588169083,2066
1630588169087,2064
1630588169091,2062
1630588169095,2061
1630588169099,2061
1630588169103,2061
1630588169107,2060
1630588169111,2059
1630588169115,2058
1630588169119,2058
1630588169123,2059
1630588169127,2061
1630588169131,2061
1630588169135,2061
1630588169139,2060
1630588169143,2059
1630588169147,2058
1630588169151,2058
1630588169155,2057
1630588169159,2057
1630588169163,2057
1630588169167,2057
1630588169171,2058
1630588169175,2058
1630588169179,2058
1630588169183,2058
1630588169187,2059
1630588169191,2062
1630588169195,2070
1630588169199,2085
1630588169203,2106
1630588169207,2127
1630588169211,2142
1630588169215,2144
1630588169219,2128
1630588169223,2099
1630588169227,2067
1630588169231,2041
1630588169235,2026
1630588169239,2021
1630588169243,2024
1630588169247,2029
1630588169251,2034
1630588169255,2039
1630588169259,2045
1630588169263,2049
1630588169267,2054
1630588169271,2058
1630588169275,2061
1630588169279,2064
1630588169283,2067
1630588169287,2069
1630588169291,2071
1630588169295,2070
1630588169299,2069
1630588169303,2068
1630588169307,2068
1630588169311,2070
1630588169315,2073
1630588169319,2076
1630588169323,2078
1630588169327,2078
1630588169331,2078
1630588169335,2078
1630588169339,2079
1630588169343,2079
1630588169347,2080
1630588169351,2081
1630588169355,2081
1630588169359,2081
1630588169363,2080
1630588169367,2079
1630588169371,2078
1630588169375,2079
1630588169379,2080
1630588169383,2080
1630588169387,2081
1630588169391,2082
1630588169395,2082
1630588169399,2083
1630588169403,2084
1630588169407,2084
1630588169411,2084
1630588169415,2085
1630588169419,2085
1630588169423,2086
1630588169427,2087
1630588169431,2088
1630588169435,2088
1630588169439,2087
1630588169443,2087
1630588169447,2088
1630588169451,2088
1630588169455,2088
1630588169459,2088
1630588169463,2087
1630588169467,2086
1630588169471,2087
1630588169475,2087
1630588169479,2087
1630588169483,2086
1630588169487,2085
1630588169491,2082
1630588169495,2080
1630588169499,2079
1630588169503,2079
1630588169507,2077
1630588169511,2075
1630588169515,2073
1630588169519,2071
1630588169523,2070
1630588169527,2069
1630588169531,2069
1630588169535,2067
1630588169539,2065
1630588169543,2062
1630588169547,2061
1630588169551,2061
1630588169555,2062
1630588169559,2063
1630588169563,2062
1630588169567,2059
1630588169571,2055
1630588169575,2052
1630588169579,2052
1630588169583,2054
1630588169587,2057
1630588169591,2060
1630588169595,2060
1630588169599,2057
1630588169603,2052
1630588169607,2048
1630588169611,2047
1630588169615,2050
1630588169619,2056
1630588169623,2062
1630588169627,2066
1630588169631,2066
1630588169635,2065
1630588169639,2064
1630588169643,2063
1630588169647,2062
1630588169651,2061
1630588169655,2059
1630588169659,2055
1630588169663,2052
1630588169667,2051
1630588169671,2052
1630588169675,2053
1630588169679,2052
1630588169683,2051
1630588169687,2049
1630588169691,2048
1630588169695,2050
1630588169699,2054
1630588169703,2058
1630588169707,2060
1630588169711,2059
1630588169715,2056
1630588169719,2052
1630588169723,2051
1630588169727,2053
1630588169731,2057
1630588169735,2060
1630588169739,2061
1630588169743,2059
1630588169747,2054
1630588169751,2050
1630588169755,2049
1630588169759,2052
1630588169763,2056
1630588169767,2060
1630588169771,2062
1630588169775,2063
1630588169779,2062
1630588169783,2062
1630588169787,2062
1630588169791,2061
1630588169795,2060
1630588169799,2057
1630588169803,2053
1630588169807,2052
1630588169811,2052
1630588169815,2053
1630588169819,2053
1630588169823,2053
1630588169827,2052
1630588169831,2050
1630588169835,2050
1630588169839,2051
1630588169843,2051
1630588169847,2051
1630588169851,2050
1630588169855,2050
1630588169859,2049
1630588169863,2049
1630588169867,2048
1630588169871,2047
1630588169875,2045
1630588169879,2042
1630588169883,2039
1630588169887,2038
1630588169891,2039
1630588169895,2042
1630588169899,2047
1630588169903,2052
1630588169907,2060
1630588169911,2073
1630588169915,2092
1630588169919,2116
1630588169923,2139
1630588169927,2149
1630588169931,2140
1630588169935,2111
1630588169939,2070
1630588169943,2033
1630588169947,2006
1630588169951,1994
1630588169955,1993
1630588169959,1999
1630588169963,2005
1630588169967,2011
1630588169971,2017
1630588169975,2023
1630588169979,2030
1630588169983,2036
1630588169987,2040
1630588169991,2043
1630588169995,2045
1630588169999,2045
1630588170003,2046
1630588170007,2048
1630588170011,2049
1630588170015,2053
1630588170019,2056
1630588170023,2058
1630588170027,2058
1630588170031,2057
1630588170035,2055
1630588170039,2054
1630588170043,2053
1630588170047,2052
1630588170051,2052
1630588170055,2052
1630588170059,2052
1630588170063,2053
1630588170067,2054
1630588170071,2054
1630588170075,2054
1630588170079,2054
1630588170083,2054
1630588170087,2055
1630588170091,2056
1630588170095,2058
1630588170099,2060
1630588170103,2061
1630588170107,2061
1630588170111,2062
1630588170115,2062
1630588170119,2062
1630588170123,2063
1630588170127,2064
1630588170131,2064
1630588170135,2064
1630588170139,2064
1630588170143,2065
1630588170147,2066
1630588170151,2068
1630588170155,2068
1630588170159,2068
1630588170163,2069
1630588170167,2069
1630588170171,2069
1630588170175,2069
1630588170179,2068
1630588170183,2067
1630588170187,2066
1630588170191,2065
1630588170195,2064
1630588170199,2064
1630588170203,2063
1630588170207,2064
1630588170211,2063
1630588170215,2063
1630588170219,2062
1630588170223,2061
1630588170227,2059
1630588170231,2057
1630588170235,2056
1630588170239,2055
1630588170243,2055
1630588170247,2054
1630588170251,2053
1630588170255,2053
1630588170259,2052
1630588170263,2052
1630588170267,2052
1630588170271,2051
1630588170275,2051
1630588170279,2049
1630588170283,2049
1630588170287,2048
1630588170291,2048
1630588170295,2049
1630588170299,2049
1630588170303,2050
1630588170307,2049
1630588170311,2048
1630588170315,2047
1630588170319,2046
1630588170323,2046
1630588170327,2046
1630588170331,2047
1630588170335,2047
1630588170339,2047
1630588170343,2047
1630588170347,2047
1630588170351,2048
1630588170355,2049
1630588170359,2051
1630588170363,2052
1630588170367,2052
1630588170371,2052
1630588170375,2052
1630588170379,2051
1630588170383,2050
1630588170387,2050
1630588170391,2049
1630588170395,2049
1630588170399,2049
1630588170403,2050
1630588170407,2050
1630588170411,2049
1630588170415,2048
1630588170419,2047
1630588170423,2045
1630588170427,2044
1630588170431,2044
1630588170435,2044
1630588170439,2044
1630588170443,2045
1630588170447,2046
1630588170451,2047
1630588170455,2048
1630588170459,2048
1630588170463,2049
1630588170467,2049
1630588170471,2050
1630588170475,2052
1630588170479,2053
1630588170483,2055
1630588170487,2056
1630588170491,2057
1630588170495,2057
1630588170499,2056
1630588170503,2054
1630588170507,2054
1630588170511,2053
1630588170515,2053
1630588170519,2052
1630588170523,2051
1630588170527,2050
1630588170531,2048
1630588170535,2048
1630588170539,2048
1630588170543,2048
1630588170547,2048
1630588170551,2048
1630588170555,2048
1630588170559,2048
1630588170563,2048
1630588170567,2048
1630588170571,2048
1630588170575,2048
1630588170579,2049
1630588170583,2048
1630588170587,2048
1630588170591,2047
1630588170595,2046
1630588170599,2046
1630588170603,2047
1630588170607,2051
1630588170611,2059
1630588170615,2074
1630588170619,2096
1630588170623,2120
1630588170627,2138
1630588170631,2141
1630588170635,2127
1630588170639,2096
1630588170643,2060
1630588170647,2030
1630588170651,2010
1630588170655,2003
1630588170659,2005
1630588170663,2012
1630588170667,2018
1630588170671,2024
1630588170675,2029
1630588170679,2034
1630588170683,2037
1630588170687,2040
1630588170691,2042
1630588170695,2044
1630588170699,2046
1630588170703,2047
1630588170707,2048
1630588170711,2049
1630588170715,2049
1630588170719,2050
1630588170723,2050
1630588170727,2051
1630588170731,2051
1630588170735,2052
1630588170739,2053
1630588170743,2054
1630588170747,2054
1630588170751,2054
1630588170755,2054
1630588170759,2054
1630588170763,2054
1630588170767,2054
1630588170771,2054
1630588170775,2055
1630588170779,2056
1630588170783,2057
1630588170787,2057
1630588170791,2058
1630588170795,2058
1630588170799,2058
1630588170803,2058
1630588170807,2058
1630588170811,2058
1630588170815,2059
1630588170819,2062
1630588170823,2064
1630588170827,2066
1630588170831,2068
1630588170835,2069
1630588170839,2069
1630588170843,2069
1630588170847,2069
1630588170851,2070
1630588170855,2072
1630588170859,2072
1630588170863,2072
1630588170867,2072
1630588170871,2071
1630588170875,2071
1630588170879,2072
1630588170883,2073
1630588170887,2074
1630588170891,2075
1630588170895,2075
1630588170899,2074
1630588170903,2074
1630588170907,2072
1630588170911,2070
1630588170915,2067
1630588170919,2065
1630588170923,2064
1630588170927,2063
1630588170931,2062
1630588170935,2062
1630588170939,2060
1630588170943,2059
1630588170947,2057
1630588170951,2056
1630588170955,2054
1630588170959,2053
1630588170963,2052
1630588170967,2052
1630588170971,2052
1630588170975,2052
1630588170979,2052
1630588170983,2052
1630588170987,2051
1630588170991,2051
1630588170995,2051
1630588170999,2051
1630588171003,2052
1630588171007,2052
1630588171011,2052
1630588171015,2052
1630588171019,2051
1630588171023,2051
1630588171027,2051
1630588171031,2051
1630588171035,2052
1630588171039,2052
1630588171043,2052
1630588171047,2052
1630588171051,2051
1630588171055,2050
1630588171059,2049
1630588171063,2049
1630588171067,2050
1630588171071,2050
1630588171075,2050
1630588171079,2050
1630588171083,2049
1630588171087,2048
1630588171091,2048
1630588171095,2048
1630588171099,2050
1630588171103,2051
1630588171107,2052
1630588171111,2051
1630588171115,2050
1630588171119,2049
1630588171123,2048
1630588171127,2048
1630588171131,2048
1630588171135,2048
1630588171139,2049
1630588171143,2049
1630588171147,2049
1630588171151,2048
1630588171155,2048
1630588171159,2047
1630588171163,2047
1630588171167,2048
1630588171171,2048
1630588171175,2049
1630588171179,2051
1630588171183,2053
1630588171187,2053
1630588171191,2052
1630588171195,2051
1630588171199,2048
1630588171203,2048
1630588171207,2047
1630588171211,2047
1630588171215,2047
1630588171219,2046
1630588171223,2045
1630588171227,2045
1630588171231,2044
1630588171235,2043
1630588171239,2042
1630588171243,2042
1630588171247,2041
1630588171251,2041
1630588171255,2041
1630588171259,2041
1630588171263,2041
1630588171267,2041
1630588171271,2041
1630588171275,2041
1630588171279,2041
1630588171283,2041
1630588171287,2039
1630588171291,2039
1630588171295,2039
1630588171299,2039
1630588171303,2041
1630588171307,2043
1630588171311,2049
1630588171315,2062
1630588171319,2082
1630588171323,2106
1630588171327,2128
1630588171331,2137
1630588171335,2126
1630588171339,2097
1630588171343,2059
1630588171347,2024
1630588171351,2001
1630588171355,1990
1630588171359,1991
1630588171363,1996
1630588171367,2003
1630588171371,2010
1630588171375,2017
1630588171379,2024
1630588171383,2030
1630588171387,2033
1630588171391,2035
1630588171395,2036
1630588171399,2037
1630588171403,2039
1630588171407,2041
1630588171411,2042
1630588171415,2043
1630588171419,2043
1630588171423,2043
1630588171427,2043
1630588171431,2044
1630588171435,2045
1630588171439,2046
1630588171443,2047
1630588171447,2046
1630588171451,2046
1630588171455,2046
1630588171459,2046
1630588171463,2047
1630588171467,2048
1630588171471,2048
1630588171475,2049
1630588171479,2049
1630588171483,2049
1630588171487,2049
1630588171491,2050
1630588171495,2051
1630588171499,2052
1630588171503,2053
1630588171507,2054
1630588171511,2054
1630588171515,2054
1630588171519,2055
1630588171523,2056
1630588171527,2057
1630588171531,2058
1630588171535,2059
1630588171539,2060
1630588171543,2061
1630588171547,2061
1630588171551,2061
1630588171555,2061
1630588171559,2060
1630588171563,2060
1630588171567,2061
1630588171571,2061
1630588171575,2062
1630588171579,2062
1630588171583,2062
1630588171587,2062
1630588171591,2061
1630588171595,2061
1630588171599,2061
1630588171603,2062
1630588171607,2062
1630588171611,2061
1630588171615,2060
1630588171619,2059
1630588171623,2057
1630588171627,2056
1630588171631,2055
1630588171635,2055
1630588171639,2054
1630588171643,2054
1630588171647,2053
1630588171651,2052
1630588171655,2052
1630588171659,2050
1630588171663,2049
1630588171667,2048
1630588171671,2047
1630588171675,2047
1630588171679,2047
1630588171683,2047
1630588171687,2047
1630588171691,2046
1630588171695,2046
1630588171699,2047
1630588171703,2048
1630588171707,2049
1630588171711,2050
1630588171715,2050
1630588171719,2050
1630588171723,2049
1630588171727,2049
1630588171731,2049
1630588171735,2050
1630588171739,2050
1630588171743,2050
1630588171747,2050
1630588171751,2050
1630588171755,2049
1630588171759,2049
1630588171763,2048
1630588171767,2048
1630588171771,2048
1630588171775,2049
1630588171779,2049
1630588171783,2050
1630588171787,2052
1630588171791,2052
1630588171795,2052
1630588171799,2051
1630588171803,2050
1630588171807,2049
1630588171811,2048
1630588171815,2048
1630588171819,2049
1630588171823,2049
1630588171827,2049
1630588171831,2049
1630588171835,2048
1630588171839,2048
1630588171843,2049
1630588171847,2049
1630588171851,2050
1630588171855,2051
1630588171859,2052
1630588171863,2052
1630588171867,2053
1630588171871,2053
1630588171875,2053
1630588171879,2053
1630588171883,2054
1630588171887,2055
1630588171891,2056
1630588171895,2057
1630588171899,2057
1630588171903,2057
1630588171907,2056
1630588171911,2054
1630588171915,2053
1630588171919,2051
1630588171923,2049
1630588171927,2048
1630588171931,2048
1630588171935,2049
1630588171939,2050
1630588171943,2050
1630588171947,2050
1630588171951,2050
1630588171955,2049
1630588171959,2048
1630588171963,2048
1630588171967,2048
1630588171971,2048
1630588171975,2048
1630588171979,2048
1630588171983,2048
1630588171987,2048
1630588171991,2047
1630588171995,2047
1630588171999,2046
1630588172003,2045
1630588172007,2046
1630588172011,2048
1630588172015,2056
1630588172019,2071
1630588172023,2093
1630588172027,2119
1630588172031,2139
1630588172035,2144
1630588172039,2130
1630588172043,2099
1630588172047,2061
1630588172051,2030
1630588172055,2009
1630588172059,2002
1630588172063,2004
1630588172067,2010
1630588172071,2017
1630588172075,2022
1630588172079,2027
1630588172083,2032
1630588172087,2036
1630588172091,2039
1630588172095,2042
1630588172099,2045
1630588172103,2048
1630588172107,2048
1630588172111,2049
1630588172115,2049
1630588172119,2049
1630588172123,2050
1630588172127,2050
1630588172131,2051
1630588172135,2051
1630588172139,2051
1630588172143,2051
1630588172147,2052
1630588172151,2052
1630588172155,2053
1630588172159,2053
1630588172163,2053
1630588172167,2054
1630588172171,2054
1630588172175,2055
1630588172179,2055
1630588172183,2055
1630588172187,2056
1630588172191,2056
1630588172195,2056
1630588172199,2056
1630588172203,2056
1630588172207,2056
1630588172211,2057
1630588172215,2059
1630588172219,2061
1630588172223,2063
1630588172227,2063
1630588172231,2063
1630588172235,2063
1630588172239,2063
1630588172243,2064
1630588172247,2065
1630588172251,2065
1630588172255,2066
1630588172259,2066
1630588172263,2066
1630588172267,2065
1630588172271,2066
1630588172275,2066
1630588172279,2066
1630588172283,2067
1630588172287,2067
1630588172291,2066
1630588172295,2065
1630588172299,2064
1630588172303,2064
1630588172307,2063
1630588172311,2063
1630588172315,2062
1630588172319,2060
1630588172323,2059
1630588172327,2057
1630588172331,2057
1630588172335,2056
1630588172339,2056
1630588172343,2055
1630588172347,2054
1630588172351,2053
1630588172355,2052
1630588172359,2051
1630588172363,2050
1630588172367,2049
1630588172371,2049
1630588172375,2048
1630588172379,2048
1630588172383,2048
1630588172387,2048
1630588172391,2048
1630588172395,2048
1630588172399,2047
1630588172403,2047
1630588172407,2048
1630588172411,2048
1630588172415,2048
1630588172419,2048
1630588172423,2048
1630588172427,2048
1630588172431,2048
1630588172435,2048
1630588172439,2049
1630588172443,2049
1630588172447,2049
1630588172451,2049
1630588172455,2048
1630588172459,2048
1630588172463,2049
1630588172467,2049
1630588172471,2049
1630588172475,2049
1630588172479,2049
1630588172483,2048
1630588172487,2048
1630588172491,2048
1630588172495,2048
1630588172499,2049
1630588172503,2050
1630588172507,2050
1630588172511,2049
1630588172515,2048
1630588172519,2048
1630588172523,2048
1630588172527,2048
1630588172531,2048
1630588172535,2048
1630588172539,2048
1630588172543,2048
1630588172547,2048
1630588172551,2048
1630588172555,2048
1630588172559,2048
1630588172563,2048
1630588172567,2048
1630588172571,2049
1630588172575,2050
1630588172579,2051
1630588172583,2052
1630588172587,2052
1630588172591,2051
1630588172595,2050
1630588172599,2050
1630588172603,2051
1630588172607,2053
1630588172611,2054
1630588172615,2056
1630588172619,2056
1630588172623,2055
1630588172627,2054
1630588172631,2052
1630588172635,2050
1630588172639,2048
1630588172643,2048
1630588172647,2047
1630588172651,2046
1630588172655,2046
1630588172659,2047
1630588172663,2047
1630588172667,2047
1630588172671,2046
1630588172675,2046
1630588172679,2045
1630588172683,2045
1630588172687,2045
1630588172691,2045
1630588172695,2045
1630588172699,2045
1630588172703,2045
1630588172707,2044
1630588172711,2044
1630588172715,2044
1630588172719,2044
1630588172723,2044
1630588172727,2047
1630588172731,2052
1630588172735,2064
1630588172739,2083
1630588172743,2106
1630588172747,2127
1630588172751,2137
1630588172755,2128
1630588172759,2103
1630588172763,2068
1630588172767,2035
1630588172771,2011
1630588172775,1999
1630588172779,1999
1630588172783,2004
1630588172787,2011
1630588172791,2017
1630588172795,2023
1630588172799,2028
1630588172803,2033
1630588172807,2036
1630588172811,2039
1630588172815,2042
1630588172819,2044
1630588172823,2046
1630588172827,2048
1630588172831,2048
1630588172835,2048
1630588172839,2048
1630588172843,2048
1630588172847,2048
1630588172851,2048
1630588172855,2048
1630588172859,2049
1630588172863,2049
1630588172867,2049
1630588172871,2049
1630588172875,2049
1630588172879,2049
1630588172883,2050
1630588172887,2051
1630588172891,2052
1630588172895,2053
1630588172899,2054
1630588172903,2054
1630588172907,2055
1630588172911,2055
1630588172915,2056
1630588172919,2055
1630588172923,2055
1630588172927,2056
1630588172931,2056
1630588172935,2057
1630588172939,2057
1630588172943,2058
1630588172947,2058
1630588172951,2059
1630588172955,2060
1630588172959,2061
1630588172963,2062
1630588172967,2064
1630588172971,2064
1630588172975,2065
1630588172979,2065
1630588172983,2064
1630588172987,2063
1630588172991,2062
1630588172995,2061
1630588172999,2061
1630588173003,2061
1630588173007,2062
1630588173011,2063
1630588173015,2063
1630588173019,2063
1630588173023,2062
1630588173027,2061
1630588173031,2060
1630588173035,2059
1630588173039,2059
1630588173043,2058
1630588173047,2057
1630588173051,2055
1630588173055,2054
1630588173059,2054
1630588173063,2053
1630588173067,2053
1630588173071,2051
1630588173075,2050
1630588173079,2049
1630588173083,2049
1630588173087,2048
1630588173091,2048
1630588173095,2049
1630588173099,2049
1630588173103,2048
1630588173107,2048
1630588173111,2048
1630588173115,2048
1630588173119,2047
1630588173123,2047
1630588173127,2048
1630588173131,2048
1630588173135,2048
1630588173139,2048
1630588173143,2048
1630588173147,2048
1630588173151,2048
1630588173155,2049
1630588173159,2049
1630588173163,2049
1630588173167,2048
1630588173171,2048
1630588173175,2048
1630588173179,2048
1630588173183,2048
1630588173187,2048
1630588173191,2049
1630588173195,2049
1630588173199,2049
1630588173203,2048
1630588173207,2048
1630588173211,2048
1630588173215,2048
1630588173219,2048
1630588173223,2048
1630588173227,2049
1630588173231,2048
1630588173235,2048
1630588173239,2047
1630588173243,2047
1630588173247,2046
1630588173251,2046
1630588173255,2046
1630588173259,2047
1630588173263,2047
1630588173267,2048
1630588173271,2048
1630588173275,2048
1630588173279,2046
1630588173283,2046
1630588173287,2045
1630588173291,2045
1630588173295,2047
1630588173299,2048
1630588173303,2049
1630588173307,2050
1630588173311,2050
1630588173315,2050
1630588173319,2050
1630588173323,2050
1630588173327,2050
1630588173331,2051
1630588173335,2052
1630588173339,2053
1630588173343,2055
1630588173347,2055
1630588173351,2055
1630588173355,2054
1630588173359,2053
1630588173363,2052
1630588173367,2051
1630588173371,2051
1630588173375,2050
1630588173379,2048
1630588173383,2047
1630588173387,2046
1630588173391,2045
1630588173395,2045
1630588173399,2045
1630588173403,2046
1630588173407,2047
1630588173411,2047
1630588173415,2046
1630588173419,2046
1630588173423,2045
1630588173427,2046
1630588173431,2046
1630588173435,2046
1630588173439,2046
1630588173443,2045
1630588173447,2043
1630588173451,2041
1630588173455,2040
1630588173459,2041
1630588173463,2044
1630588173467,2050
1630588173471,2062
1630588173475,2080
1630588173479,2102
1630588173483,2122
1630588173487,2132
1630588173491,2124
1630588173495,2100
1630588173499,2066
1630588173503,2034
1630588173507,2009
1630588173511,1998
1630588173515,1998
1630588173519,2003
1630588173523,2009
1630588173527,2016
1630588173531,2022
1630588173535,2028
1630588173539,2033
1630588173543,2037
1630588173547,2039
1630588173551,2040
1630588173555,2040
1630588173559,2040
1630588173563,2041
1630588173567,2043
1630588173571,2045
1630588173575,2048
1630588173579,2048
1630588173583,2049
1630588173587,2048
1630588173591,2048
1630588173595,2048
1630588173599,2048
1630588173603,2048
1630588173607,2048
1630588173611,2048
1630588173615,2049
1630588173619,2049
1630588173623,2049
1630588173627,2049
1630588173631,2050
1630588173635,2051
1630588173639,2052
1630588173643,2053
1630588173647,2054
1630588173651,2054
1630588173655,2055
1630588173659,2055
1630588173663,2055
1630588173667,2056
1630588173671,2057
1630588173675,2057
1630588173679,2058
1630588173683,2058
1630588173687,2058
1630588173691,2058
1630588173695,2059
1630588173699,2059
1630588173703,2060
1630588173707,2061
1630588173711,2062
1630588173715,2062
1630588173719,2062
1630588173723,2061
1630588173727,2060
1630588173731,2060
1630588173735,2060
1630588173739,2059
1630588173743,2059
1630588173747,2059
1630588173751,2059
1630588173755,2059
1630588173759,2060
1630588173763,2059
1630588173767,2059
1630588173771,2058
1630588173775,2057
1630588173779,2055
1630588173783,2054
1630588173787,2053
1630588173791,2051
1630588173795,2050
1630588173799,2048
1630588173803,2047
1630588173807,2046
1630588173811,2045
1630588173815,2045
1630588173819,2046
1630588173823,2045
1630588173827,2045
1630588173831,2044
1630588173835,2043
1630588173839,2042
1630588173843,2042
1630588173847,2042
1630588173851,2042
1630588173855,2043
1630588173859,2044
1630588173863,2044
1630588173867,2044
1630588173871,2043
1630588173875,2043
1630588173879,2043
1630588173883,2043
1630588173887,2044
1630588173891,2044
1630588173895,2044
1630588173899,2044
1630588173903,2044
1630588173907,2043
1630588173911,2043
1630588173915,2043
1630588173919,2043
1630588173923,2043
1630588173927,2044
1630588173931,2044
1630588173935,2044
1630588173939,2044
1630588173943,2044
1630588173947,2044
1630588173951,2044
1630588173955,2044
1630588173959,2043
1630588173963,2043
1630588173967,2043
1630588173971,2043
1630588173975,2043
1630588173979,2042
1630588173983,2042
1630588173987,2041
1630588173991,2041
1630588173995,2041
1630588173999,2041
1630588174003,2042
1630588174007,2042
1630588174011,2042
1630588174015,2043
1630588174019,2044
1630588174023,2045
1630588174027,2045
1630588174031,2045
1630588174035,2045
1630588174039,2045
1630588174043,2045
1630588174047,2045
1630588174051,2046
1630588174055,2047
1630588174059,2048
1630588174063,2048
1630588174067,2049
1630588174071,2050
1630588174075,2049
1630588174079,2048
1630588174083,2048
1630588174087,2047
1630588174091,2048
1630588174095,2048
1630588174099,2048
1630588174103,2048
1630588174107,2047
1630588174111,2045
1630588174115,2042
1630588174119,2041
1630588174123,2040
1630588174127,2040
1630588174131,2041
1630588174135,2042
1630588174139,2042
1630588174143,2042
1630588174147,2041
1630588174151,2041
1630588174155,2041
1630588174159,2041
1630588174163,2042
1630588174167,2042
1630588174171,2042
1630588174175,2041
1630588174179,2040
1630588174183,2040
1630588174187,2041
1630588174191,2044
1630588174195,2050
1630588174199,2064
1630588174203,2085
1630588174207,2108
1630588174211,2126
1630588174215,2129
1630588174219,2114
1630588174223,2083
1630588174227,2046
1630588174231,2015
1630588174235,1996
1630588174239,1990
1630588174243,1993
1630588174247,2000
1630588174251,2007
1630588174255,2014
1630588174259,2020
1630588174263,2026
1630588174267,2030
1630588174271,2034
1630588174275,2037
1630588174279,2039
1630588174283,2041
1630588174287,2043
1630588174291,2045
1630588174295,2045
1630588174299,2046
1630588174303,2046
1630588174307,2047
1630588174311,2048
1630588174315,2048
1630588174319,2048
1630588174323,2049
1630588174327,2049
1630588174331,2049
1630588174335,2049
1630588174339,2050
1630588174343,2050
1630588174347,2051
1630588174351,2052
1630588174355,2052
1630588174359,2051
1630588174363,2051
1630588174367,2051
1630588174371,2051
1630588174375,2052
1630588174379,2054
1630588174383,2055
1630588174387,2056
1630588174391,2057
1630588174395,2057
1630588174399,2057
1630588174403,2057
1630588174407,2058
1630588174411,2059
1630588174415,2060
1630588174419,2061
1630588174423,2062
1630588174427,2062
1630588174431,2062
1630588174435,2063
1630588174439,2063
1630588174443,2063
1630588174447,2063
1630588174451,2063
1630588174455,2063
1630588174459,2064
1630588174463,2064
1630588174467,2063
1630588174471,2063
1630588174475,2063
1630588174479,2062
1630588174483,2061
1630588174487,2060
1630588174491,2060
1630588174495,2060
1630588174499,2059
1630588174503,2058
1630588174507,2057
1630588174511,2056
1630588174515,2056
1630588174519,2055
1630588174523,2054
1630588174527,2053
1630588174531,2052
1630588174535,2051
1630588174539,2050
1630588174543,2050
1630588174547,2051
1630588174551,2051
1630588174555,2051
1630588174559,2051
1630588174563,2051
1630588174567,2051
1630588174571,2051
1630588174575,2051
1630588174579,2052
1630588174583,2052
1630588174587,2052
1630588174591,2052
1630588174595,2052
1630588174599,2051
1630588174603,2051
1630588174607,2050
1630588174611,2050
1630588174615,2051
1630588174619,2051
1630588174623,2052
1630588174627,2053
1630588174631,2053
1630588174635,2053
1630588174639,2052
1630588174643,2052
1630588174647,2052
1630588174651,2051
1630588174655,2051
1630588174659,2051
1630588174663,2052
1630588174667,2052
1630588174671,2051
1630588174675,2051
1630588174679,2051
1630588174683,2051
1630588174687,2051
1630588174691,2051
1630588174695,2051
1630588174699,2051
1630588174703,2051
1630588174707,2051
1630588174711,2051
1630588174715,2050
1630588174719,2049
1630588174723,2048
1630588174727,2048
1630588174731,2048
1630588174735,2049
1630588174739,2049
1630588174743,2049
1630588174747,2049
1630588174751,2048
1630588174755,2048
1630588174759,2048
1630588174763,2049
1630588174767,2049
1630588174771,2050
1630588174775,2050
1630588174779,2050
1630588174783,2051
1630588174787,2052
1630588174791,2053
1630588174795,2054
1630588174799,2054
1630588174803,2054
1630588174807,2055
1630588174811,2056
1630588174815,2057
1630588174819,2059
1630588174823,2059
1630588174827,2059
1630588174831,2058
1630588174835,2057
1630588174839,2055
1630588174843,2055
1630588174847,2053
1630588174851,2052
1630588174855,2051
1630588174859,2050
1630588174863,2049
1630588174867,2049
1630588174871,2050
1630588174875,2050
1630588174879,2049
1630588174883,2049
1630588174887,2049
1630588174891,2048
1630588174895,2048
1630588174899,2049
1630588174903,2049
1630588174907,2049
1630588174911,2048
1630588174915,2048
1630588174919,2047
1630588174923,2046
1630588174927,2045
1630588174931,2046
1630588174935,2048
1630588174939,2054
1630588174943,2066
1630588174947,2085
1630588174951,2108
1630588174955,2128
1630588174959,2136
1630588174963,2127
1630588174967,2102
1630588174971,2067
1630588174975,2035
1630588174979,2012
1630588174983,2002
1630588174987,2002
1630588174991,2008
1630588174995,2015
1630588174999,2022
1630588175003,2028
1630588175007,2034
1630588175011,2038
1630588175015,2042
1630588175019,2044
1630588175023,2046
1630588175027,2048
1630588175031,2048
1630588175035,2049
1630588175039,2049
1630588175043,2049
1630588175047,2049
1630588175051,2050
1630588175055,2051
1630588175059,2052
1630588175063,2053
1630588175067,2053
1630588175071,2054
1630588175075,2054
1630588175079,2054
1630588175083,2054
1630588175087,2053
1630588175091,2054
1630588175095,2055
1630588175099,2056
1630588175103,2057
1630588175107,2057
1630588175111,2056
1630588175115,2055
1630588175119,2055
1630588175123,2055
1630588175127,2056
1630588175131,2058
1630588175135,2060
1630588175139,2061
1630588175143,2061
1630588175147,2061
1630588175151,2061
1630588175155,2061
1630588175159,2062
1630588175163,2062
1630588175167,2063
1630588175171,2064
1630588175175,2064
1630588175179,2065
1630588175183,2066
1630588175187,2066
1630588175191,2065
1630588175195,2065
1630588175199,2064
1630588175203,2063
1630588175207,2063
1630588175211,2063
1630588175215,2064
1630588175219,2064
1630588175223,2064
1630588175227,2063
1630588175231,2063
1630588175235,2062
1630588175239,2061
1630588175243,2061
1630588175247,2060
1630588175251,2059
1630588175255,2059
1630588175259,2058
1630588175263,2056
1630588175267,2055
1630588175271,2054
1630588175275,2053
1630588175279,2053
1630588175283,2052
1630588175287,2052
1630588175291,2051
1630588175295,2051
1630588175299,2051
1630588175303,2051
1630588175307,2052
1630588175311,2052
1630588175315,2051
1630588175319,2050
1630588175323,2050
1630588175327,2050
1630588175331,2050
1630588175335,2050
1630588175339,2051
1630588175343,2052
1630588175347,2052
1630588175351,2052
1630588175355,2051
1630588175359,2051
1630588175363,2051
1630588175367,2051
1630588175371,2052
1630588175375,2053
1630588175379,2053
1630588175383,2052
1630588175387,2052
1630588175391,2051
1630588175395,2051
1630588175399,2051
1630588175403,2051
1630588175407,2051
1630588175411,2050
1630588175415,2051
1630588175419,2051
1630588175423,2052
1630588175427,2052
1630588175431,2051
1630588175435,2050
1630588175439,2049
1630588175443,2049
1630588175447,2050
1630588175451,2050
1630588175455,2050
1630588175459,2050
1630588175463,2050
1630588175467,2050
1630588175471,2050
1630588175475,2050
1630588175479,2050
1630588175483,2049
1630588175487,2049
1630588175491,2048
1630588175495,2049
1630588175499,2049
1630588175503,2050
1630588175507,2049
1630588175511,2049
1630588175515,2048
1630588175519,2048
1630588175523,2049
1630588175527,2050
1630588175531,2051
1630588175535,2052
1630588175539,2053
1630588175543,2053
1630588175547,2053
1630588175551,2053
1630588175555,2054
1630588175559,2054
1630588175563,2055
1630588175567,2056
1630588175571,2058
1630588175575,2059
1630588175579,2059
1630588175583,2059
1630588175587,2058
1630588175591,2057
1630588175595,2056
1630588175599,2055
1630588175603,2053
1630588175607,2052
1630588175611,2050
1630588175615,2050
1630588175619,2050
1630588175623,2050
1630588175627,2050
1630588175631,2050
1630588175635,2050
1630588175639,2049
1630588175643,2048
1630588175647,2048
1630588175651,2048
1630588175655,2048
1630588175659,2049
1630588175663,2049
1630588175667,2049
1630588175671,2048
1630588175675,2048
1630588175679,2047
1630588175683,2046
1630588175687,2046
1630588175691,2047
1630588175695,2051
1630588175699,2060
1630588175703,2076
1630588175707,2097
1630588175711,2118
1630588175715,2131
1630588175719,2128
1630588175723,2109
1630588175727,2076
1630588175731,2042
1630588175735,2015
1630588175739,2000
1630588175743,1998
1630588175747,2004
1630588175751,2012
1630588175755,2019
1630588175759,2026
1630588175763,2031
1630588175767,2036
1630588175771,2039
1630588175775,2042
1630588175779,2045
1630588175783,2048
1630588175787,2049
1630588175791,2050
1630588175795,2050
1630588175799,2050
1630588175803,2050
1630588175807,2050
1630588175811,2051
1630588175815,2053
1630588175819,2054
1630588175823,2054
1630588175827,2054
1630588175831,2054
1630588175835,2053
1630588175839,2053
1630588175843,2053
1630588175847,2053
1630588175851,2054
1630588175855,2055
1630588175859,2056
1630588175863,2057
1630588175867,2057
1630588175871,2057
1630588175875,2057
1630588175879,2057
1630588175883,2058
1630588175887,2058
1630588175891,2058
1630588175895,2059
1630588175899,2060
1630588175903,2061
1630588175907,2062
1630588175911,2063
1630588175915,2063
1630588175919,2063
1630588175923,2064
1630588175927,2064
1630588175931,2065
1630588175935,2065
1630588175939,2066
1630588175943,2066
1630588175947,2066
1630588175951,2065
1630588175955,2064
1630588175959,2064
1630588175963,2063
1630588175967,2063
1630588175971,2063
1630588175975,2063
1630588175979,2063
1630588175983,2063
1630588175987,2063
1630588175991,2063
1630588175995,2063
1630588175999,2062
1630588176003,2061
1630588176007,2061
1630588176011,2061
1630588176015,2061
1630588176019,2060
1630588176023,2058
1630588176027,2057
1630588176031,2056
1630588176035,2054
1630588176039,2053
1630588176043,2052
1630588176047,2052
1630588176051,2051
1630588176055,2051
1630588176059,2051
1630588176063,2051
1630588176067,2051
1630588176071,2051
1630588176075,2051
1630588176079,2050
1630588176083,2050
1630588176087,2050
1630588176091,2050
1630588176095,2051
1630588176099,2052
1630588176103,2052
1630588176107,2052
1630588176111,2051
1630588176115,2051
1630588176119,2050
1630588176123,2051
1630588176127,2051
1630588176131,2052
1630588176135,2052
1630588176139,2052
1630588176143,2051
1630588176147,2051
1630588176151,2051
1630588176155,2051
1630588176159,2051
1630588176163,2049
1630588176167,2048
1630588176171,2048
1630588176175,2049
1630588176179,2051
1630588176183,2052
1630588176187,2052
1630588176191,2051
1630588176195,2051
1630588176199,2050
1630588176203,2050
1630588176207,2050
1630588176211,2050
1630588176215,2049
1630588176219,2048
1630588176223,2048
1630588176227,2047
1630588176231,2047
1630588176235,2047
1630588176239,2048
1630588176243,2048
1630588176247,2049
1630588176251,2050
1630588176255,2050
1630588176259,2049
1630588176263,2048
1630588176267,2048
1630588176271,2047
1630588176275,2047
1630588176279,2046
1630588176283,2047
1630588176287,2048
1630588176291,2048
1630588176295,2049
1630588176299,2050
1630588176303,2051
1630588176307,2051
1630588176311,2052
1630588176315,2051
1630588176319,2051
1630588176323,2051
1630588176327,2052
1630588176331,2054
1630588176335,2055
1630588176339,2056
1630588176343,2055
1630588176347,2053
1630588176351,2052
1630588176355,2051
1630588176359,2050
1630588176363,2050
1630588176367,2049
1630588176371,2048
1630588176375,2047
1630588176379,2046
1630588176383,2046
1630588176387,2047
1630588176391,2047
1630588176395,2046
1630588176399,2045
1630588176403,2045
1630588176407,2045
1630588176411,2046
1630588176415,2047
1630588176419,2047
1630588176423,2048
1630588176427,2047
1630588176431,2045
1630588176435,2043
1630588176439,2041
1630588176443,2041
1630588176447,2041
1630588176451,2044
1630588176455,2050
1630588176459,2062
1630588176463,2081
1630588176467,2104
1630588176471,2122
1630588176475,2126
1630588176479,2112
1630588176483,2083
1630588176487,2047
1630588176491,2016
1630588176495,1997
1630588176499,1992
1630588176503,1995
1630588176507,2002
1630588176511,2008
1630588176515,2014
1630588176519,2019
1630588176523,2025
1630588176527,2030
1630588176531,2034
1630588176535,2036
1630588176539,2038
1630588176543,2039
1630588176547,2042
1630588176551,2043
1630588176555,2044
1630588176559,2044
1630588176563,2044
1630588176567,2045
1630588176571,2045
1630588176575,2046
1630588176579,2046
1630588176583,2046
1630588176587,2047
1630588176591,2047
1630588176595,2048
1630588176599,2048
1630588176603,2048
1630588176607,2048
1630588176611,2048
1630588176615,2048
1630588176619,2049
1630588176623,2049
1630588176627,2050
1630588176631,2050
1630588176635,2049
1630588176639,2049
1630588176643,2050
1630588176647,2051
1630588176651,2052
1630588176655,2053
1630588176659,2055
1630588176663,2056
1630588176667,2056
1630588176671,2057
1630588176675,2057
1630588176679,2057
1630588176683,2057
1630588176687,2058
1630588176691,2058
1630588176695,2059
1630588176699,2060
1630588176703,2060
1630588176707,2060
1630588176711,2060
1630588176715,2060
1630588176719,2059
1630588176723,2058
1630588176727,2057
1630588176731,2056
1630588176735,2056
1630588176739,2057
1630588176743,2057
1630588176747,2059
1630588176751,2059
1630588176755,2059
1630588176759,2057
1630588176763,2056
1630588176767,2055
1630588176771,2054
1630588176775,2053
1630588176779,2052
1630588176783,2051
1630588176787,2049
1630588176791,2048
1630588176795,2046
1630588176799,2045
1630588176803,2044
1630588176807,2043
1630588176811,2043
1630588176815,2043
1630588176819,2043
1630588176823,2043
1630588176827,2042
1630588176831,2042
1630588176835,2043
1630588176839,2043
1630588176843,2044
1630588176847,2044
1630588176851,2044
1630588176855,2043
1630588176859,2042
1630588176863,2042
1630588176867,2042
1630588176871,2043
1630588176875,2044
1630588176879,2045
1630588176883,2045
1630588176887,2045
1630588176891,2044
1630588176895,2044
1630588176899,2043
1630588176903,2044
1630588176907,2045
1630588176911,2045
1630588176915,2045
1630588176919,2045
1630588176923,2044
1630588176927,2044
1630588176931,2043
1630588176935,2043
1630588176939,2043
1630588176943,2044
1630588176947,2044
1630588176951,2044
1630588176955,2044
1630588176959,2043
1630588176963,2042
1630588176967,2042
1630588176971,2042
1630588176975,2043
1630588176979,2043
1630588176983,2043
1630588176987,2043
1630588176991,2042
1630588176995,2042
1630588176999,2042
1630588177003,2042
1630588177007,2042
1630588177011,2041
1630588177015,2041
1630588177019,2042
1630588177023,2043
1630588177027,2045
1630588177031,2045
1630588177035,2045
1630588177039,2045
1630588177043,2045
1630588177047,2046
1630588177051,2048
1630588177055,2049
1630588177059,2050
1630588177063,2050
1630588177067,2051
1630588177071,2051
1630588177075,2051
1630588177079,2051
1630588177083,2051
1630588177087,2051
1630588177091,2050
1630588177095,2050
1630588177099,2049
1630588177103,2048
1630588177107,2048
1630588177111,2047
1630588177115,2046
1630588177119,2044
1630588177123,2043
1630588177127,2042
1630588177131,2043
1630588177135,2044
1630588177139,2045
1630588177143,2046
1630588177147,2046
1630588177151,2046
1630588177155,2046
1630588177159,2045
1630588177163,2044
1630588177167,2044
1630588177171,2043
1630588177175,2043
1630588177179,2042
1630588177183,2043
1630588177187,2044
1630588177191,2048
1630588177195,2055
1630588177199,2069
1630588177203,2089
1630588177207,2111
1630588177211,2128
1630588177215,2130
1630588177219,2113
1630588177223,2081
1630588177227,2045
1630588177231,2015
1630588177235,1997
1630588177239,1994
1630588177243,1998
1630588177247,2006
1630588177251,2014
1630588177255,2020
1630588177259,2026
1630588177263,2032
1630588177267,2037
1630588177271,2041
1630588177275,2043
1630588177279,2045
1630588177283,2046
1630588177287,2048
1630588177291,2048
1630588177295,2049
1630588177299,2049
1630588177303,2049
1630588177307,2049
1630588177311,2050
1630588177315,2050
1630588177319,2051
1630588177323,2052
1630588177327,2053
1630588177331,2053
1630588177335,2054
1630588177339,2053
1630588177343,2053
1630588177347,2054
1630588177351,2055
1630588177355,2056
1630588177359,2056
1630588177363,2056
1630588177367,2056
1630588177371,2056
1630588177375,2057
1630588177379,2059
1630588177383,2060
1630588177387,2060
1630588177391,2061
1630588177395,2061
1630588177399,2061
1630588177403,2061
1630588177407,2062
1630588177411,2063
1630588177415,2064
1630588177419,2065
1630588177423,2065
1630588177427,2066
1630588177431,2066
1630588177435,2067
1630588177439,2067
1630588177443,2067
1630588177447,2066
1630588177451,2066
1630588177455,2065
1630588177459,2065
1630588177463,2065
1630588177467,2065
1630588177471,2065
1630588177475,2065
1630588177479,2065
1630588177483,2064
1630588177487,2063
1630588177491,2063
1630588177495,2063
1630588177499,2062
1630588177503,2061
1630588177507,2060
1630588177511,2058
1630588177515,2057
1630588177519,2056
1630588177523,2055
1630588177527,2054
1630588177531,2053
1630588177535,2052
1630588177539,2051
1630588177543,2051
1630588177547,2051
1630588177551,2051
1630588177555,2051
1630588177559,2050
1630588177563,2049
1630588177567,2048
1630588177571,2048
1630588177575,2049
1630588177579,2050
1630588177583,2051
1630588177587,2051
1630588177591,2051
1630588177595,2051
1630588177599,2050
1630588177603,2050
1630588177607,2050
1630588177611,2050
1630588177615,2051
1630588177619,2051
1630588177623,2051
1630588177627,2051
1630588177631,2051
1630588177635,2052
1630588177639,2052
1630588177643,2053
1630588177647,2053
1630588177651,2053
1630588177655,2052
1630588177659,2051
1630588177663,2051
1630588177667,2051
1630588177671,2051
1630588177675,2051
1630588177679,2051
1630588177683,2051
1630588177687,2051
1630588177691,2051
1630588177695,2052
1630588177699,2052
1630588177703,2052
1630588177707,2051
1630588177711,2050
1630588177715,2049
1630588177719,2049
1630588177723,2049
1630588177727,2049
1630588177731,2050
1630588177735,2051
1630588177739,2051
1630588177743,2051
1630588177747,2050
1630588177751,2050
1630588177755,2049
1630588177759,2050
1630588177763,2051
1630588177767,2051
1630588177771,2052
1630588177775,2052
1630588177779,2052
1630588177783,2053
1630588177787,2054
1630588177791,2055
1630588177795,2056
1630588177799,2057
1630588177803,2057
1630588177807,2058
1630588177811,2058
1630588177815,2059
1630588177819,2059
1630588177823,2058
1630588177827,2058
1630588177831,2057
1630588177835,2055
1630588177839,2053
1630588177843,2052
1630588177847,2051
1630588177851,2050
1630588177855,2050
1630588177859,2051
1630588177863,2051
1630588177867,2051
1630588177871,2051
1630588177875,2050
1630588177879,2050
1630588177883,2049
1630588177887,2049
1630588177891,2049
1630588177895,2050
1630588177899,2050
1630588177903,2050
1630588177907,2049
1630588177911,2048
1630588177915,2046
1630588177919,2046
1630588177923,2048
1630588177927,2052
1630588177931,2062
1630588177935,2080
1630588177939,2102
1630588177943,2123
1630588177947,2134
1630588177951,2129
1630588177955,2105
1630588177959,2070
1630588177963,2036
1630588177967,2010
1630588177971,1999
1630588177975,1999
1630588177979,2006
1630588177983,2015
1630588177987,2022
1630588177991,2028
1630588177995,2033
1630588177999,2038
1630588178003,2041
1630588178007,2044
1630588178011,2046
1630588178015,2048
1630588178019,2049
1630588178023,2050
1630588178027,2051
1630588178031,2051
1630588178035,2051
1630588178039,2052
1630588178043,2052
1630588178047,2053
1630588178051,2054
1630588178055,2054
1630588178059,2055
1630588178063,2054
1630588178067,2054
1630588178071,2054
1630588178075,2055
1630588178079,2055
1630588178083,2055
1630588178087,2056
1630588178091,2057
1630588178095,2058
1630588178099,2059
1630588178103,2060
1630588178107,2060
1630588178111,2060
1630588178115,2060
1630588178119,2059
1630588178123,2060
1630588178127,2060
1630588178131,2061
1630588178135,2063
1630588178139,2063
1630588178143,2064
1630588178147,2065
1630588178151,2065
1630588178155,2066
1630588178159,2066
1630588178163,2066
1630588178167,2067
1630588178171,2067
1630588178175,2067
1630588178179,2067
1630588178183,2066
1630588178187,2066
1630588178191,2065
1630588178195,2065
1630588178199,2064
1630588178203,2065
1630588178207,2065
1630588178211,2065
1630588178215,2066
1630588178219,2065
1630588178223,2064
1630588178227,2063
1630588178231,2063
1630588178235,2062
1630588178239,2061
1630588178243,2060
1630588178247,2059
1630588178251,2058
1630588178255,2057
1630588178259,2056
1630588178263,2055
1630588178267,2053
1630588178271,2052
1630588178275,2051
1630588178279,2050
1630588178283,2049
1630588178287,2049
1630588178291,2049
1630588178295,2048
1630588178299,2048
1630588178303,2048
1630588178307,2048
1630588178311,2048
1630588178315,2048
1630588178319,2048
1630588178323,2048
1630588178327,2048
1630588178331,2049
1630588178335,2050
1630588178339,2051
1630588178343,2051
1630588178347,2051
1630588178351,2050
1630588178355,2049
1630588178359,2049
1630588178363,2049
1630588178367,2049
1630588178371,2050
1630588178375,2050
1630588178379,2050
1630588178383,2050
1630588178387,2049
1630588178391,2049
1630588178395,2049
1630588178399,2050
1630588178403,2050
1630588178407,2050
1630588178411,2050
1630588178415,2050
1630588178419,2049
1630588178423,2049
1630588178427,2049
1630588178431,2049
1630588178435,2049
1630588178439,2048
1630588178443,2048
1630588178447,2048
1630588178451,2048
1630588178455,2048
1630588178459,2048
1630588178463,2048
1630588178467,2048
1630588178471,2048
1630588178475,2048
1630588178479,2048
1630588178483,2048
1630588178487,2047
1630588178491,2047
1630588178495,2048
1630588178499,2048
1630588178503,2049
1630588178507,2049
1630588178511,2049
1630588178515,2049
1630588178519,2050
1630588178523,2051
1630588178527,2052
1630588178531,2053
1630588178535,2053
1630588178539,2054
1630588178543,2055
1630588178547,2056
1630588178551,2057
1630588178555,2056
1630588178559,2055
1630588178563,2053
1630588178567,2052
1630588178571,2052
1630588178575,2052
1630588178579,2052
1630588178583,2051
1630588178587,2049
1630588178591,2048
1630588178595,2047
1630588178599,2046
1630588178603,2046
1630588178607,2046
1630588178611,2046
1630588178615,2047
1630588178619,2046
1630588178623,2046
1630588178627,2046
1630588178631,2046
1630588178635,2047
1630588178639,2047
1630588178643,2046
1630588178647,2045
1630588178651,2044
1630588178655,2043
1630588178659,2043
1630588178663,2043
1630588178667,2045
1630588178671,2048
1630588178675,2058
1630588178679,2075
1630588178683,2096
1630588178687,2116
1630588178691,2125
1630588178695,2117
1630588178699,2092
1630588178703,2057
1630588178707,2025
1630588178711,2003
1630588178715,1994
1630588178719,1995
1630588178723,2001
1630588178727,2009
1630588178731,2015
1630588178735,2022
1630588178739,2029
1630588178743,2033
1630588178747,2037
1630588178751,2039
1630588178755,2040
1630588178759,2041
1630588178763,2042
1630588178767,2043
1630588178771,2044
1630588178775,2046
1630588178779,2047
1630588178783,2048
1630588178787,2048
1630588178791,2048
1630588178795,2048
1630588178799,2048
1630588178803,2048
1630588178807,2049
1630588178811,2050
1630588178815,2051
1630588178819,2051
1630588178823,2051
1630588178827,2051
1630588178831,2051
1630588178835,2051
1630588178839,2051
1630588178843,2052
1630588178847,2052
1630588178851,2053
1630588178855,2054
1630588178859,2054
1630588178863,2055
1630588178867,2056
1630588178871,2056
1630588178875,2057
1630588178879,2057
1630588178883,2058
1630588178887,2058
1630588178891,2059
1630588178895,2060
1630588178899,2061
1630588178903,2062
1630588178907,2063
1630588178911,2063
1630588178915,2063
1630588178919,2062
1630588178923,2062
1630588178927,2061
1630588178931,2062
1630588178935,2062
1630588178939,2063
1630588178943,2063
1630588178947,2063
1630588178951,2062
1630588178955,2062
1630588178959,2061
1630588178963,2060
1630588178967,2060
1630588178971,2059
1630588178975,2060
1630588178979,2060
1630588178983,2059
1630588178987,2058
1630588178991,2057
1630588178995,2055
1630588178999,2053
1630588179003,2052
1630588179007,2051
1630588179011,2050
1630588179015,2049
1630588179019,2049
1630588179023,2049
1630588179027,2048
1630588179031,2047
1630588179035,2046
1630588179039,2044
1630588179043,2043
1630588179047,2043
1630588179051,2044
1630588179055,2045
1630588179059,2046
1630588179063,2046
1630588179067,2047
1630588179071,2047
1630588179075,2048
1630588179079,2048
1630588179083,2048
1630588179087,2048
1630588179091,2048
1630588179095,2047
1630588179099,2047
1630588179103,2046
1630588179107,2046
1630588179111,2046
1630588179115,2045
1630588179119,2045
1630588179123,2046
1630588179127,2047
1630588179131,2047
1630588179135,2047
1630588179139,2047
1630588179143,2046
1630588179147,2046
1630588179151,2046
1630588179155,2047
1630588179159,2047
1630588179163,2047
1630588179167,2046
1630588179171,2046
1630588179175,2045
1630588179179,2045
1630588179183,2045
1630588179187,2045
1630588179191,2045
1630588179195,2045
1630588179199,2044
1630588179203,2044
1630588179207,2044
1630588179211,2044
1630588179215,2045
1630588179219,2046
1630588179223,2047
1630588179227,2047
1630588179231,2046
1630588179235,2045
1630588179239,2044
1630588179243,2044
1630588179247,2045
1630588179251,2045
1630588179255,2046
1630588179259,2047
1630588179263,2047
1630588179267,2047
1630588179271,2048
1630588179275,2048
1630588179279,2048
1630588179283,2048
1630588179287,2049
1630588179291,2050
1630588179295,2052
1630588179299,2053
1630588179303,2054
1630588179307,2053
1630588179311,2053
1630588179315,2052
1630588179319,2051
1630588179323,2050
1630588179327,2050
1630588179331,2049
1630588179335,2048
1630588179339,2048
1630588179343,2046
1630588179347,2046
1630588179351,2045
1630588179355,2045
1630588179359,2045
1630588179363,2045
1630588179367,2045
1630588179371,2045
1630588179375,2045
1630588179379,2044
1630588179383,2044
1630588179387,2045
1630588179391,2045
1630588179395,2045
1630588179399,2044
1630588179403,2043
1630588179407,2042
1630588179411,2041
1630588179415,2043
1630588179419,2047
1630588179423,2054
1630588179427,2069
1630588179431,2090
1630588179435,2113
1630588179439,2129
1630588179443,2129
1630588179447,2109
1630588179451,2074
1630588179455,2037
1630588179459,2007
1630588179463,1992
1630588179467,1991
1630588179471,1997
1630588179475,2004
1630588179479,2011
1630588179483,2016
1630588179487,2022
1630588179491,2028
1630588179495,2034
1630588179499,2039
1630588179503,2042
1630588179507,2044
1630588179511,2046
1630588179515,2047
1630588179519,2048
1630588179523,2048
1630588179527,2048
1630588179531,2049
1630588179535,2050
1630588179539,2051
1630588179543,2052
1630588179547,2052
1630588179551,2052
1630588179555,2052
1630588179559,2053
1630588179563,2053
1630588179567,2053
1630588179571,2054
1630588179575,2055
1630588179579,2055
1630588179583,2055
1630588179587,2055
1630588179591,2055
1630588179595,2056
1630588179599,2056
1630588179603,2057
1630588179607,2059
1630588179611,2060
1630588179615,2060
1630588179619,2061
1630588179623,2062
1630588179627,2063
1630588179631,2064
1630588179635,2065
1630588179639,2065
1630588179643,2066
1630588179647,2067
1630588179651,2067
1630588179655,2068
1630588179659,2069
1630588179663,2069
1630588179667,2070
1630588179671,2070
1630588179675,2070
1630588179679,2069
1630588179683,2068
1630588179687,2067
1630588179691,2067
1630588179695,2067
1630588179699,2068
1630588179703,2068
1630588179707,2067
1630588179711,2067
1630588179715,2066
1630588179719,2065
1630588179723,2065
1630588179727,2065
1630588179731,2065
1630588179735,2064
1630588179739,2063
1630588179743,2061
1630588179747,2060
1630588179751,2059
1630588179755,2057
1630588179759,2056
1630588179763,2055
1630588179767,2054
1630588179771,2053
1630588179775,2053
1630588179779,2052
1630588179783,2052
1630588179787,2052
1630588179791,2052
1630588179795,2052
1630588179799,2052
1630588179803,2052
1630588179807,2052
1630588179811,2052
1630588179815,2053
1630588179819,2053
1630588179823,2054
1630588179827,2054
1630588179831,2054
1630588179835,2054
1630588179839,2054
1630588179843,2054
1630588179847,2054
1630588179851,2054
1630588179855,2054
1630588179859,2055
1630588179863,2056
1630588179867,2057
1630588179871,2057
1630588179875,2056
1630588179879,2056
1630588179883,2055
1630588179887,2055
1630588179891,2055
1630588179895,2055
1630588179899,2055
1630588179903,2055
1630588179907,2055
1630588179911,2055
1630588179915,2055
1630588179919,2054
1630588179923,2053
1630588179927,2053
1630588179931,2053
1630588179935,2054
1630588179939,2054
1630588179943,2055
1630588179947,2055
1630588179951,2055
1630588179955,2054
1630588179959,2054
1630588179963,2054
1630588179967,2054
1630588179971,2055
1630588179975,2055
1630588179979,2055
1630588179983,2055
1630588179987,2055
1630588179991,2054
1630588179995,2054
1630588179999,2053
1630588180003,2053
1630588180007,2053
1630588180011,2052
1630588180015,2053
1630588180019,2055
1630588180023,2056
1630588180027,2057
1630588180031,2057
1630588180035,2057
1630588180039,2058
1630588180043,2059
1630588180047,2060
1630588180051,2060
1630588180055,2061
1630588180059,2062
1630588180063,2063
1630588180067,2064
1630588180071,2065
1630588180075,2064
1630588180079,2063
1630588180083,2061
1630588180087,2059
1630588180091,2059
1630588180095,2059
1630588180099,2059
1630588180103,2058
1630588180107,2057
1630588180111,2056
1630588180115,2054
1630588180119,2053
1630588180123,2053
1630588180127,2054
1630588180131,2054
1630588180135,2055
1630588180139,2056
1630588180143,2055
1630588180147,2055
1630588180151,2054
1630588180155,2054
1630588180159,2054
1630588180163,2054
1630588180167,2054
1630588180171,2053
1630588180175,2052
1630588180179,2051
1630588180183,2052
1630588180187,2056
1630588180191,2065
1630588180195,2081
1630588180199,2103
1630588180203,2125
1630588180207,2140
1630588180211,2139
1630588180215,2120
1630588180219,2087
1630588180223,2052
1630588180227,2024
1630588180231,2009
1630588180235,2007
1630588180239,2011
1630588180243,2020
1630588180247,2027
1630588180251,2034
1630588180255,2040
1630588180259,2044
1630588180263,2048
1630588180267,2050
1630588180271,2052
1630588180275,2054
1630588180279,2056
1630588180283,2057
1630588180287,2057
1630588180291,2057
1630588180295,2058
1630588180299,2058
1630588180303,2059
1630588180307,2060
1630588180311,2061
1630588180315,2061
1630588180319,2061
1630588180323,2061
1630588180327,2061
1630588180331,2061
1630588180335,2062
1630588180339,2062
1630588180343,2063
1630588180347,2064
1630588180351,2064
1630588180355,2065
1630588180359,2065
1630588180363,2065
1630588180367,2065
1630588180371,2066
1630588180375,2066
1630588180379,2067
1630588180383,2068
1630588180387,2069
1630588180391,2070
1630588180395,2070
1630588180399,2070
1630588180403,2070
1630588180407,2071
1630588180411,2072
1630588180415,2073
1630588180419,2075
1630588180423,2075
1630588180427,2075
1630588180431,2075
1630588180435,2074
1630588180439,2073
1630588180443,2073
1630588180447,2074
1630588180451,2075
1630588180455,2076
1630588180459,2077
1630588180463,2076
1630588180467,2076
1630588180471,2074
1630588180475,2073
1630588180479,2072
1630588180483,2072
1630588180487,2072
1630588180491,2071
1630588180495,2071
1630588180499,2071
1630588180503,2070
1630588180507,2068
1630588180511,2066
1630588180515,2065
1630588180519,2064
1630588180523,2063
1630588180527,2062
1630588180531,2061
1630588180535,2061
1630588180539,2060
1630588180543,2060
1630588180547,2059
1630588180551,2059
1630588180555,2058
1630588180559,2057
1630588180563,2057
1630588180567,2057
1630588180571,2058
1630588180575,2058
1630588180579,2058
1630588180583,2058
1630588180587,2058
1630588180591,2058
1630588180595,2058
1630588180599,2058
1630588180603,2058
1630588180607,2058
1630588180611,2058
1630588180615,2058
1630588180619,2059
1630588180623,2060
1630588180627,2060
1630588180631,2060
1630588180635,2060
1630588180639,2059
1630588180643,2058
1630588180647,2058
1630588180651,2058
1630588180655,2058
1630588180659,2058
1630588180663,2059
1630588180667,2059
1630588180671,2059
1630588180675,2060
1630588180679,2059
1630588180683,2059
1630588180687,2059
1630588180691,2058
1630588180695,2059
1630588180699,2059
1630588180703,2059
1630588180707,2059
1630588180711,2059
1630588180715,2058
1630588180719,2058
1630588180723,2058
1630588180727,2057
1630588180731,2057
1630588180735,2057
1630588180739,2057
1630588180743,2058
1630588180747,2058
1630588180751,2059
1630588180755,2059
1630588180759,2059
1630588180763,2058
1630588180767,2058
1630588180771,2057
1630588180775,2057
1630588180779,2057
1630588180783,2058
1630588180787,2058
1630588180791,2059
1630588180795,2059
1630588180799,2059
1630588180803,2059
1630588180807,2058
1630588180811,2058
1630588180815,2059
1630588180819,2061
1630588180823,2062
1630588180827,2063
1630588180831,2063
1630588180835,2063
1630588180839,2063
1630588180843,2064
1630588180847,2065
1630588180851,2066
1630588180855,2066
1630588180859,2065
1630588180863,2064
1630588180867,2063
1630588180871,2063
1630588180875,2062
1630588180879,2061
1630588180883,2059
1630588180887,2058
1630588180891,2057
1630588180895,2058
1630588180899,2058
1630588180903,2058
1630588180907,2058
1630588180911,2057
1630588180915,2056
1630588180919,2055
1630588180923,2055
1630588180927,2055
1630588180931,2055
1630588180935,2056
1630588180939,2056
1630588180943,2056
1630588180947,2055
1630588180951,2054
1630588180955,2053
1630588180959,2052
1630588180963,2051
1630588180967,2052
1630588180971,2056
1630588180975,2066
1630588180979,2082
1630588180983,2104
1630588180987,2126
1630588180991,2139
1630588180995,2136
1630588180999,2115
1630588181003,2081
1630588181007,2047
1630588181011,2020
1630588181015,2007
1630588181019,2006
1630588181023,2012
1630588181027,2020
1630588181031,2027
1630588181035,2033
1630588181039,2038
1630588181043,2042
1630588181047,2046
1630588181051,2048
1630588181055,2050
1630588181059,2052
1630588181063,2054
1630588181067,2054
1630588181071,2055
1630588181075,2056
1630588181079,2056
1630588181083,2056
1630588181087,2057
1630588181091,2057
1630588181095,2058
1630588181099,2059
1630588181103,2059
1630588181107,2059
1630588181111,2058
1630588181115,2058
1630588181119,2058
1630588181123,2059
1630588181127,2060
1630588181131,2060
1630588181135,2060
1630588181139,2060
1630588181143,2060
1630588181147,2060
1630588181151,2061
1630588181155,2063
1630588181159,2063
1630588181163,2064
1630588181167,2065
1630588181171,2065
1630588181175,2066
1630588181179,2067
1630588181183,2068
1630588181187,2069
1630588181191,2070
1630588181195,2071
1630588181199,2071
1630588181203,2071
1630588181207,2071
1630588181211,2071
1630588181215,2072
1630588181219,2073
1630588181223,2073
1630588181227,2072
1630588181231,2071
1630588181235,2071
1630588181239,2070
1630588181243,2070
1630588181247,2070
1630588181251,2070
1630588181255,2070
1630588181259,2070
1630588181263,2070
1630588181267,2070
1630588181271,2070
1630588181275,2069
1630588181279,2067
1630588181283,2066
1630588181287,2065
1630588181291,2064
1630588181295,2063
1630588181299,2062
1630588181303,2061
1630588181307,2060
1630588181311,2059
1630588181315,2058
1630588181319,2056
1630588181323,2054
1630588181327,2053
1630588181331,2052
1630588181335,2052
1630588181339,2052
1630588181343,2053
1630588181347,2053
1630588181351,2053
1630588181355,2052
1630588181359,2052
1630588181363,2052
1630588181367,2052
1630588181371,2052
1630588181375,2052
1630588181379,2053
1630588181383,2053
1630588181387,2054
1630588181391,2055
1630588181395,2055
1630588181399,2054
1630588181403,2054
1630588181407,2054
1630588181411,2053
1630588181415,2054
1630588181419,2056
1630588181423,2057
1630588181427,2058
1630588181431,2058
1630588181435,2057
1630588181439,2056
1630588181443,2056
1630588181447,2056
1630588181451,2056
1630588181455,2057
1630588181459,2057
1630588181463,2056
1630588181467,2055
1630588181471,2054
1630588181475,2053
1630588181479,2053
1630588181483,2054
1630588181487,2055
1630588181491,2055
1630588181495,2055
1630588181499,2055
1630588181503,2054
1630588181507,2053
1630588181511,2052
1630588181515,2053
1630588181519,2053
1630588181523,2055
1630588181527,2056
1630588181531,2056
1630588181535,2056
1630588181539,2055
1630588181543,2054
1630588181547,2053
1630588181551,2053
1630588181555,2052
1630588181559,2052
1630588181563,2051
1630588181567,2051
1630588181571,2051
1630588181575,2051
1630588181579,2052
1630588181583,2052
1630588181587,2051
1630588181591,2050
1630588181595,2050
1630588181599,2050
1630588181603,2051
1630588181607,2054
1630588181611,2056
1630588181615,2058
1630588181619,2058
1630588181623,2056
1630588181627,2053
1630588181631,2052
1630588181635,2052
1630588181639,2055
1630588181643,2057
1630588181647,2059
1630588181651,2060
1630588181655,2060
1630588181659,2058
1630588181663,2057
1630588181667,2056
1630588181671,2054
1630588181675,2052
1630588181679,2051
1630588181683,2050
1630588181687,2050
1630588181691,2049
1630588181695,2050
1630588181699,2050
1630588181703,2050
1630588181707,2050
1630588181711,2050
1630588181715,2048
1630588181719,2046
1630588181723,2044
1630588181727,2042
1630588181731,2041
1630588181735,2041
1630588181739,2042
1630588181743,2044
1630588181747,2045
1630588181751,2046
1630588181755,2047
1630588181759,2048
1630588181763,2051
1630588181767,2060
1630588181771,2075
1630588181775,2097
1630588181779,2120
1630588181783,2136
1630588181787,2134
1630588181791,2113
1630588181795,2077
1630588181799,2039
1630588181803,2010
1630588181807,1995
1630588181811,1995
1630588181815,2002
1630588181819,2009
1630588181823,2015
1630588181827,2020
1630588181831,2025
1630588181835,2030
1630588181839,2033
1630588181843,2036
1630588181847,2037
1630588181851,2039
1630588181855,2040
1630588181859,2042
1630588181863,2044
1630588181867,2046
1630588181871,2046
1630588181875,2046
1630588181879,2046
1630588181883,2047
1630588181887,2048
1630588181891,2048
1630588181895,2050
1630588181899,2051
1630588181903,2052
1630588181907,2051
1630588181911,2050
1630588181915,2050
1630588181919,2050
1630588181923,2051
1630588181927,2053
1630588181931,2054
1630588181935,2054
1630588181939,2054
1630588181943,2054
1630588181947,2054
1630588181951,2054
1630588181955,2055
1630588181959,2055
1630588181963,2055
1630588181967,2056
1630588181971,2056
1630588181975,2057
1630588181979,2058
1630588181983,2060
1630588181987,2061
1630588181991,2063
1630588181995,2064
1630588181999,2065
1630588182003,2065
1630588182007,2065
1630588182011,2065
1630588182015,2065
1630588182019,2065
1630588182023,2065
1630588182027,2065
1630588182031,2064
1630588182035,2063
1630588182039,2061
1630588182043,2061
1630588182047,2061
1630588182051,2062
1630588182055,2064
1630588182059,2064
1630588182063,2065
1630588182067,2064
1630588182071,2064
1630588182075,2063
1630588182079,2061
1630588182083,2060
1630588182087,2059
1630588182091,2058
1630588182095,2057
1630588182099,2056
1630588182103,2055
1630588182107,2054
1630588182111,2053
1630588182115,2051
1630588182119,2048
1630588182123,2048
1630588182127,2048
1630588182131,2048
1630588182135,2051
1630588182139,2053
1630588182143,2053
1630588182147,2052
1630588182151,2051
1630588182155,2050
1630588182159,2050
1630588182163,2050
1630588182167,2050
1630588182171,2050
1630588182175,2051
1630588182179,2053
1630588182183,2055
1630588182187,2056
1630588182191,2057
1630588182195,2057
1630588182199,2056
1630588182203,2055
1630588182207,2054
1630588182211,2054
1630588182215,2056
1630588182219,2057
1630588182223,2059
1630588182227,2060
1630588182231,2060
1630588182235,2060
1630588182239,2059
1630588182243,2059
1630588182247,2059
1630588182251,2059
1630588182255,2060
1630588182259,2060
1630588182263,2060
1630588182267,2060
1630588182271,2060
1630588182275,2060
1630588182279,2059
1630588182283,2058
1630588182287,2058
1630588182291,2058
1630588182295,2059
1630588182299,2061
1630588182303,2062
1630588182307,2063
1630588182311,2063
1630588182315,2062
1630588182319,2061
1630588182323,2061
1630588182327,2061
1630588182331,2061
1630588182335,2061
1630588182339,2061
1630588182343,2062
1630588182347,2063
1630588182351,2064
1630588182355,2063
1630588182359,2062
1630588182363,2062
1630588182367,2062
1630588182371,2064
1630588182375,2067
1630588182379,2069
1630588182383,2070
1630588182387,2070
1630588182391,2070
1630588182395,2070
1630588182399,2070
1630588182403,2071
1630588182407,2071
1630588182411,2069
1630588182415,2068
1630588182419,2067
1630588182423,2068
1630588182427,2069
1630588182431,2069
1630588182435,2068
1630588182439,2066
1630588182443,2064
1630588182447,2063
1630588182451,2063
1630588182455,2063
1630588182459,2062
1630588182463,2061
1630588182467,2060
1630588182471,2060
1630588182475,2060
1630588182479,2061
1630588182483,2062
1630588182487,2062
1630588182491,2063
1630588182495,2063
1630588182499,2063
1630588182503,2062
1630588182507,2061
1630588182511,2060
1630588182515,2058
1630588182519,2057
1630588182523,2058
1630588182527,2060
1630588182531,2065
1630588182535,2076
1630588182539,2093
1630588182543,2116
1630588182547,2139
1630588182551,2152
1630588182555,2147
1630588182559,2123
1630588182563,2087
1630588182567,2050
1630588182571,2023
1630588182575,2010
1630588182579,2008
1630588182583,2013
1630588182587,2019
1630588182591,2025
1630588182595,2031
1630588182599,2037
1630588182603,2042
1630588182607,2046
1630588182611,2048
1630588182615,2050
1630588182619,2052
1630588182623,2054
1630588182627,2056
1630588182631,2058
1630588182635,2058
1630588182639,2059
1630588182643,2059
1630588182647,2059
1630588182651,2061
1630588182655,2062
1630588182659,2063
1630588182663,2062
1630588182667,2061
1630588182671,2060
1630588182675,2060
1630588182679,2060
1630588182683,2061
1630588182687,2062
1630588182691,2062
1630588182695,2063
1630588182699,2064
1630588182703,2064
1630588182707,2065
1630588182711,2065
1630588182715,2065
1630588182719,2064
1630588182723,2064
1630588182727,2064
1630588182731,2065
1630588182735,2066
1630588182739,2067
1630588182743,2069
1630588182747,2069
1630588182751,2070
1630588182755,2071
1630588182759,2071
1630588182763,2071
1630588182767,2071
1630588182771,2072
1630588182775,2073
1630588182779,2074
1630588182783,2074
1630588182787,2074
1630588182791,2073
1630588182795,2072
1630588182799,2071
1630588182803,2072
1630588182807,2072
1630588182811,2072
1630588182815,2072
1630588182819,2071
1630588182823,2070
1630588182827,2069
1630588182831,2069
1630588182835,2068
1630588182839,2066
1630588182843,2064
1630588182847,2063
1630588182851,2061
1630588182855,2060
1630588182859,2059
1630588182863,2059
1630588182867,2058
1630588182871,2057
1630588182875,2056
1630588182879,2054
1630588182883,2053
1630588182887,2051
1630588182891,2051
1630588182895,2050
1630588182899,2050
1630588182903,2050
1630588182907,2049
1630588182911,2049
1630588182915,2049
1630588182919,2049
1630588182923,2048
1630588182927,2048
1630588182931,2048
1630588182935,2049
1630588182939,2050
1630588182943,2050
1630588182947,2051
1630588182951,2051
1630588182955,2051
1630588182959,2051
1630588182963,2051
1630588182967,2051
1630588182971,2051
1630588182975,2051
1630588182979,2051
1630588182983,2050
1630588182987,2050
1630588182991,2050
1630588182995,2050
1630588182999,2050
1630588183003,2050
1630588183007,2049
1630588183011,2049
1630588183015,2049
1630588183019,2050
1630588183023,2050
1630588183027,2051
1630588183031,2051
1630588183035,2050
1630588183039,2048
1630588183043,2048
1630588183047,2048
1630588183051,2048
1630588183055,2048
1630588183059,2048
1630588183063,2048
1630588183067,2048
1630588183071,2047
1630588183075,2046
1630588183079,2045
1630588183083,2045
1630588183087,2046
1630588183091,2046
1630588183095,2046
1630588183099,2046
1630588183103,2047
1630588183107,2047
1630588183111,2047
1630588183115,2047
1630588183119,2047
1630588183123,2047
1630588183127,2047
1630588183131,2047
1630588183135,2048
1630588183139,2048
1630588183143,2050
1630588183147,2050
1630588183151,2050
1630588183155,2050
1630588183159,2049
1630588183163,2049
1630588183167,2050
1630588183171,2049
1630588183175,2048
1630588183179,2048
1630588183183,2048
1630588183187,2047
1630588183191,2047
1630588183195,2047
1630588183199,2045
1630588183203,2043
1630588183207,2041
1630588183211,2040
1630588183215,2041
1630588183219,2041
1630588183223,2042
1630588183227,2042
1630588183231,2042
1630588183235,2042
1630588183239,2041
1630588183243,2040
1630588183247,2039
1630588183251,2039
1630588183255,2039
1630588183259,2040
1630588183263,2040
1630588183267,2040
1630588183271,2039
1630588183275,2037
1630588183279,2036
1630588183283,2036
1630588183287,2037
1630588183291,2042
1630588183295,2051
1630588183299,2070
1630588183303,2095
1630588183307,2119
1630588183311,2133
1630588183315,2128
1630588183319,2104
1630588183323,2068
1630588183327,2032
1630588183331,2005
1630588183335,1991
1630588183339,1990
1630588183343,1995
1630588183347,2001
1630588183351,2007
1630588183355,2013
1630588183359,2019
1630588183363,2024
1630588183367,2027
1630588183371,2029
1630588183375,2030
1630588183379,2032
1630588183383,2034
1630588183387,2037
1630588183391,2038
1630588183395,2039
1630588183399,2039
1630588183403,2039
1630588183407,2040
1630588183411,2039
1630588183415,2040
1630588183419,2041
1630588183423,2042
1630588183427,2043
1630588183431,2044
1630588183435,2044
1630588183439,2043
1630588183443,2042
1630588183447,2041
1630588183451,2041
1630588183455,2042
1630588183459,2044
1630588183463,2045
1630588183467,2046
1630588183471,2047
1630588183475,2047
1630588183479,2047
1630588183483,2046
1630588183487,2046
1630588183491,2046
1630588183495,2047
1630588183499,2048
1630588183503,2048
1630588183507,2050
1630588183511,2050
1630588183515,2051
1630588183519,2051
1630588183523,2052
1630588183527,2053
1630588183531,2055
1630588183535,2057
1630588183539,2058
1630588183543,2059
1630588183547,2059
1630588183551,2058
1630588183555,2056
1630588183559,2055
1630588183563,2055
1630588183567,2055
1630588183571,2055
1630588183575,2056
1630588183579,2057
1630588183583,2057
1630588183587,2057
1630588183591,2056
1630588183595,2054
1630588183599,2052
1630588183603,2050
1630588183607,2048
1630588183611,2048
1630588183615,2047
1630588183619,2046
1630588183623,2045
1630588183627,2044
1630588183631,2042
1630588183635,2041
1630588183639,2039
1630588183643,2038
1630588183647,2037
1630588183651,2036
1630588183655,2035
1630588183659,2036
1630588183663,2036
1630588183667,2037
1630588183671,2037
1630588183675,2037
1630588183679,2036
1630588183683,2035
1630588183687,2035
1630588183691,2035
1630588183695,2036
1630588183699,2037
1630588183703,2038
1630588183707,2038
1630588183711,2037
1630588183715,2037
1630588183719,2037
1630588183723,2038
1630588183727,2038
1630588183731,2038
1630588183735,2038
1630588183739,2038
1630588183743,2039
1630588183747,2039
1630588183751,2040
1630588183755,2040
1630588183759,2039
1630588183763,2039
1630588183767,2038
1630588183771,2038
1630588183775,2039
1630588183779,2039
1630588183783,2039
1630588183787,2039
1630588183791,2039
1630588183795,2039
1630588183799,2038
1630588183803,2038
1630588183807,2037
1630588183811,2036
1630588183815,2035
1630588183819,2035
1630588183823,2037
1630588183827,2038
1630588183831,2040
1630588183835,2040
1630588183839,2040
1630588183843,2040
1630588183847,2039
1630588183851,2039
1630588183855,2039
1630588183859,2039
1630588183863,2040
1630588183867,2041
1630588183871,2041
1630588183875,2042
1630588183879,2042
1630588183883,2042
1630588183887,2042
1630588183891,2042
1630588183895,2042
1630588183899,2043
1630588183903,2045
1630588183907,2046
1630588183911,2047
1630588183915,2047
1630588183919,2047
1630588183923,2045
1630588183927,2044
1630588183931,2043
1630588183935,2042
1630588183939,2041
1630588183943,2040
1630588183947,2039
1630588183951,2039
1630588183955,2039
1630588183959,2039
1630588183963,2039
1630588183967,2039
1630588183971,2038
1630588183975,2037
1630588183979,2037
1630588183983,2037
1630588183987,2038
1630588183991,2037
1630588183995,2037
1630588183999,2037
1630588184003,2037
1630588184007,2036
1630588184011,2036
1630588184015,2035
1630588184019,2035
1630588184023,2037
1630588184027,2042
1630588184031,2053
1630588184035,2071
1630588184039,2097
1630588184043,2122
1630588184047,2139
1630588184051,2137
1630588184055,2114
1630588184059,2076
1630588184063,2037
1630588184067,2005
1630588184071,1989
1630588184075,1987
1630588184079,1991
1630588184083,1998
1630588184087,2004
1630588184091,2010
1630588184095,2017
1630588184099,2023
1630588184103,2028
1630588184107,2031
1630588184111,2033
1630588184115,2034
1630588184119,2036
1630588184123,2038
1630588184127,2040
1630588184131,2041
1630588184135,2042
1630588184139,2043
1630588184143,2044
1630588184147,2044
1630588184151,2044
1630588184155,2044
1630588184159,2044
1630588184163,2044
1630588184167,2045
1630588184171,2046
1630588184175,2046
1630588184179,2047
1630588184183,2047
1630588184187,2048
1630588184191,2048
1630588184195,2049
1630588184199,2050
1630588184203,2050
1630588184207,2050
1630588184211,2050
1630588184215,2051
1630588184219,2053
1630588184223,2054
1630588184227,2055
1630588184231,2056
1630588184235,2056
1630588184239,2056
1630588184243,2058
1630588184247,2059
1630588184251,2061
1630588184255,2062
1630588184259,2063
1630588184263,2064
1630588184267,2065
1630588184271,2066
1630588184275,2067
1630588184279,2067
1630588184283,2068
1630588184287,2068
1630588184291,2067
1630588184295,2067
1630588184299,2067
1630588184303,2067
1630588184307,2067
1630588184311,2066
1630588184315,2065
1630588184319,2063
1630588184323,2062
1630588184327,2061
1630588184331,2061
1630588184335,2060
1630588184339,2058
1630588184343,2055
1630588184347,2053
1630588184351,2051
1630588184355,2050
1630588184359,2049
1630588184363,2048
1630588184367,2048
1630588184371,2046
1630588184375,2044
1630588184379,2043
1630588184383,2043
1630588184387,2043
1630588184391,2043
1630588184395,2044
1630588184399,2044
1630588184403,2044
1630588184407,2043
1630588184411,2043
1630588184415,2043
1630588184419,2043
1630588184423,2043
1630588184427,2043
1630588184431,2043
1630588184435,2042
1630588184439,2042
1630588184443,2042
1630588184447,2042
1630588184451,2043
1630588184455,2043
1630588184459,2044
1630588184463,2044
1630588184467,2045
1630588184471,2045
1630588184475,2045
1630588184479,2045
1630588184483,2045
1630588184487,2046
1630588184491,2046
1630588184495,2047
1630588184499,2047
1630588184503,2047
1630588184507,2047
1630588184511,2046
1630588184515,2046
1630588184519,2046
1630588184523,2046
1630588184527,2046
1630588184531,2047
1630588184535,2047
1630588184539,2047
1630588184543,2047
1630588184547,2047
1630588184551,2046
1630588184555,2045
1630588184559,2045
1630588184563,2045
1630588184567,2045
1630588184571,2046
1630588184575,2046
1630588184579,2046
1630588184583,2046
1630588184587,2046
1630588184591,2045
1630588184595,2044
1630588184599,2044
1630588184603,2044
1630588184607,2045
1630588184611,2047
1630588184615,2048
1630588184619,2049
1630588184623,2050
1630588184627,2051
1630588184631,2051
1630588184635,2051
1630588184639,2052
1630588184643,2052
1630588184647,2053
1630588184651,2052
1630588184655,2052
1630588184659,2051
1630588184663,2051
1630588184667,2051
1630588184671,2051
1630588184675,2050
1630588184679,2048
1630588184683,2047
1630588184687,2046
1630588184691,2046
1630588184695,2046
1630588184699,2047
1630588184703,2047
1630588184707,2047
1630588184711,2046
1630588184715,2045
1630588184719,2045
1630588184723,2046
1630588184727,2046
1630588184731,2046
1630588184735,2047
1630588184739,2046
1630588184743,2046
1630588184747,2045
1630588184751,2043
1630588184755,2042
1630588184759,2043
1630588184763,2046
1630588184767,2052
1630588184771,2067
1630588184775,2089
1630588184779,2115
1630588184783,2137
1630588184787,2145
1630588184791,2133
1630588184795,2103
1630588184799,2063
1630588184803,2029
1630588184807,2006
1630588184811,1998
1630588184815,2000
1630588184819,2008
1630588184823,2015
1630588184827,2022
1630588184831,2027
1630588184835,2032
1630588184839,2035
1630588184843,2038
1630588184847,2040
1630588184851,2042
1630588184855,2044
1630588184859,2045
1630588184863,2046
1630588184867,2047
1630588184871,2048
1630588184875,2048
1630588184879,2048
1630588184883,2048
1630588184887,2048
1630588184891,2049
1630588184895,2050
1630588184899,2051
1630588184903,2052
1630588184907,2052
1630588184911,2051
1630588184915,2050
1630588184919,2050
1630588184923,2051
1630588184927,2052
1630588184931,2052
1630588184935,2053
1630588184939,2053
1630588184943,2053
1630588184947,2054
1630588184951,2056
1630588184955,2057
1630588184959,2058
1630588184963,2058
1630588184967,2058
1630588184971,2058
1630588184975,2059
1630588184979,2060
1630588184983,2062
1630588184987,2063
1630588184991,2064
1630588184995,2065
1630588184999,2065
1630588185003,2066
1630588185007,2066
1630588185011,2067
1630588185015,2069
1630588185019,2070
1630588185023,2070
1630588185027,2070
1630588185031,2070
1630588185035,2070
1630588185039,2069
1630588185043,2069
1630588185047,2069
1630588185051,2068
1630588185055,2067
1630588185059,2066
1630588185063,2065
1630588185067,2064
1630588185071,2063
1630588185075,2061
1630588185079,2060
1630588185083,2058
1630588185087,2056
1630588185091,2055
1630588185095,2054
1630588185099,2054
1630588185103,2053
1630588185107,2052
1630588185111,2051
1630588185115,2050
1630588185119,2048
1630588185123,2048
1630588185127,2048
1630588185131,2048
1630588185135,2048
1630588185139,2048
1630588185143,2048
1630588185147,2048
1630588185151,2048
1630588185155,2047
1630588185159,2046
1630588185163,2046
1630588185167,2046
1630588185171,2046
1630588185175,2047
1630588185179,2048
1630588185183,2048
1630588185187,2048
1630588185191,2048
1630588185195,2049
1630588185199,2049
1630588185203,2049
1630588185207,2049
1630588185211,2050
1630588185215,2050
1630588185219,2050
1630588185223,2050
1630588185227,2050
1630588185231,2051
1630588185235,2051
1630588185239,2050
1630588185243,2050
1630588185247,2050
1630588185251,2050
1630588185255,2050
1630588185259,2050
1630588185263,2050
1630588185267,2050
1630588185271,2050
1630588185275,2050
1630588185279,2049
1630588185283,2049
1630588185287,2050
1630588185291,2050
1630588185295,2051
1630588185299,2051
1630588185303,2051
1630588185307,2051
1630588185311,2051
1630588185315,2051
1630588185319,2051
1630588185323,2051
1630588185327,2050
1630588185331,2050
1630588185335,2049
1630588185339,2050
1630588185343,2050
1630588185347,2050
1630588185351,2050
1630588185355,2050
1630588185359,2050
1630588185363,2050
1630588185367,2051
1630588185371,2051
1630588185375,2052
1630588185379,2053
1630588185383,2053
1630588185387,2053
1630588185391,2053
1630588185395,2054
1630588185399,2055
1630588185403,2057
1630588185407,2059
1630588185411,2060
1630588185415,2062
1630588185419,2062
1630588185423,2062
1630588185427,2061
1630588185431,2059
1630588185435,2058
1630588185439,2057
1630588185443,2057
1630588185447,2057
1630588185451,2057
1630588185455,2056
1630588185459,2055
1630588185463,2054
1630588185467,2054
1630588185471,2053
1630588185475,2052
1630588185479,2052
1630588185483,2051
1630588185487,2051
1630588185491,2052
1630588185495,2052
1630588185499,2053
1630588185503,2053
1630588185507,2053
1630588185511,2053
1630588185515,2052
1630588185519,2052
1630588185523,2051
1630588185527,2050
1630588185531,2049
1630588185535,2049
1630588185539,2051
1630588185543,2057
1630588185547,2069
1630588185551,2089
1630588185555,2113
1630588185559,2136
1630588185563,2148
1630588185567,2142
1630588185571,2118
1630588185575,2083
1630588185579,2048
1630588185583,2022
1630588185587,2008
1630588185591,2007
1630588185595,2012
1630588185599,2019
1630588185603,2025
1630588185607,2031
1630588185611,2036
1630588185615,2041
1630588185619,2045
1630588185623,2048
1630588185627,2049
1630588185631,2050
1630588185635,2051
1630588185639,2052
1630588185643,2053
1630588185647,2053
1630588185651,2054
1630588185655,2054
1630588185659,2055
1630588185663,2055
1630588185667,2056
1630588185671,2056
1630588185675,2056
1630588185679,2056
1630588185683,2057
1630588185687,2057
1630588185691,2057
1630588185695,2057
1630588185699,2057
1630588185703,2058
1630588185707,2059
1630588185711,2060
1630588185715,2060
1630588185719,2060
1630588185723,2060
1630588185727,2061
1630588185731,2061
1630588185735,2062
1630588185739,2063
1630588185743,2063
1630588185747,2064
1630588185751,2065
1630588185755,2067
1630588185759,2068
1630588185763,2068
1630588185767,2069
1630588185771,2069
1630588185775,2070
1630588185779,2072
1630588185783,2073
1630588185787,2073
1630588185791,2073
1630588185795,2073
1630588185799,2072
1630588185803,2072
1630588185807,2072
1630588185811,2072
1630588185815,2072
1630588185819,2072
1630588185823,2072
1630588185827,2072
1630588185831,2072
1630588185835,2073
1630588185839,2072
1630588185843,2071
1630588185847,2070
1630588185851,2068
1630588185855,2067
1630588185859,2066
1630588185863,2065
1630588185867,2064
1630588185871,2062
1630588185875,2061
1630588185879,2059
1630588185883,2058
1630588185887,2057
1630588185891,2056
1630588185895,2056
1630588185899,2056
1630588185903,2056
1630588185907,2056
1630588185911,2055
1630588185915,2054
1630588185919,2053
1630588185923,2052
1630588185927,2053
1630588185931,2053
1630588185935,2054
1630588185939,2055
1630588185943,2056
1630588185947,2056
1630588185951,2055
1630588185955,2054
1630588185959,2053
1630588185963,2053
1630588185967,2053
1630588185971,2054
1630588185975,2055
1630588185979,2055
1630588185983,2056
1630588185987,2056
1630588185991,2056
1630588185995,2056
1630588185999,2055
1630588186003,2055
1630588186007,2055
1630588186011,2056
1630588186015,2057
1630588186019,2057
1630588186023,2057
1630588186027,2057
1630588186031,2057
1630588186035,2057
1630588186039,2056
1630588186043,2056
1630588186047,2056
1630588186051,2055
1630588186055,2055
1630588186059,2056
1630588186063,2056
1630588186067,2057
1630588186071,2057
1630588186075,2056
1630588186079,2055
1630588186083,2054
1630588186087,2053
1630588186091,2053
1630588186095,2054
1630588186099,2055
1630588186103,2056
1630588186107,2056
1630588186111,2055
1630588186115,2055
1630588186119,2054
1630588186123,2054
1630588186127,2054
1630588186131,2055
1630588186135,2055
1630588186139,2055
1630588186143,2055
1630588186147,2055
1630588186151,2054
1630588186155,2054
1630588186159,2054
1630588186163,2055
1630588186167,2055
1630588186171,2056
1630588186175,2056
1630588186179,2056
1630588186183,2056
1630588186187,2055
1630588186191,2054
1630588186195,2054
1630588186199,2053
1630588186203,2053
1630588186207,2054
1630588186211,2054
1630588186215,2056
1630588186219,2057
1630588186223,2059
1630588186227,2060
1630588186231,2060
1630588186235,2060
1630588186239,2060
1630588186243,2060
1630588186247,2061
1630588186251,2061
1630588186255,2062
1630588186259,2063
1630588186263,2063
1630588186267,2063
1630588186271,2062
1630588186275,2061
1630588186279,2060
1630588186283,2060
1630588186287,2060
1630588186291,2059
1630588186295,2057
1630588186299,2055
1630588186303,2054
1630588186307,2053
1630588186311,2054
1630588186315,2054
1630588186319,2054
1630588186323,2054
1630588186327,2053
1630588186331,2053
1630588186335,2053
1630588186339,2053
1630588186343,2053
1630588186347,2052
1630588186351,2052
1630588186355,2052
1630588186359,2052
1630588186363,2052
1630588186367,2052
1630588186371,2051
1630588186375,2050
1630588186379,2050
1630588186383,2053
1630588186387,2061
1630588186391,2075
1630588186395,2095
1630588186399,2119
1630588186403,2138
1630588186407,2144
1630588186411,2132
1630588186415,2104
1630588186419,2068
1630588186423,2036
1630588186427,2014
1630588186431,2005
1630588186435,2006
1630588186439,2013
1630588186443,2020
1630588186447,2027
1630588186451,2033
1630588186455,2038
1630588186459,2042
1630588186463,2046
1630588186467,2048
1630588186471,2048
1630588186475,2049
1630588186479,2049
1630588186483,2049
1630588186487,2051
1630588186491,2052
1630588186495,2054
1630588186499,2055
1630588186503,2056
1630588186507,2056
1630588186511,2055
1630588186515,2055
1630588186519,2055
1630588186523,2056
1630588186527,2056
1630588186531,2057
1630588186535,2058
1630588186539,2058
1630588186543,2059
1630588186547,2059
1630588186551,2059
1630588186555,2059
1630588186559,2059
1630588186563,2059
1630588186567,2059
1630588186571,2060
1630588186575,2061
1630588186579,2061
1630588186583,2062
1630588186587,2063
1630588186591,2064
1630588186595,2064
1630588186599,2064
1630588186603,2065
1630588186607,2065
1630588186611,2066
1630588186615,2067
1630588186619,2068
1630588186623,2068
1630588186627,2069
1630588186631,2069
1630588186635,2070
1630588186639,2071
1630588186643,2071
1630588186647,2070
1630588186651,2069
1630588186655,2069
1630588186659,2069
1630588186663,2069
1630588186667,2070
1630588186671,2070
1630588186675,2069
1630588186679,2068
1630588186683,2067
1630588186687,2067
1630588186691,2066
1630588186695,2066
1630588186699,2065
1630588186703,2064
1630588186707,2063
1630588186711,2061
1630588186715,2059
1630588186719,2057
1630588186723,2056
1630588186727,2056
1630588186731,2055
1630588186735,2055
1630588186739,2054
1630588186743,2053
1630588186747,2053
1630588186751,2052
1630588186755,2051
1630588186759,2050
1630588186763,2049
1630588186767,2049
1630588186771,2049
1630588186775,2050
1630588186779,2051
1630588186783,2051
1630588186787,2051
1630588186791,2050
1630588186795,2050
1630588186799,2050
1630588186803,2050
1630588186807,2050
1630588186811,2050
1630588186815,2050
1630588186819,2049
1630588186823,2049
1630588186827,2049
1630588186831,2049
1630588186835,2049
1630588186839,2049
1630588186843,2049
1630588186847,2049
1630588186851,2049
1630588186855,2050
1630588186859,2050
1630588186863,2050
1630588186867,2050
1630588186871,2050
1630588186875,2050
1630588186879,2050
1630588186883,2050
1630588186887,2050
1630588186891,2050
1630588186895,2050
1630588186899,2050
1630588186903,2049
1630588186907,2049
1630588186911,2048
1630588186915,2048
1630588186919,2048
1630588186923,2048
1630588186927,2047
1630588186931,2047
1630588186935,2047
1630588186939,2048
1630588186943,2048
1630588186947,2048
1630588186951,2049
1630588186955,2049
1630588186959,2049
1630588186963,2048
1630588186967,2048
1630588186971,2047
1630588186975,2047
1630588186979,2048
1630588186983,2048
1630588186987,2049
1630588186991,2049
1630588186995,2048
1630588186999,2048
1630588187003,2047
1630588187007,2047
1630588187011,2048
1630588187015,2048
1630588187019,2048
1630588187023,2049
1630588187027,2048
1630588187031,2048
1630588187035,2048
1630588187039,2047
1630588187043,2047
1630588187047,2046
1630588187051,2046
1630588187055,2046
1630588187059,2047
1630588187063,2047
1630588187067,2048
1630588187071,2048
1630588187075,2047
1630588187079,2046
1630588187083,2046
1630588187087,2047
1630588187091,2048
1630588187095,2050
1630588187099,2052
1630588187103,2053
1630588187107,2053
1630588187111,2053
1630588187115,2052
1630588187119,2052
1630588187123,2053
1630588187127,2054
1630588187131,2055
1630588187135,2055
1630588187139,2054
1630588187143,2054
1630588187147,2053
1630588187151,2053
1630588187155,2052
1630588187159,2051
1630588187163,2049
1630588187167,2048
1630588187171,2047
1630588187175,2046
1630588187179,2045
1630588187183,2045
1630588187187,2045
1630588187191,2046
1630588187195,2047
1630588187199,2047
1630588187203,2047
1630588187207,2046
1630588187211,2046
1630588187215,2046
1630588187219,2047
1630588187223,2047
1630588187227,2046
1630588187231,2046
1630588187235,2045
1630588187239,2043
1630588187243,2043
1630588187247,2043
1630588187251,2043
1630588187255,2045
1630588187259,2050
1630588187263,2062
1630588187267,2082
1630588187271,2107
1630588187275,2129
1630588187279,2140
1630588187283,2132
1630588187287,2104
1630588187291,2066
1630588187295,2031
1630588187299,2006
1630588187303,1995
1630588187307,1995
1630588187311,2000
1630588187315,2006
1630588187319,2011
1630588187323,2017
1630588187327,2023
1630588187331,2029
1630588187335,2034
1630588187339,2037
1630588187343,2040
1630588187347,2042
1630588187351,2044
1630588187355,2045
1630588187359,2046
1630588187363,2047
1630588187367,2047
1630588187371,2048
1630588187375,2048
1630588187379,2048
1630588187383,2048
1630588187387,2048
1630588187391,2049
1630588187395,2049
1630588187399,2050
1630588187403,2051
1630588187407,2051
1630588187411,2051
1630588187415,2051
1630588187419,2051
1630588187423,2052
1630588187427,2052
1630588187431,2053
1630588187435,2053
1630588187439,2053
1630588187443,2053
1630588187447,2053
1630588187451,2054
1630588187455,2055
1630588187459,2056
1630588187463,2057
1630588187467,2057
1630588187471,2058
1630588187475,2059
1630588187479,2059
1630588187483,2060
1630588187487,2060
1630588187491,2060
1630588187495,2061
1630588187499,2062
1630588187503,2064
1630588187507,2065
1630588187511,2066
1630588187515,2066
1630588187519,2065
1630588187523,2065
1630588187527,2064
1630588187531,2064
1630588187535,2064
1630588187539,2064
1630588187543,2063
1630588187547,2063
1630588187551,2062
1630588187555,2061
1630588187559,2060
1630588187563,2060
1630588187567,2060
1630588187571,2059
1630588187575,2059
1630588187579,2058
1630588187583,2056
1630588187587,2054
1630588187591,2053
1630588187595,2051
1630588187599,2050
1630588187603,2048
1630588187607,2048
1630588187611,2046
1630588187615,2046
1630588187619,2046
1630588187623,2046
1630588187627,2045
1630588187631,2044
1630588187635,2043
1630588187639,2043
1630588187643,2044
1630588187647,2044
1630588187651,2045
1630588187655,2045
1630588187659,2046
1630588187663,2046
1630588187667,2046
1630588187671,2046
1630588187675,2046
1630588187679,2046
1630588187683,2045
1630588187687,2045
1630588187691,2045
1630588187695,2046
1630588187699,2047
1630588187703,2048
1630588187707,2048
1630588187711,2047
1630588187715,2047
1630588187719,2046
1630588187723,2046
1630588187727,2046
1630588187731,2046
1630588187735,2047
1630588187739,2047
1630588187743,2048
1630588187747,2048
1630588187751,2048
1630588187755,2048
1630588187759,2048
1630588187763,2048
1630588187767,2047
1630588187771,2047
1630588187775,2047
1630588187779,2047
1630588187783,2047
1630588187787,2046
1630588187791,2046
1630588187795,2046
1630588187799,2045
1630588187803,2045
1630588187807,2046
1630588187811,2046
1630588187815,2047
1630588187819,2047
1630588187823,2047
1630588187827,2047
1630588187831,2046
1630588187835,2045
1630588187839,2045
1630588187843,2044
1630588187847,2045
1630588187851,2045
1630588187855,2046
1630588187859,2046
1630588187863,2047
1630588187867,2047
1630588187871,2047
1630588187875,2047
1630588187879,2047
1630588187883,2047
1630588187887,2047
1630588187891,2047
1630588187895,2047
1630588187899,2047
1630588187903,2047
1630588187907,2047
1630588187911,2047
1630588187915,2046
1630588187919,2046
1630588187923,2047
1630588187927,2047
1630588187931,2048
1630588187935,2048
1630588187939,2047
1630588187943,2047
1630588187947,2047
1630588187951,2048
1630588187955,2048
1630588187959,2048
1630588187963,2049
1630588187967,2050
1630588187971,2051
1630588187975,2052
1630588187979,2053
1630588187983,2054
1630588187987,2054
1630588187991,2055
1630588187995,2056
1630588187999,2056
1630588188003,2055
1630588188007,2054
1630588188011,2054
1630588188015,2054
1630588188019,2053
1630588188023,2052
1630588188027,2051
1630588188031,2049
1630588188035,2048
1630588188039,2048
1630588188043,2047
1630588188047,2048
1630588188051,2048
1630588188055,2048
1630588188059,2048
1630588188063,2048
1630588188067,2048
1630588188071,2048
1630588188075,2047
1630588188079,2047
1630588188083,2046
1630588188087,2046
1630588188091,2047
1630588188095,2048
1630588188099,2048
1630588188103,2047
1630588188107,2046
1630588188111,2045
1630588188115,2044
1630588188119,2047
1630588188123,2053
1630588188127,2068
1630588188131,2090
1630588188135,2115
1630588188139,2137
1630588188143,2145
1630588188147,2132
1630588188151,2102
1630588188155,2063
1630588188159,2028
1630588188163,2005
1630588188167,1995
1630588188171,1996
1630588188175,2003
1630588188179,2010
1630588188183,2018
1630588188187,2026
1630588188191,2032
1630588188195,2037
1630588188199,2039
1630588188203,2041
1630588188207,2043
1630588188211,2045
1630588188215,2048
1630588188219,2049
1630588188223,2050
1630588188227,2051
1630588188231,2051
1630588188235,2051
1630588188239,2050
1630588188243,2050
1630588188247,2051
1630588188251,2052
1630588188255,2053
1630588188259,2054
1630588188263,2055
1630588188267,2055
1630588188271,2056
1630588188275,2055
1630588188279,2055
1630588188283,2055
1630588188287,2055
1630588188291,2056
1630588188295,2057
1630588188299,2057
1630588188303,2058
1630588188307,2059
1630588188311,2059
1630588188315,2060
1630588188319,2060
1630588188323,2061
1630588188327,2062
1630588188331,2063
1630588188335,2064
1630588188339,2066
1630588188343,2066
1630588188347,2067
1630588188351,2067
1630588188355,2067
1630588188359,2067
1630588188363,2068
1630588188367,2069
1630588188371,2070
1630588188375,2071
1630588188379,2072
1630588188383,2072
1630588188387,2072
1630588188391,2071
1630588188395,2070
1630588188399,2069
1630588188403,2068
1630588188407,2067
1630588188411,2067
1630588188415,2067
1630588188419,2067
1630588188423,2066
1630588188427,2065
1630588188431,2064
1630588188435,2062
1630588188439,2061
1630588188443,2059
1630588188447,2058
1630588188451,2058
1630588188455,2057
1630588188459,2056
1630588188463,2054
1630588188467,2053
1630588188471,2052
1630588188475,2051
1630588188479,2050
1630588188483,2050
1630588188487,2049
1630588188491,2048
1630588188495,2048
1630588188499,2048
1630588188503,2048
1630588188507,2048
1630588188511,2048
1630588188515,2048
1630588188519,2048
1630588188523,2048
1630588188527,2048
1630588188531,2048
1630588188535,2049
1630588188539,2050
1630588188543,2050
1630588188547,2050
1630588188551,2050
1630588188555,2050
1630588188559,2050
1630588188563,2050
1630588188567,2051
1630588188571,2051
1630588188575,2052
1630588188579,2052
1630588188583,2052
1630588188587,2052
1630588188591,2051
1630588188595,2051
1630588188599,2051
1630588188603,2051
1630588188607,2050
1630588188611,2050
1630588188615,2050
1630588188619,2050
1630588188623,2050
1630588188627,2050
1630588188631,2050
1630588188635,2050
1630588188639,2049
1630588188643,2048
1630588188647,2048
1630588188651,2048
1630588188655,2048
1630588188659,2049
1630588188663,2049
1630588188667,2049
1630588188671,2049
1630588188675,2048
1630588188679,2048
1630588188683,2048
1630588188687,2048
1630588188691,2048
1630588188695,2048
1630588188699,2048
1630588188703,2048
1630588188707,2048
1630588188711,2048
1630588188715,2048
1630588188719,2048
1630588188723,2048
1630588188727,2048
1630588188731,2048
1630588188735,2048
1630588188739,2048
1630588188743,2049
1630588188747,2049
1630588188751,2048
1630588188755,2048
1630588188759,2048
1630588188763,2048
1630588188767,2048
1630588188771,2048
1630588188775,2049
1630588188779,2049
1630588188783,2050
1630588188787,2050
1630588188791,2049
1630588188795,2049
1630588188799,2048
1630588188803,2048
1630588188807,2048
1630588188811,2048
1630588188815,2048
1630588188819,2048
1630588188823,2049
1630588188827,2049
1630588188831,2049
1630588188835,2049
1630588188839,2048
1630588188843,2048
1630588188847,2048
1630588188851,2048
1630588188855,2050
1630588188859,2053
1630588188863,2055
1630588188867,2056
1630588188871,2057
1630588188875,2057
1630588188879,2056
1630588188883,2056
1630588188887,2056
1630588188891,2056
1630588188895,2056
1630588188899,2055
1630588188903,2055
1630588188907,2054
1630588188911,2053
1630588188915,2052
1630588188919,2052
1630588188923,2051
1630588188927,2050
1630588188931,2048
1630588188935,2048
1630588188939,2048
1630588188943,2048
1630588188947,2048
1630588188951,2048
1630588188955,2048
1630588188959,2048
1630588188963,2048
1630588188967,2048
1630588188971,2048
1630588188975,2048
1630588188979,2048
1630588188983,2048
1630588188987,2048
1630588188991,2047
1630588188995,2046
1630588188999,2044
1630588189003,2043
1630588189007,2043
1630588189011,2046
1630588189015,2051
1630588189019,2063
1630588189023,2082
1630588189027,2106
1630588189031,2130
1630588189035,2143
1630588189039,2139
1630588189043,2116
1630588189047,2080
1630588189051,2045
1630588189055,2017
1630588189059,2003
1630588189063,2001
1630588189067,2006
1630588189071,2013
1630588189075,2020
1630588189079,2026
1630588189083,2031
1630588189087,2036
1630588189091,2040
1630588189095,2043
1630588189099,2046
1630588189103,2048
1630588189107,2048
1630588189111,2048
1630588189115,2048
1630588189119,2049
1630588189123,2049
1630588189127,2050
1630588189131,2051
1630588189135,2052
1630588189139,2053
1630588189143,2054
1630588189147,2054
1630588189151,2054
1630588189155,2054
1630588189159,2053
1630588189163,2053
1630588189167,2053
1630588189171,2054
1630588189175,2055
1630588189179,2056
1630588189183,2056
1630588189187,2056
1630588189191,2056
1630588189195,2056
1630588189199,2056
1630588189203,2057
1630588189207,2057
1630588189211,2059
1630588189215,2060
1630588189219,2061
1630588189223,2062
1630588189227,2063
1630588189231,2063
1630588189235,2063
1630588189239,2063
1630588189243,2063
1630588189247,2064
1630588189251,2064
1630588189255,2065
1630588189259,2066
1630588189263,2067
1630588189267,2067
1630588189271,2067
1630588189275,2066
1630588189279,2066
1630588189283,2066
1630588189287,2066
1630588189291,2066
1630588189295,2067
1630588189299,2066
1630588189303,2066
1630588189307,2065
1630588189311,2064
1630588189315,2064
1630588189319,2063
1630588189323,2062
1630588189327,2062
1630588189331,2061
1630588189335,2060
1630588189339,2059
1630588189343,2059
1630588189347,2057
1630588189351,2056
1630588189355,2055
1630588189359,2053
1630588189363,2053
1630588189367,2052
1630588189371,2051
1630588189375,2050
1630588189379,2049
1630588189383,2049
1630588189387,2049
1630588189391,2050
1630588189395,2050
1630588189399,2049
1630588189403,2049
1630588189407,2048
1630588189411,2049
1630588189415,2049
1630588189419,2050
1630588189423,2050
1630588189427,2050
1630588189431,2050
1630588189435,2049
1630588189439,2049
1630588189443,2049
1630588189447,2049
1630588189451,2049
1630588189455,2050
1630588189459,2051
1630588189463,2051
1630588189467,2051
1630588189471,2051
1630588189475,2050
1630588189479,2050
1630588189483,2050
1630588189487,2050
1630588189491,2050
1630588189495,2050
1630588189499,2050
1630588189503,2051
1630588189507,2052
1630588189511,2052
1630588189515,2053
1630588189519,2052
1630588189523,2051
1630588189527,2050
1630588189531,2050
1630588189535,2050
1630588189539,2050
1630588189543,2051
1630588189547,2051
1630588189551,2051
1630588189555,2051
1630588189559,2049
1630588189563,2048
1630588189567,2048
1630588189571,2048
1630588189575,2049
1630588189579,2050
1630588189583,2051
1630588189587,2051
1630588189591,2050
1630588189595,2049
1630588189599,2048
1630588189603,2048
1630588189607,2049
1630588189611,2050
1630588189615,2050
1630588189619,2051
1630588189623,2051
1630588189627,2051
1630588189631,2050
1630588189635,2050
1630588189639,2049
1630588189643,2049
1630588189647,2049
1630588189651,2049
1630588189655,2049
1630588189659,2049
1630588189663,2050
1630588189667,2050
1630588189671,2050
1630588189675,2050
1630588189679,2050
1630588189683,2049
1630588189687,2050
1630588189691,2050
1630588189695,2051
1630588189699,2051
1630588189703,2050
1630588189707,2049
1630588189711,2048
1630588189715,2048
1630588189719,2049
1630588189723,2049
1630588189727,2049
1630588189731,2049
1630588189735,2050
1630588189739,2050
1630588189743,2051
1630588189747,2052
1630588189751,2053
1630588189755,2053
1630588189759,2054
1630588189763,2054
1630588189767,2055
1630588189771,2056
1630588189775,2058
1630588189779,2059
1630588189783,2060
1630588189787,2060
1630588189791,2059
1630588189795,2058
1630588189799,2056
1630588189803,2055
1630588189807,2055
1630588189811,2054
1630588189815,2054
1630588189819,2053
1630588189823,2051
1630588189827,2050
1630588189831,2049
1630588189835,2049
1630588189839,2048
1630588189843,2048
1630588189847,2048
1630588189851,2048
1630588189855,2048
1630588189859,2048
1630588189863,2048
1630588189867,2049
1630588189871,2048
1630588189875,2048
1630588189879,2048
1630588189883,2048
1630588189887,2048
1630588189891,2047
1630588189895,2047
1630588189899,2046
1630588189903,2045
1630588189907,2046
1630588189911,2048
1630588189915,2054
1630588189919,2067
1630588189923,2087
1630588189927,2111
1630588189931,2132
1630588189935,2141
1630588189939,2131
1630588189943,2102
1630588189947,2064
1630588189951,2030
1630588189955,2006
1630588189959,1996
1630588189963,1997
1630588189967,2004
1630588189971,2012
1630588189975,2020
1630588189979,2027
1630588189983,2033
1630588189987,2037
1630588189991,2040
1630588189995,2042
1630588189999,2043
1630588190003,2044
1630588190007,2045
1630588190011,2046
1630588190015,2048
1630588190019,2048
1630588190023,2050
1630588190027,2051
1630588190031,2051
1630588190035,2051
1630588190039,2050
1630588190043,2050
1630588190047,2050
1630588190051,2051
1630588190055,2051
1630588190059,2052
1630588190063,2052
1630588190067,2053
1630588190071,2053
1630588190075,2053
1630588190079,2053
1630588190083,2053
1630588190087,2054
1630588190091,2054
1630588190095,2055
1630588190099,2055
1630588190103,2056
1630588190107,2056
1630588190111,2056
1630588190115,2057
1630588190119,2058
1630588190123,2059
1630588190127,2060
1630588190131,2060
1630588190135,2061
1630588190139,2061
1630588190143,2062
1630588190147,2063
1630588190151,2064
1630588190155,2064
1630588190159,2064
1630588190163,2064
1630588190167,2064
1630588190171,2064
1630588190175,2064
1630588190179,2065
1630588190183,2065
1630588190187,2066
1630588190191,2066
1630588190195,2065
1630588190199,2064
1630588190203,2062
1630588190207,2062
1630588190211,2062
1630588190215,2062
1630588190219,2062
1630588190223,2061
1630588190227,2059
1630588190231,2058
1630588190235,2057
1630588190239,2055
1630588190243,2054
1630588190247,2053
1630588190251,2052
1630588190255,2052
1630588190259,2051
1630588190263,2051
1630588190267,2050
1630588190271,2049
1630588190275,2048
1630588190279,2047
1630588190283,2046
1630588190287,2046
1630588190291,2047
1630588190295,2047
1630588190299,2047
1630588190303,2047
1630588190307,2047
1630588190311,2046
1630588190315,2046
1630588190319,2046
1630588190323,2045
1630588190327,2045
1630588190331,2046
1630588190335,2046
1630588190339,2047
1630588190343,2047
1630588190347,2047
1630588190351,2047
1630588190355,2047
1630588190359,2047
1630588190363,2047
1630588190367,2047
1630588190371,2047
1630588190375,2048
1630588190379,2048
1630588190383,2048
1630588190387,2048
1630588190391,2047
1630588190395,2047
1630588190399,2046
1630588190403,2047
1630588190407,2047
1630588190411,2048
1630588190415,2048
1630588190419,2048
1630588190423,2048
1630588190427,2048
1630588190431,2047
1630588190435,2047
1630588190439,2047
1630588190443,2046
1630588190447,2046
1630588190451,2046
1630588190455,2046
1630588190459,2046
1630588190463,2046
1630588190467,2046
1630588190471,2046
1630588190475,2046
1630588190479,2045
1630588190483,2045
1630588190487,2045
1630588190491,2045
1630588190495,2046
1630588190499,2046
1630588190503,2047
1630588190507,2047
1630588190511,2046
1630588190515,2046
1630588190519,2046
1630588190523,2045
1630588190527,2045
1630588190531,2046
1630588190535,2046
1630588190539,2046
1630588190543,2046
1630588190547,2046
1630588190551,2046
1630588190555,2046
1630588190559,2046
1630588190563,2046
1630588190567,2046
1630588190571,2046
1630588190575,2046
1630588190579,2046
1630588190583,2046
1630588190587,2046
1630588190591,2047
1630588190595,2047
1630588190599,2046
1630588190603,2046
1630588190607,2046
1630588190611,2046
1630588190615,2047
1630588190619,2047
1630588190623,2047
1630588190627,2048
1630588190631,2048
1630588190635,2048
1630588190639,2048
1630588190643,2049
1630588190647,2050
1630588190651,2051
1630588190655,2052
1630588190659,2052
1630588190663,2053
1630588190667,2054
1630588190671,2055
1630588190675,2055
1630588190679,2054
1630588190683,2053
1630588190687,2052
1630588190691,2050
1630588190695,2050
1630588190699,2050
1630588190703,2050
1630588190707,2048
1630588190711,2047
1630588190715,2046
1630588190719,2044
1630588190723,2044
1630588190727,2045
1630588190731,2047
1630588190735,2048
1630588190739,2048
1630588190743,2047
1630588190747,2046
1630588190751,2046
1630588190755,2045
1630588190759,2045
1630588190763,2045
1630588190767,2046
1630588190771,2046
1630588190775,2046
1630588190779,2045
1630588190783,2044
1630588190787,2044
1630588190791,2044
1630588190795,2048
1630588190799,2055
1630588190803,2070
1630588190807,2093
1630588190811,2118
1630588190815,2137
1630588190819,2140
1630588190823,2121
1630588190827,2086
1630588190831,2046
1630588190835,2011
1630588190839,1991
1630588190843,1986
1630588190847,1992
1630588190851,2000
1630588190855,2009
1630588190859,2016
1630588190863,2022
1630588190867,2028
1630588190871,2032
1630588190875,2035
1630588190879,2037
1630588190883,2039
1630588190887,2041
1630588190891,2044
1630588190895,2047
1630588190899,2048
1630588190903,2049
1630588190907,2049
1630588190911,2049
1630588190915,2049
1630588190919,2049
1630588190923,2050
1630588190927,2050
1630588190931,2050
1630588190935,2050
1630588190939,2050
1630588190943,2051
1630588190947,2053
1630588190951,2054
1630588190955,2055
1630588190959,2056
1630588190963,2057
1630588190967,2056
1630588190971,2056
1630588190975,2056
1630588190979,2056
1630588190983,2057
1630588190987,2059
1630588190991,2059
1630588190995,2060
1630588190999,2060
1630588191003,2060
1630588191007,2061
1630588191011,2062
1630588191015,2064
1630588191019,2065
1630588191023,2065
1630588191027,2066
1630588191031,2066
1630588191035,2066
1630588191039,2066
1630588191043,2066
1630588191047,2066
1630588191051,2066
1630588191055,2067
1630588191059,2067
1630588191063,2068
1630588191067,2068
1630588191071,2068
1630588191075,2067
1630588191079,2066
1630588191083,2066
1630588191087,2066
1630588191091,2066
1630588191095,2067
1630588191099,2066
1630588191103,2066
1630588191107,2064
1630588191111,2063
1630588191115,2062
1630588191119,2060
1630588191123,2059
1630588191127,2057
1630588191131,2056
1630588191135,2055
1630588191139,2053
1630588191143,2052
1630588191147,2051
1630588191151,2050
1630588191155,2050
1630588191159,2049
1630588191163,2049
1630588191167,2048
1630588191171,2048
1630588191175,2048
1630588191179,2048
1630588191183,2048
1630588191187,2048
1630588191191,2048
1630588191195,2048
1630588191199,2047
1630588191203,2047
1630588191207,2048
1630588191211,2048
1630588191215,2049
1630588191219,2048
1630588191223,2048
1630588191227,2048
1630588191231,2048
1630588191235,2048
1630588191239,2048
1630588191243,2049
1630588191247,2049
1630588191251,2050
1630588191255,2050
1630588191259,2050
1630588191263,2051
1630588191267,2051
1630588191271,2051
1630588191275,2050
1630588191279,2050
1630588191283,2049
1630588191287,2049
1630588191291,2049
1630588191295,2050
1630588191299,2050
1630588191303,2050
1630588191307,2050
1630588191311,2050
1630588191315,2049
1630588191319,2048
1630588191323,2048
1630588191327,2048
1630588191331,2048
1630588191335,2049
1630588191339,2049
1630588191343,2049
1630588191347,2048
1630588191351,2048
1630588191355,2048
1630588191359,2048
1630588191363,2048
1630588191367,2048
1630588191371,2049
1630588191375,2049
1630588191379,2049
1630588191383,2049
1630588191387,2048
1630588191391,2048
1630588191395,2048
1630588191399,2048
1630588191403,2048
1630588191407,2048
1630588191411,2048
1630588191415,2049
1630588191419,2050
1630588191423,2050
1630588191427,2050
1630588191431,2050
1630588191435,2049
1630588191439,2049
1630588191443,2049
1630588191447,2049
1630588191451,2049
1630588191455,2049
1630588191459,2049
1630588191463,2048
1630588191467,2048
1630588191471,2048
1630588191475,2049
1630588191479,2050
1630588191483,2052
1630588191487,2054
1630588191491,2055
1630588191495,2056
1630588191499,2056
1630588191503,2056
1630588191507,2057
1630588191511,2057
1630588191515,2057
1630588191519,2057
1630588191523,2056
1630588191527,2056
1630588191531,2056
1630588191535,2056
1630588191539,2055
1630588191543,2054
1630588191547,2053
1630588191551,2051
1630588191555,2050
1630588191559,2049
1630588191563,2049
1630588191567,2048
1630588191571,2048
1630588191575,2048
1630588191579,2048
1630588191583,2048
1630588191587,2048
1630588191591,2048
1630588191595,2048
1630588191599,2048
1630588191603,2048
1630588191607,2048
1630588191611,2048
1630588191615,2048
1630588191619,2048
1630588191623,2047
1630588191627,2045
1630588191631,2044
1630588191635,2045
1630588191639,2048
1630588191643,2056
1630588191647,2072
1630588191651,2095
1630588191655,2121
1630588191659,2140
1630588191663,2143
1630588191667,2125
1630588191671,2091
1630588191675,2051
1630588191679,2019
1630588191683,1999
1630588191687,1994
1630588191691,1998
1630588191695,2007
1630588191699,2015
1630588191703,2023
1630588191707,2030
1630588191711,2035
1630588191715,2039
1630588191719,2042
1630588191723,2043
1630588191727,2045
1630588191731,2046
1630588191735,2048
1630588191739,2048
1630588191743,2049
1630588191747,2050
1630588191751,2050
1630588191755,2050
1630588191759,2050
1630588191763,2051
1630588191767,2051
1630588191771,2052
1630588191775,2053
1630588191779,2053
1630588191783,2053
1630588191787,2054
1630588191791,2054
1630588191795,2055
1630588191799,2054
1630588191803,2054
1630588191807,2055
1630588191811,2055
1630588191815,2056
1630588191819,2058
1630588191823,2058
1630588191827,2059
1630588191831,2059
1630588191835,2059
1630588191839,2059
1630588191843,2059
1630588191847,2059
1630588191851,2060
1630588191855,2061
1630588191859,2062
1630588191863,2063
1630588191867,2064
1630588191871,2065
1630588191875,2065
1630588191879,2065
1630588191883,2065
1630588191887,2065
1630588191891,2066
1630588191895,2067
1630588191899,2067
1630588191903,2067
1630588191907,2067
1630588191911,2066
1630588191915,2065
1630588191919,2063
1630588191923,2062
1630588191927,2062
1630588191931,2062
1630588191935,2062
1630588191939,2063
1630588191943,2062
1630588191947,2062
1630588191951,2061
1630588191955,2060
1630588191959,2058
1630588191963,2056
1630588191967,2055
1630588191971,2054
1630588191975,2054
1630588191979,2053
1630588191983,2053
1630588191987,2052
1630588191991,2051
1630588191995,2049
1630588191999,2048
1630588192003,2048
1630588192007,2047
1630588192011,2047
1630588192015,2047
1630588192019,2047
1630588192023,2047
1630588192027,2047
1630588192031,2047
1630588192035,2047
1630588192039,2047
1630588192043,2046
1630588192047,2046
1630588192051,2047
1630588192055,2047
1630588192059,2048
1630588192063,2048
1630588192067,2048
1630588192071,2048
1630588192075,2048
1630588192079,2048
1630588192083,2048
1630588192087,2048
1630588192091,2049
1630588192095,2049
1630588192099,2049
1630588192103,2049
1630588192107,2049
1630588192111,2049
1630588192115,2048
1630588192119,2048
1630588192123,2048
1630588192127,2048
1630588192131,2048
1630588192135,2049
1630588192139,2049
1630588192143,2049
1630588192147,2048
1630588192151,2048
1630588192155,2048
1630588192159,2048
1630588192163,2047
1630588192167,2047
1630588192171,2047
1630588192175,2047
1630588192179,2047
1630588192183,2048
1630588192187,2048
1630588192191,2048
1630588192195,2047
1630588192199,2047
1630588192203,2047
1630588192207,2047
1630588192211,2047
1630588192215,2047
1630588192219,2047
1630588192223,2047
1630588192227,2047
1630588192231,2047
1630588192235,2047
1630588192239,2046
1630588192243,2046
1630588192247,2046
1630588192251,2046
1630588192255,2047
1630588192259,2047
1630588192263,2047
1630588192267,2046
1630588192271,2046
1630588192275,2046
1630588192279,2046
1630588192283,2047
1630588192287,2048
1630588192291,2048
1630588192295,2048
1630588192299,2048
1630588192303,2048
1630588192307,2047
1630588192311,2047
1630588192315,2047
1630588192319,2047
1630588192323,2048
1630588192327,2049
1630588192331,2051
1630588192335,2053
1630588192339,2054
1630588192343,2055
1630588192347,2055
1630588192351,2055
1630588192355,2055
1630588192359,2055
1630588192363,2055
1630588192367,2054
1630588192371,2054
1630588192375,2054
1630588192379,2053
1630588192383,2054
1630588192387,2053
1630588192391,2052
1630588192395,2050
1630588192399,2048
1630588192403,2048
1630588192407,2048
1630588192411,2048
1630588192415,2048
1630588192419,2048
1630588192423,2048
1630588192427,2048
1630588192431,2048
1630588192435,2047
1630588192439,2047
1630588192443,2047
1630588192447,2047
1630588192451,2047
1630588192455,2047
1630588192459,2047
1630588192463,2046
1630588192467,2044
1630588192471,2043
1630588192475,2043
1630588192479,2045
1630588192483,2049
1630588192487,2060
1630588192491,2079
1630588192495,2104
1630588192499,2128
1630588192503,2140
1630588192507,2135
1630588192511,2110
1630588192515,2073
1630588192519,2036
1630588192523,2009
1630588192527,1996
1630588192531,1995
1630588192535,2002
1630588192539,2011
1630588192543,2020
1630588192547,2027
1630588192551,2033
1630588192555,2037
1630588192559,2040
1630588192563,2042
1630588192567,2043
1630588192571,2044
1630588192575,2046
1630588192579,2048
1630588192583,2048
1630588192587,2049
1630588192591,2049
1630588192595,2049
1630588192599,2049
1630588192603,2050
1630588192607,2051
1630588192611,2051
1630588192615,2052
1630588192619,2053
1630588192623,2054
1630588192627,2054
1630588192631,2055
1630588192635,2055
1630588192639,2055
1630588192643,2054
1630588192647,2054
1630588192651,2055
1630588192655,2055
1630588192659,2056
1630588192663,2057
1630588192667,2058
1630588192671,2058
1630588192675,2058
1630588192679,2058
1630588192683,2059
1630588192687,2059
1630588192691,2060
1630588192695,2061
1630588192699,2061
1630588192703,2062
1630588192707,2063
1630588192711,2064
1630588192715,2065
1630588192719,2065
1630588192723,2065
1630588192727,2064
1630588192731,2065
1630588192735,2065
1630588192739,2066
1630588192743,2066
1630588192747,2066
1630588192751,2065
1630588192755,2064
1630588192759,2064
1630588192763,2064
1630588192767,2064
1630588192771,2064
1630588192775,2065
1630588192779,2064
1630588192783,2064
1630588192787,2064
1630588192791,2062
1630588192795,2061
1630588192799,2059
1630588192803,2058
1630588192807,2057
1630588192811,2055
1630588192815,2055
1630588192819,2054
1630588192823,2053
1630588192827,2053
1630588192831,2052
1630588192835,2051
1630588192839,2049
1630588192843,2048
1630588192847,2048
1630588192851,2048
1630588192855,2048
1630588192859,2048
1630588192863,2049
1630588192867,2049
1630588192871,2049
1630588192875,2049
1630588192879,2048
1630588192883,2048
1630588192887,2048
1630588192891,2047
1630588192895,2048
1630588192899,2049
1630588192903,2049
1630588192907,2050
1630588192911,2050
1630588192915,2050
1630588192919,2049
1630588192923,2049
1630588192927,2049
1630588192931,2049
1630588192935,2049
1630588192939,2049
1630588192943,2050
1630588192947,2050
1630588192951,2050
1630588192955,2050
1630588192959,2049
1630588192963,2049
1630588192967,2048
1630588192971,2048
1630588192975,2049
1630588192979,2050
1630588192983,2051
1630588192987,2051
1630588192991,2051
1630588192995,2050
1630588192999,2049
1630588193003,2049
1630588193007,2048
1630588193011,2048
1630588193015,2049
1630588193019,2049
1630588193023,2049
1630588193027,2049
1630588193031,2049
1630588193035,2049
1630588193039,2048
1630588193043,2048
1630588193047,2048
1630588193051,2047
1630588193055,2048
1630588193059,2048
1630588193063,2048
1630588193067,2048
1630588193071,2048
1630588193075,2048
1630588193079,2047
1630588193083,2047
1630588193087,2047
1630588193091,2047
1630588193095,2048
1630588193099,2048
1630588193103,2048
1630588193107,2049
1630588193111,2048
1630588193115,2048
1630588193119,2048
1630588193123,2049
1630588193127,2049
1630588193131,2050
1630588193135,2050
1630588193139,2051
1630588193143,2051
1630588193147,2051
1630588193151,2050
1630588193155,2050
1630588193159,2050
1630588193163,2051
1630588193167,2053
1630588193171,2054
1630588193175,2056
1630588193179,2057
1630588193183,2058
1630588193187,2058
1630588193191,2058
1630588193195,2059
1630588193199,2058
1630588193203,2057
1630588193207,2055
1630588193211,2054
1630588193215,2055
1630588193219,2055
1630588193223,2054
1630588193227,2053
1630588193231,2052
1630588193235,2050
1630588193239,2048
1630588193243,2048
1630588193247,2048
1630588193251,2048
1630588193255,2048
1630588193259,2048
1630588193263,2049
1630588193267,2049
1630588193271,2049
1630588193275,2049
1630588193279,2048
1630588193283,2048
1630588193287,2048
1630588193291,2048
1630588193295,2048
1630588193299,2048
1630588193303,2048
1630588193307,2047
1630588193311,2046
1630588193315,2046
1630588193319,2048
1630588193323,2055
1630588193327,2069
1630588193331,2089
1630588193335,2112
1630588193339,2130
1630588193343,2133
1630588193347,2117
1630588193351,2086
1630588193355,2048
1630588193359,2017
1630588193363,1997
1630588193367,1992
1630588193371,1996
1630588193375,2005
1630588193379,2013
1630588193383,2021
1630588193387,2028
1630588193391,2034
1630588193395,2038
1630588193399,2041
1630588193403,2043
1630588193407,2045
1630588193411,2046
1630588193415,2048
1630588193419,2048
1630588193423,2049
1630588193427,2049
1630588193431,2049
1630588193435,2049
1630588193439,2049
1630588193443,2049
1630588193447,2050
1630588193451,2052
1630588193455,2053
1630588193459,2053
1630588193463,2054
1630588193467,2054
1630588193471,2053
1630588193475,2053
1630588193479,2053
1630588193483,2053
1630588193487,2053
1630588193491,2054
1630588193495,2055
1630588193499,2056
1630588193503,2057
1630588193507,2057
1630588193511,2057
1630588193515,2057
1630588193519,2057
1630588193523,2058
1630588193527,2059
1630588193531,2060
1630588193535,2061
1630588193539,2062
1630588193543,2063
1630588193547,2064
1630588193551,2064
1630588193555,2065
1630588193559,2065
1630588193563,2065
1630588193567,2065
1630588193571,2065
1630588193575,2065
1630588193579,2065
1630588193583,2066
1630588193587,2067
1630588193591,2067
1630588193595,2067
1630588193599,2066
1630588193603,2065
1630588193607,2065
1630588193611,2066
1630588193615,2066
1630588193619,2066
1630588193623,2066
1630588193627,2064
1630588193631,2062
1630588193635,2061
1630588193639,2060
1630588193643,2060
1630588193647,2059
1630588193651,2058
1630588193655,2056
1630588193659,2054
1630588193663,2052
1630588193667,2051
1630588193671,2051
1630588193675,2052
1630588193679,2052
1630588193683,2051
1630588193687,2050
1630588193691,2049
1630588193695,2048
1630588193699,2048
1630588193703,2048
1630588193707,2048
1630588193711,2048
1630588193715,2048
1630588193719,2048
1630588193723,2048
1630588193727,2048
1630588193731,2048
1630588193735,2049
1630588193739,2049
1630588193743,2050
1630588193747,2050
1630588193751,2050
1630588193755,2050
1630588193759,2049
1630588193763,2049
1630588193767,2049
1630588193771,2050
1630588193775,2050
1630588193779,2050
1630588193783,2050
1630588193787,2049
1630588193791,2049
1630588193795,2048
1630588193799,2048
1630588193803,2049
1630588193807,2049
1630588193811,2050
1630588193815,2050
1630588193819,2050
1630588193823,2050
1630588193827,2050
1630588193831,2049
1630588193835,2049
1630588193839,2048
1630588193843,2048
1630588193847,2048
1630588193851,2048
1630588193855,2048
1630588193859,2048
1630588193863,2048
1630588193867,2048
1630588193871,2048
1630588193875,2048
1630588193879,2048
1630588193883,2048
1630588193887,2048
1630588193891,2048
1630588193895,2048
1630588193899,2048
1630588193903,2048
1630588193907,2048
1630588193911,2048
1630588193915,2048
1630588193919,2047
1630588193923,2046
1630588193927,2046
1630588193931,2046
1630588193935,2047
1630588193939,2048
1630588193943,2048
1630588193947,2048
1630588193951,2048
1630588193955,2048
1630588193959,2048
1630588193963,2048
1630588193967,2047
1630588193971,2047
1630588193975,2048
1630588193979,2048
1630588193983,2050
1630588193987,2051
1630588193991,2052
1630588193995,2052
1630588193999,2052
1630588194003,2052
1630588194007,2052
1630588194011,2053
1630588194015,2055
1630588194019,2056
1630588194023,2056
1630588194027,2055
1630588194031,2054
1630588194035,2053
1630588194039,2051
1630588194043,2050
1630588194047,2048
1630588194051,2047
1630588194055,2046
1630588194059,2045
1630588194063,2045
1630588194067,2046
1630588194071,2046
1630588194075,2045
1630588194079,2045
1630588194083,2045
1630588194087,2044
1630588194091,2045
1630588194095,2045
1630588194099,2046
1630588194103,2046
1630588194107,2046
1630588194111,2046
1630588194115,2045
1630588194119,2043
1630588194123,2042
1630588194127,2041
1630588194131,2041
1630588194135,2043
1630588194139,2048
1630588194143,2057
1630588194147,2075
1630588194151,2100
1630588194155,2123
1630588194159,2137
1630588194163,2132
1630588194167,2107
1630588194171,2068
1630588194175,2031
1630588194179,2002
1630588194183,1988
1630588194187,1987
1630588194191,1993
1630588194195,2002
1630588194199,2009
1630588194203,2016
1630588194207,2023
1630588194211,2028
1630588194215,2033
1630588194219,2036
1630588194223,2038
1630588194227,2041
1630588194231,2043
1630588194235,2045
1630588194239,2046
1630588194243,2046
1630588194247,2047
1630588194251,2047
1630588194255,2048
