timestamp,green,ir,red
1630588169006,75775,281542,357096
1630588169016,75791,281544,357076
1630588169026,75806,281514,357080
1630588169036,75825,281528,357094
1630588169046,75840,281542,357091
1630588169056,75851,281540,357085
1630588169066,75867,281542,357106
1630588169076,75888,281523,357052
1630588169086,75900,281551,357030
1630588169096,75915,281534,356969
1630588169106,75931,281536,357020
1630588169116,75951,281528,357014
1630588169126,75963,281502,357020
1630588169136,75965,281556,357031
1630588169146,75963,281523,356983
1630588169156,75940,281487,357008
1630588169166,75918,281466,356986
1630588169176,75883,281427,356980
1630588169186,75844,281418,356977
1630588169196,75794,281342,356894
1630588169206,75742,281349,356863
1630588169216,75683,281284,356860
1630588169226,75652,281267,356865
1630588169236,75602,281260,356912
1630588169246,75575,281268,356843
1630588169256,75547,281244,356874
1630588169266,75521,281235,356880
1630588169276,75488,281220,356856
1630588169286,75484,281188,356861
1630588169296,75450,281240,356808
1630588169306,75435,281246,356830
1630588169316,75423,281180,356841
1630588169326,75396,281244,356850
1630588169336,75382,281228,356900
1630588169346,75360,281245,356861
1630588169356,75362,281221,356878
1630588169366,75354,281251,356865
1630588169376,75340,281182,356819
1630588169386,75364,281227,356885
1630588169396,75360,281253,356875
1630588169406,75345,281279,356914
1630588169416,75362,281241,356874
1630588169426,75366,281292,356873
1630588169436,75366,281192,356892
1630588169446,75366,281259,356833
1630588169456,75363,281235,356917
1630588169466,75372,281233,356839
1630588169476,75368,281250,356898
1630588169486,75372,281254,356909
1630588169496,75375,281226,356827
1630588169506,75383,281216,356864
1630588169516,75377,281238,356853
1630588169526,75383,281246,356862
1630588169536,75391,281279,356844
1630588169546,75396,281235,356835
1630588169556,75414,281250,356812
1630588169566,75411,281213,356780
1630588169576,75425,281255,356828
1630588169586,75438,281249,356805
1630588169596,75450,281262,356815
1630588169606,75474,281306,356827
1630588169616,75491,281305,356832
1630588169626,75528,281301,356876
1630588169636,75542,281351,356903
1630588169646,75577,281338,356900
1630588169656,75587,281361,356954
1630588169666,75633,281371,356972
1630588169676,75662,281396,356992
1630588169686,75674,281337,357035
1630588169696,75702,281348,357025
1630588169706,75715,281352,357036
1630588169716,75732,281344,357093
1630588169726,75741,281306,357074
1630588169736,75769,281310,357102
1630588169746,75772,281348,357155
1630588169756,75776,281278,357123
1630588169766,75768,281186,357075
1630588169776,75752,281179,356970
1630588169786,75725,281111,356921
1630588169796,75712,281056,356933
1630588169806,75702,281026,356841
1630588169816,75676,280961,356825
1630588169826,75660,280932,356790
1630588169836,75641,280837,356705
1630588169846,75609,280798,356725
1630588169856,75600,280835,356701
1630588169866,75587,280795,356709
1630588169876,75569,280795,356687
1630588169886,75544,280807,356714
1630588169896,75542,280734,356744
1630588169906,75533,280712,356702
1630588169916,75503,280690,356694
1630588169926,75450,280621,356677
1630588169936,75417,280555,356607
1630588169946,75341,280504,356599
1630588169956,75286,280449,356519
1630588169966,75213,280411,356467
1630588169976,75160,280392,356493
1630588169986,75101,280372,356474
1630588169996,75060,280381,356518
1630588170006,75021,280353,356514
1630588170016,74976,280292,356502
1630588170026,74942,280293,356512
1630588170036,74926,280284,356519
1630588170046,74887,280257,356515
1630588170056,74870,280257,356544
1630588170066,74845,280272,356572
1630588170076,74827,280266,356531
1630588170086,74809,280255,356594
1630588170096,74789,280247,356585
1630588170106,74773,280274,356598
1630588170116,74774,280249,356618
1630588170126,74753,280195,356538
1630588170136,74752,280221,356559
1630588170146,74752,280197,356507
1630588170156,74758,280242,356480
1630588170166,74752,280232,356534
1630588170176,74755,280247,356501
1630588170186,74763,280261,356512
1630588170196,74784,280258,356515
1630588170206,74800,280288,356512
1630588170216,74793,280289,356438
1630588170226,74805,280286,356433
1630588170236,74795,280345,356410
1630588170246,74818,280358,356401
1630588170256,74846,280399,356424
1630588170266,74856,280418,356497
1630588170276,74885,280492,356536
1630588170286,74917,280455,356594
1630588170296,74939,280555,356629
1630588170306,74957,280555,356676
1630588170316,74978,280597,356647
1630588170326,75009,280612,356657
1630588170336,75037,280681,356729
1630588170346,75046,280705,356759
1630588170356,75079,280732,356726
1630588170366,75100,280730,356752
1630588170376,75119,280725,356767
1630588170386,75141,280798,356734
1630588170396,75180,280760,356756
1630588170406,75190,280802,356791
1630588170416,75224,280858,356827
1630588170426,75244,280854,356834
1630588170436,75282,280863,356850
1630588170446,75291,280935,356906
1630588170456,75309,280942,356891
1630588170466,75346,280972,356918
1630588170476,75380,280953,356910
1630588170486,75405,281027,356908
1630588170496,75434,281021,356940
1630588170506,75463,281046,357024
1630588170516,75490,281092,357041
1630588170526,75531,281057,357054
1630588170536,75554,281076,357049
1630588170546,75572,281086,357035
1630588170556,75592,281104,357021
1630588170566,75613,281121,357051
1630588170576,75644,281173,357089
1630588170586,75658,281146,357062
1630588170596,75683,281176,357111
1630588170606,75725,281168,357128
1630588170616,75741,281249,357087
1630588170626,75745,281176,357146
1630588170636,75756,281211,357094
1630588170646,75755,281201,357058
1630588170656,75747,281190,357115
1630588170666,75743,281132,357048
1630588170676,75728,281111,357122
1630588170686,75688,281109,357053
1630588170696,75679,281045,356986
1630588170706,75627,281040,357000
1630588170716,75596,280992,357003
1630588170726,75573,280975,356994
1630588170736,75545,280957,356942
1630588170746,75533,280939,356947
1630588170756,75525,280996,356950
1630588170766,75503,280988,356952
1630588170776,75494,280956,356948
1630588170786,75471,280947,356923
1630588170796,75493,280955,356937
1630588170806,75482,280984,356915
1630588170816,75472,280932,356936
1630588170826,75474,280977,356935
1630588170836,75462,280951,356949
1630588170846,75453,280938,356940
1630588170856,75475,280988,356997
1630588170866,75487,280957,356968
1630588170876,75472,280973,356945
1630588170886,75484,280966,356945
1630588170896,75490,281027,356952
1630588170906,75518,281027,356886
1630588170916,75535,281061,356976
1630588170926,75546,281086,357040
1630588170936,75564,281100,357027
1630588170946,75566,281124,357054
1630588170956,75576,281110,357008
1630588170966,75581,281104,357060
1630588170976,75592,281159,357019
1630588170986,75608,281177,357100
1630588170996,75624,281187,357097
1630588171006,75649,281217,357095
1630588171016,75666,281261,357117
1630588171026,75692,281247,357140
1630588171036,75700,281268,357119
1630588171046,75705,281268,357092
1630588171056,75744,281297,357147
1630588171066,75739,281335,357134
1630588171076,75745,281345,357122
1630588171086,75775,281396,357146
1630588171096,75786,281404,357187
1630588171106,75807,281476,357169
1630588171116,75823,281504,357243
1630588171126,75848,281494,357224
1630588171136,75887,281611,357288
1630588171146,75924,281657,357298
1630588171156,75955,281666,357324
1630588171166,75991,281754,357329
1630588171176,76020,281825,357377
1630588171186,76068,281799,357439
1630588171196,76108,281818,357398
1630588171206,76159,281858,357406
1630588171216,76183,281894,357435
1630588171226,76206,281846,357470
1630588171236,76231,281917,357487
1630588171246,76278,281964,357460
1630588171256,76309,281975,357509
1630588171266,76337,281969,357520
1630588171276,76355,281997,357529
1630588171286,76387,281970,357510
1630588171296,76409,281998,357504
1630588171306,76456,282019,357571
1630588171316,76492,281991,357575
1630588171326,76498,281975,357589
1630588171336,76515,281981,357560
1630588171346,76486,281881,357524
1630588171356,76478,281840,357439
1630588171366,76455,281860,357454
1630588171376,76443,281820,357479
1630588171386,76429,281785,357461
1630588171396,76410,281746,357479
1630588171406,76383,281698,357422
1630588171416,76341,281702,357414
1630588171426,76284,281612,357322
1630588171436,76239,281509,357308
1630588171446,76193,281503,357230
1630588171456,76164,281488,357228
1630588171466,76138,281499,357249
1630588171476,76128,281476,357251
1630588171486,76106,281452,357219
1630588171496,76090,281432,357229
1630588171506,76043,281416,357159
1630588171516,76040,281326,357109
1630588171526,76009,281325,357060
1630588171536,75980,281263,357005
1630588171546,75967,281317,357045
1630588171556,75970,281286,357082
1630588171566,75984,281309,357104
1630588171576,75991,281272,357081
1630588171586,75989,281318,357098
1630588171596,76003,281269,357101
1630588171606,75974,281245,357064
1630588171616,75962,281209,356963
1630588171626,75965,281185,356958
1630588171636,75963,281147,356952
1630588171646,75971,281096,356992
1630588171656,75987,281050,356935
1630588171666,75995,281012,356890
1630588171676,75989,280962,356834
1630588171686,75968,280956,356831
1630588171696,75981,280895,356761
1630588171706,75958,280835,356742
1630588171716,75954,280766,356670
1630588171726,75952,280735,356652
1630588171736,75957,280688,356632
1630588171746,75951,280700,356588
1630588171756,75940,280667,356620
1630588171766,75940,280650,356586
1630588171776,75950,280641,356602
1630588171786,75951,280638,356578
1630588171796,75964,280655,356523
1630588171806,75971,280656,356558
1630588171816,75987,280664,356567
1630588171826,75991,280635,356593
1630588171836,76003,280653,356556
1630588171846,76008,280643,356565
1630588171856,76028,280726,356582
1630588171866,76028,280653,356549
1630588171876,76047,280719,356551
1630588171886,76064,280689,356544
1630588171896,76047,280695,356535
1630588171906,76070,280721,356579
1630588171916,76084,280695,356556
1630588171926,76086,280697,356530
1630588171936,76109,280747,356524
1630588171946,76117,280754,356565
1630588171956,76140,280761,356581
1630588171966,76148,280843,356563
1630588171976,76171,280868,356604
1630588171986,76195,280836,356587
1630588171996,76211,280874,356594
1630588172006,76236,280865,356602
1630588172016,76263,280898,356580
1630588172026,76260,280930,356644
1630588172036,76285,280899,356616
1630588172046,76283,280898,356620
1630588172056,76277,280922,356633
1630588172066,76266,280919,356608
1630588172076,76236,280881,356572
1630588172086,76214,280877,356595
1630588172096,76175,280873,356588
1630588172106,76134,280844,356562
1630588172116,76105,280849,356610
1630588172126,76089,280845,356599
1630588172136,76069,280823,356629
1630588172146,76044,280849,356624
1630588172156,76026,280792,356566
1630588172166,76004,280833,356610
1630588172176,75977,280830,356574
1630588172186,75967,280844,356600
1630588172196,75941,280822,356544
1630588172206,75940,280848,356568
1630588172216,75924,280788,356554
1630588172226,75913,280812,356556
1630588172236,75914,280841,356539
1630588172246,75899,280866,356566
1630588172256,75911,280891,356557
1630588172266,75900,280873,356571
1630588172276,75905,280882,356635
1630588172286,75921,280903,356627
1630588172296,75932,280930,356587
1630588172306,75934,280919,356614
1630588172316,75962,280979,356646
1630588172326,75968,280957,356673
1630588172336,75991,281022,356633
1630588172346,76008,281007,356726
1630588172356,76025,281001,356681
1630588172366,76030,281043,356664
1630588172376,76051,281049,356689
1630588172386,76069,281024,356678
1630588172396,76085,281070,356702
1630588172406,76086,281101,356657
1630588172416,76110,281063,356665
1630588172426,76104,281055,356673
1630588172436,76127,281080,356712
1630588172446,76123,281086,356697
1630588172456,76143,281140,356767
1630588172466,76158,281155,356778
1630588172476,76170,281159,356814
1630588172486,76193,281198,356821
1630588172496,76221,281175,356790
1630588172506,76239,281207,356867
1630588172516,76242,281232,356838
1630588172526,76281,281289,356886
1630588172536,76297,281295,356886
1630588172546,76324,281319,356905
1630588172556,76351,281336,356911
1630588172566,76355,281337,356961
1630588172576,76374,281358,356934
1630588172586,76389,281363,356963
1630588172596,76404,281445,356969
1630588172606,76435,281439,356954
1630588172616,76446,281442,357028
1630588172626,76493,281421,357010
1630588172636,76507,281488,357025
1630588172646,76533,281476,357052
1630588172656,76552,281493,357033
1630588172666,76576,281532,357047
1630588172676,76580,281564,357062
1630588172686,76603,281572,357054
1630588172696,76635,281569,357053
1630588172706,76668,281630,357095
1630588172716,76685,281636,357126
1630588172726,76687,281635,357145
1630588172736,76714,281644,357112
1630588172746,76718,281619,357135
1630588172756,76705,281612,357107
1630588172766,76692,281589,357094
1630588172776,76666,281544,357084
1630588172786,76637,281539,357033
1630588172796,76596,281491,357094
1630588172806,76550,281441,357081
1630588172816,76507,281473,357056
1630588172826,76477,281478,357068
1630588172836,76444,281461,357046
1630588172846,76404,281400,357019
1630588172856,76378,281444,356995
1630588172866,76365,281431,357004
1630588172876,76342,281440,357025
1630588172886,76325,281440,357052
1630588172896,76298,281383,357042
1630588172906,76277,281425,357006
1630588172916,76269,281385,357001
1630588172926,76256,281387,357020
1630588172936,76243,281392,357046
1630588172946,76233,281406,356946
1630588172956,76254,281371,357015
1630588172966,76243,281364,357025
1630588172976,76237,281388,357007
1630588172986,76240,281435,357028
1630588172996,76256,281410,357025
1630588173006,76261,281399,357039
1630588173016,76282,281432,357001
1630588173026,76283,281427,357042
1630588173036,76286,281455,357023
1630588173046,76291,281480,357009
1630588173056,76301,281473,357038
1630588173066,76312,281447,357040
1630588173076,76323,281502,357030
1630588173086,76325,281471,357035
1630588173096,76335,281460,357028
1630588173106,76336,281475,357014
1630588173116,76347,281479,357020
1630588173126,76367,281475,357052
1630588173136,76380,281490,357020
1630588173146,76385,281530,357042
1630588173156,76399,281489,357045
1630588173166,76411,281565,357079
1630588173176,76417,281546,357039
1630588173186,76425,281523,357062
1630588173196,76441,281563,357065
1630588173206,76456,281562,357053
1630588173216,76463,281534,357104
1630588173226,76494,281601,357063
1630588173236,76505,281591,357107
1630588173246,76518,281604,357076
1630588173256,76539,281598,357106
1630588173266,76547,281621,357088
1630588173276,76568,281632,357112
1630588173286,76593,281642,357091
1630588173296,76608,281655,357101
1630588173306,76634,281660,357128
1630588173316,76652,281709,357105
1630588173326,76664,281740,357159
1630588173336,76681,281741,357094
1630588173346,76699,281703,357166
1630588173356,76732,281703,357160
1630588173366,76743,281765,357130
1630588173376,76755,281774,357173
1630588173386,76781,281758,357125
1630588173396,76803,281778,357186
1630588173406,76829,281809,357149
1630588173416,76840,281806,357178
1630588173426,76858,281831,357193
1630588173436,76872,281849,357163
1630588173446,76891,281808,357129
1630588173456,76891,281787,357160
1630588173466,76869,281781,357154
1630588173476,76849,281746,357168
1630588173486,76818,281721,357115
1630588173496,76780,281694,357133
1630588173506,76751,281629,357116
1630588173516,76702,281632,357099
1630588173526,76660,281632,357065
1630588173536,76619,281613,357084
1630588173546,76600,281602,357045
1630588173556,76576,281586,357064
1630588173566,76554,281586,357054
1630588173576,76530,281606,357059
1630588173586,76511,281572,357080
1630588173596,76487,281554,357052
1630588173606,76468,281518,357037
1630588173616,76454,281587,357019
1630588173626,76443,281554,357031
1630588173636,76425,281557,357061
1630588173646,76415,281569,357003
1630588173656,76400,281577,356992
1630588173666,76382,281546,357013
1630588173676,76400,281523,357018
1630588173686,76396,281576,357063
1630588173696,76396,281570,356971
1630588173706,76413,281589,356981
1630588173716,76424,281607,357024
1630588173726,76434,281567,356999
1630588173736,76442,281582,357000
1630588173746,76447,281600,357033
1630588173756,76453,281603,357008
1630588173766,76467,281597,357030
1630588173776,76477,281597,357043
1630588173786,76495,281595,357025
1630588173796,76504,281578,357017
1630588173806,76502,281642,356998
1630588173816,76516,281657,357027
1630588173826,76510,281613,356994
1630588173836,76522,281618,357040
1630588173846,76545,281604,357057
1630588173856,76548,281650,357042
1630588173866,76564,281676,357083
1630588173876,76564,281690,357065
1630588173886,76574,281693,357074
1630588173896,76583,281648,357051
1630588173906,76600,281691,357068
1630588173916,76615,281703,357139
1630588173926,76638,281740,357074
1630588173936,76647,281726,357096
1630588173946,76673,281741,357119
1630588173956,76690,281755,357112
1630588173966,76692,281739,357102
1630588173976,76720,281794,357131
1630588173986,76720,281736,357115
1630588173996,76749,281806,357082
1630588174006,76756,281820,357113
1630588174016,76776,281813,357080
1630588174026,76806,281771,357103
1630588174036,76809,281790,357077
1630588174046,76822,281829,357160
1630588174056,76855,281836,357125
1630588174066,76859,281849,357128
1630588174076,76892,281890,357143
1630588174086,76919,281889,357120
1630588174096,76944,281874,357191
1630588174106,76950,281873,357186
1630588174116,76976,281910,357154
1630588174126,76974,281943,357161
1630588174136,77018,281948,357184
1630588174146,77020,281956,357149
1630588174156,77039,281901,357196
1630588174166,77048,281926,357205
1630588174176,77038,281901,357159
1630588174186,77018,281879,357157
1630588174196,76975,281861,357063
1630588174206,76945,281802,357155
1630588174216,76896,281806,357129
1630588174226,76854,281793,357092
1630588174236,76817,281735,357114
1630588174246,76763,281705,357093
1630588174256,76743,281744,357097
1630588174266,76700,281710,357093
1630588174276,76674,281678,357031
1630588174286,76670,281668,357039
1630588174296,76610,281646,357052
1630588174306,76590,281664,357051
1630588174316,76578,281636,357007
1630588174326,76539,281663,357023
1630588174336,76555,281632,357026
1630588174346,76536,281626,357032
1630588174356,76518,281614,357016
1630588174366,76508,281638,357005
1630588174376,76498,281622,357027
1630588174386,76494,281592,356995
1630588174396,76488,281640,357019
1630588174406,76510,281608,357031
1630588174416,76504,281679,357004
1630588174426,76516,281661,357042
1630588174436,76528,281645,357029
1630588174446,76520,281695,357034
1630588174456,76536,281691,357041
1630588174466,76538,281694,356996
1630588174476,76552,281661,357016
1630588174486,76560,281666,357045
1630588174496,76570,281665,357013
1630588174506,76562,281678,357034
1630588174516,76577,281701,357057
1630588174526,76586,281712,357035
1630588174536,76583,281727,357049
1630588174546,76599,281721,357041
1630588174556,76610,281709,357065
1630588174566,76609,281725,357059
1630588174576,76636,281781,357089
1630588174586,76650,281719,357075
1630588174596,76665,281713,357033
1630588174606,76671,281753,357058
1630588174616,76689,281763,357064
1630588174626,76688,281814,357091
1630588174636,76723,281778,357084
1630588174646,76712,281767,357093
1630588174656,76743,281764,357127
1630588174666,76765,281816,357080
1630588174676,76775,281833,357091
1630588174686,76777,281823,357118
1630588174696,76796,281860,357078
1630588174706,76821,281845,357082
1630588174716,76831,281860,357064
1630588174726,76852,281865,357121
1630588174736,76862,281888,357124
1630588174746,76900,281933,357074
1630588174756,76899,281897,357151
1630588174766,76937,281968,357187
1630588174776,76948,281956,357158
1630588174786,76979,281964,357142
1630588174796,76979,281980,357160
1630588174806,77006,281972,357183
1630588174816,77024,281998,357144
1630588174826,77048,281997,357198
1630588174836,77055,281990,357156
1630588174846,77098,281980,357184
1630588174856,77113,282035,357166
1630588174866,77124,282018,357150
1630588174876,77141,282052,357170
1630588174886,77163,282073,357192
1630588174896,77179,282057,357165
1630588174906,77189,282039,357195
1630588174916,77164,282024,357199
1630588174926,77147,282027,357199
1630588174936,77127,281989,357161
1630588174946,77078,281927,357141
1630588174956,77056,281936,357163
1630588174966,77010,281934,357147
1630588174976,76980,281886,357125
1630588174986,76904,281877,357143
1630588174996,76896,281859,357082
1630588175006,76858,281888,357083
1630588175016,76841,281882,357080
1630588175026,76819,281851,357102
1630588175036,76803,281873,357083
1630588175046,76770,281814,357084
1630588175056,76768,281848,357077
1630588175066,76755,281845,357065
1630588175076,76746,281856,357075
1630588175086,76745,281838,357080
1630588175096,76730,281833,357081
1630588175106,76727,281796,357081
1630588175116,76722,281863,357088
1630588175126,76731,281855,357092
1630588175136,76733,281852,357098
1630588175146,76736,281876,357140
1630588175156,76757,281889,357077
1630588175166,76758,281937,357149
1630588175176,76763,281873,357123
1630588175186,76767,281915,357056
1630588175196,76787,281898,357119
1630588175206,76787,281878,357121
1630588175216,76789,281901,357120
1630588175226,76807,281917,357149
1630588175236,76799,281954,357130
1630588175246,76801,281918,357122
1630588175256,76826,281910,357129
1630588175266,76821,281928,357156
1630588175276,76827,281924,357173
1630588175286,76821,281952,357140
1630588175296,76850,281924,357116
1630588175306,76843,281946,357135
1630588175316,76850,281946,357129
1630588175326,76874,281974,357132
1630588175336,76877,281961,357155
1630588175346,76881,281995,357166
1630588175356,76907,281960,357164
1630588175366,76926,281963,357150
1630588175376,76916,281997,357166
1630588175386,76946,281977,357173
1630588175396,76943,282009,357164
1630588175406,76969,282015,357162
1630588175416,76987,282042,357202
1630588175426,76978,282037,357180
1630588175436,76995,282018,357175
1630588175446,77016,282041,357159
1630588175456,77035,282047,357211
1630588175466,77037,282078,357184
1630588175476,77066,282082,357183
1630588175486,77067,282088,357186
1630588175496,77083,282106,357198
1630588175506,77098,282119,357185
1630588175516,77120,282114,357176
1630588175526,77134,282081,357204
1630588175536,77148,282133,357184
1630588175546,77166,282138,357224
1630588175556,77186,282119,357208
1630588175566,77222,282109,357257
1630588175576,77228,282150,357265
1630588175586,77245,282188,357235
1630588175596,77263,282185,357202
1630588175606,77272,282165,357204
1630588175616,77297,282169,357201
1630588175626,77305,282183,357256
1630588175636,77285,282180,357197
1630588175646,77283,282145,357184
1630588175656,77269,282125,357212
1630588175666,77220,282096,357200
1630588175676,77181,282060,357177
1630588175686,77142,282061,357144
1630588175696,77098,282037,357138
1630588175706,77060,282030,357155
1630588175716,77016,281995,357095
1630588175726,76999,281947,357150
1630588175736,76962,281909,357120
1630588175746,76955,281967,357105
1630588175756,76907,281958,357056
1630588175766,76900,281947,357146
1630588175776,76883,281951,357129
1630588175786,76867,281887,357078
1630588175796,76847,281892,357073
1630588175806,76835,281899,357076
1630588175816,76824,281897,357050
1630588175826,76806,281906,357073
1630588175836,76796,281929,357084
1630588175846,76795,281923,357063
1630588175856,76812,281917,357074
1630588175866,76804,281910,357069
1630588175876,76803,281926,357103
1630588175886,76824,281937,357045
1630588175896,76824,281949,357075
1630588175906,76848,281973,357108
1630588175916,76838,281943,357065
1630588175926,76838,281926,357108
1630588175936,76841,281945,357051
1630588175946,76838,281970,357078
1630588175956,76842,281965,357114
1630588175966,76855,281980,357073
1630588175976,76870,281980,357081
1630588175986,76853,281983,357074
1630588175996,76876,281989,357088
1630588176006,76868,281993,357054
1630588176016,76879,281989,357080
1630588176026,76889,281966,357054
1630588176036,76905,282003,357099
1630588176046,76905,282023,357044
1630588176056,76913,281984,357059
1630588176066,76917,282012,357054
1630588176076,76928,282044,357081
1630588176086,76941,282014,357092
1630588176096,76949,282055,357108
1630588176106,76964,282032,357086
1630588176116,76976,282063,357057
1630588176126,76986,282060,357123
1630588176136,77004,282034,357056
1630588176146,77013,282051,357072
1630588176156,77015,282111,357107
1630588176166,77036,282093,357096
1630588176176,77049,282135,357118
1630588176186,77061,282128,357079
1630588176196,77073,282122,357118
1630588176206,77089,282130,357086
1630588176216,77108,282100,357119
1630588176226,77106,282138,357107
1630588176236,77130,282169,357114
1630588176246,77122,282126,357110
1630588176256,77158,282164,357102
1630588176266,77181,282177,357178
1630588176276,77200,282202,357094
1630588176286,77211,282260,357143
1630588176296,77242,282217,357126
1630588176306,77252,282230,357171
1630588176316,77270,282266,357173
1630588176326,77288,282261,357128
1630588176336,77302,282252,357143
1630588176346,77314,282291,357143
1630588176356,77335,282248,357128
1630588176366,77343,282307,357167
1630588176376,77346,282269,357159
1630588176386,77330,282256,357143
1630588176396,77310,282214,357114
1630588176406,77283,282205,357141
1630588176416,77234,282178,357115
1630588176426,77184,282095,357073
1630588176436,77159,282072,357104
1630588176446,77098,282072,357067
1630588176456,77041,282065,357060
1630588176466,77018,282051,357100
1630588176476,76972,282010,357086
1630588176486,76937,282040,357048
1630588176496,76915,281992,357039
1630588176506,76875,281970,357032
1630588176516,76849,281978,357036
1630588176526,76841,281995,357042
1630588176536,76806,281926,357054
1630588176546,76801,281955,357053
1630588176556,76773,281928,356999
1630588176566,76747,281937,356970
1630588176576,76746,281953,357038
1630588176586,76739,281908,357002
1630588176596,76734,281940,357011
1630588176606,76726,281959,356970
1630588176616,76739,281962,356953
1630588176626,76740,281933,356996
1630588176636,76740,282008,356985
1630588176646,76709,281965,357010
1630588176656,76721,281947,356942
1630588176666,76726,281934,356973
1630588176676,76721,281957,356964
1630588176686,76738,281955,356998
1630588176696,76729,281950,356932
1630588176706,76742,281949,356941
1630588176716,76725,281994,356955
1630588176726,76741,281933,356949
1630588176736,76731,281951,356947
1630588176746,76737,281987,356975
1630588176756,76750,281998,357015
1630588176766,76733,281980,356990
1630588176776,76761,281962,356984
1630588176786,76743,281939,356971
1630588176796,76760,281920,356956
1630588176806,76764,282001,356963
1630588176816,76772,282017,356997
1630588176826,76780,282009,356947
1630588176836,76786,281977,356974
1630588176846,76798,282009,356937
1630588176856,76800,282026,356964
1630588176866,76813,282023,356944
1630588176876,76825,282015,356963
1630588176886,76831,282026,356998
1630588176896,76837,282064,357011
1630588176906,76845,282040,356979
1630588176916,76867,282087,357006
1630588176926,76887,282101,356997
1630588176936,76877,282075,356989
1630588176946,76900,282061,357006
1630588176956,76918,282081,357032
1630588176966,76935,282091,357005
1630588176976,76944,282135,357010
1630588176986,76957,282122,356999
1630588176996,76967,282123,357030
1630588177006,76987,282138,357007
1630588177016,76990,282143,357044
1630588177026,77029,282164,357023
1630588177036,77038,282175,357028
1630588177046,77045,282154,357021
1630588177056,77057,282201,357025
1630588177066,77078,282196,357017
1630588177076,77101,282215,357044
1630588177086,77122,282165,357035
1630588177096,77138,282172,357018
1630588177106,77138,282194,357082
1630588177116,77136,282231,357047
1630588177126,77153,282256,357069
1630588177136,77155,282190,357070
1630588177146,77136,282158,357060
1630588177156,77110,282175,356987
1630588177166,77070,282071,357009
1630588177176,77019,282089,357023
1630588177186,76993,282031,356954
1630588177196,76939,282018,356962
1630588177206,76894,281987,356917
1630588177216,76841,282006,356925
1630588177226,76798,281977,356903
1630588177236,76745,281953,356926
1630588177246,76714,281933,356902
1630588177256,76686,281976,356939
1630588177266,76674,281912,356896
1630588177276,76628,281903,356889
1630588177286,76608,281921,356900
1630588177296,76570,281899,356886
1630588177306,76563,281904,356825
1630588177316,76542,281863,356853
1630588177326,76528,281851,356907
1630588177336,76516,281865,356883
1630588177346,76513,281862,356839
1630588177356,76509,281859,356838
1630588177366,76503,281888,356864
1630588177376,76509,281846,356856
1630588177386,76514,281846,356851
1630588177396,76509,281897,356846
1630588177406,76510,281884,356881
1630588177416,76513,281910,356888
1630588177426,76501,281895,356841
1630588177436,76506,281877,356895
1630588177446,76504,281898,356890
1630588177456,76509,281932,356849
1630588177466,76515,281911,356860
1630588177476,76515,281897,356839
1630588177486,76512,281916,356870
1630588177496,76505,281916,356865
1630588177506,76526,281909,356884
1630588177516,76529,281894,356840
1630588177526,76547,281907,356848
1630588177536,76536,281917,356852
1630588177546,76523,281893,356857
1630588177556,76529,281952,356890
1630588177566,76559,281919,356862
1630588177576,76560,281910,356894
1630588177586,76564,281908,356879
1630588177596,76563,281956,356839
1630588177606,76572,281953,356874
1630588177616,76586,281956,356861
1630588177626,76597,281940,356851
1630588177636,76611,281984,356894
1630588177646,76614,281981,356914
1630588177656,76621,281976,356866
1630588177666,76651,282005,356862
1630588177676,76648,281984,356917
1630588177686,76668,282011,356876
1630588177696,76685,282008,356869
1630588177706,76687,281989,356903
1630588177716,76709,282039,356929
1630588177726,76716,282029,356903
1630588177736,76724,282063,356921
1630588177746,76740,282050,356943
1630588177756,76770,282098,356930
1630588177766,76772,282098,356947
1630588177776,76782,282084,356940
1630588177786,76797,282071,356936
1630588177796,76808,282099,356912
1630588177806,76829,282128,356916
1630588177816,76839,282131,356974
1630588177826,76859,282111,356914
1630588177836,76876,282148,356922
1630588177846,76910,282169,356953
1630588177856,76901,282127,356943
1630588177866,76935,282161,356960
1630588177876,76933,282154,357006
1630588177886,76957,282159,356976
1630588177896,76951,282160,356923
1630588177906,76940,282148,356952
1630588177916,76897,282068,356967
1630588177926,76857,282062,356942
1630588177936,76815,282042,356959
1630588177946,76767,281993,356887
1630588177956,76721,281952,356889
1630588177966,76674,281967,356881
1630588177976,76635,281986,356898
1630588177986,76604,281938,356865
1630588177996,76567,281952,356858
1630588178006,76524,281923,356883
1630588178016,76500,281909,356882
1630588178026,76481,281921,356814
1630588178036,76446,281892,356839
1630588178046,76445,281878,356818
1630588178056,76419,281823,356827
1630588178066,76407,281838,356791
1630588178076,76379,281879,356804
1630588178086,76358,281866,356802
1630588178096,76343,281831,356787
1630588178106,76349,281872,356833
1630588178116,76343,281875,356796
1630588178126,76348,281830,356788
1630588178136,76353,281871,356795
1630588178146,76365,281838,356753
1630588178156,76346,281834,356817
1630588178166,76341,281825,356788
1630588178176,76355,281867,356809
1630588178186,76356,281877,356805
1630588178196,76359,281851,356775
1630588178206,76360,281826,356815
1630588178216,76346,281888,356824
1630588178226,76332,281865,356803
1630588178236,76351,281849,356766
1630588178246,76352,281887,356743
1630588178256,76334,281871,356803
1630588178266,76330,281878,356754
1630588178276,76336,281869,356779
1630588178286,76342,281882,356746
1630588178296,76336,281867,356775
1630588178306,76336,281902,356780
1630588178316,76358,281898,356794
1630588178326,76354,281886,356752
1630588178336,76364,281921,356799
1630588178346,76371,281852,356813
1630588178356,76378,281902,356736
1630588178366,76378,281895,356786
1630588178376,76389,281875,356728
1630588178386,76390,281868,356760
1630588178396,76412,281927,356763
1630588178406,76406,281912,356799
1630588178416,76428,281919,356707
1630588178426,76433,281943,356785
1630588178436,76437,281929,356779
1630588178446,76444,281946,356776
1630588178456,76456,281941,356758
1630588178466,76484,281971,356822
1630588178476,76488,281972,356821
1630588178486,76495,281985,356732
1630588178496,76519,281998,356796
1630588178506,76518,281975,356788
1630588178516,76531,281976,356793
1630588178526,76549,282028,356804
1630588178536,76577,282031,356826
1630588178546,76574,282105,356803
1630588178556,76600,282044,356829
1630588178566,76609,282073,356806
1630588178576,76623,282056,356795
1630588178586,76641,282097,356849
1630588178596,76639,282066,356832
1630588178606,76657,282059,356782
1630588178616,76662,282063,356821
1630588178626,76670,282098,356804
1630588178636,76667,282031,356813
1630588178646,76662,282011,356821
1630588178656,76636,282015,356823
1630588178666,76577,281981,356778
1630588178676,76531,281965,356771
1630588178686,76504,281926,356767
1630588178696,76445,281953,356783
1630588178706,76407,281893,356711
1630588178716,76347,281880,356743
1630588178726,76323,281864,356708
1630588178736,76276,281814,356748
1630588178746,76231,281805,356707
1630588178756,76195,281820,356692
1630588178766,76175,281822,356690
1630588178776,76137,281810,356687
1630588178786,76122,281779,356690
1630588178796,76114,281752,356681
1630588178806,76079,281784,356662
1630588178816,76070,281799,356648
1630588178826,76043,281748,356634
1630588178836,76031,281759,356644
1630588178846,76025,281762,356634
1630588178856,76007,281762,356663
1630588178866,76011,281786,356661
1630588178876,76019,281781,356664
1630588178886,76017,281780,356615
1630588178896,76016,281767,356655
1630588178906,76014,281789,356661
1630588178916,76017,281773,356679
1630588178926,76008,281791,356628
1630588178936,76004,281786,356651
1630588178946,76003,281742,356668
1630588178956,75993,281720,356711
1630588178966,75994,281793,356637
1630588178976,76002,281775,356643
1630588178986,76011,281747,356664
1630588178996,76001,281760,356627
1630588179006,76012,281780,356634
1630588179016,75994,281784,356645
1630588179026,76002,281774,356652
1630588179036,75998,281817,356682
1630588179046,76002,281726,356646
1630588179056,75992,281804,356629
1630588179066,76008,281817,356634
1630588179076,76021,281796,356653
1630588179086,76016,281772,356687
1630588179096,76022,281814,356669
1630588179106,76030,281819,356626
1630588179116,76031,281839,356655
1630588179126,76062,281805,356698
1630588179136,76066,281805,356655
1630588179146,76066,281797,356635
1630588179156,76073,281840,356644
1630588179166,76079,281862,356645
1630588179176,76096,281836,356665
1630588179186,76105,281876,356701
1630588179196,76109,281870,356678
1630588179206,76127,281899,356635
1630588179216,76147,281881,356670
1630588179226,76154,281889,356649
1630588179236,76164,281947,356661
1630588179246,76160,281918,356682
1630588179256,76178,281881,356693
1630588179266,76204,281917,356680
1630588179276,76223,281899,356716
1630588179286,76225,281946,356692
1630588179296,76259,281914,356684
1630588179306,76254,281932,356743
1630588179316,76275,281929,356712
1630588179326,76293,281972,356722
1630588179336,76301,281974,356775
1630588179346,76331,281961,356737
1630588179356,76332,281961,356767
1630588179366,76333,281961,356719
1630588179376,76320,281918,356767
1630588179386,76287,281880,356688
1630588179396,76248,281892,356722
1630588179406,76194,281835,356688
1630588179416,76168,281834,356641
1630588179426,76106,281798,356629
1630588179436,76062,281756,356651
1630588179446,76020,281731,356633
1630588179456,75962,281735,356569
1630588179466,75948,281739,356615
1630588179476,75894,281706,356577
1630588179486,75862,281690,356593
1630588179496,75833,281666,356580
1630588179506,75810,281661,356577
1630588179516,75769,281645,356529
1630588179526,75751,281641,356559
1630588179536,75733,281639,356562
1630588179546,75705,281619,356575
1630588179556,75685,281606,356548
1630588179566,75663,281602,356548
1630588179576,75663,281570,356537
1630588179586,75649,281572,356548
1630588179596,75649,281612,356540
1630588179606,75646,281605,356503
1630588179616,75638,281630,356574
1630588179626,75641,281628,356527
1630588179636,75646,281601,356534
1630588179646,75640,281618,356564
1630588179656,75652,281597,356553
1630588179666,75644,281614,356521
1630588179676,75647,281573,356486
1630588179686,75650,281603,356508
1630588179696,75646,281607,356538
1630588179706,75634,281597,356531
1630588179716,75633,281628,356521
1630588179726,75625,281613,356524
1630588179736,75635,281616,356554
1630588179746,75632,281589,356560
1630588179756,75644,281637,356542
1630588179766,75644,281616,356542
1630588179776,75653,281624,356528
1630588179786,75657,281641,356526
1630588179796,75644,281659,356513
1630588179806,75665,281625,356531
1630588179816,75661,281659,356531
1630588179826,75674,281621,356538
1630588179836,75675,281644,356533
1630588179846,75697,281620,356569
1630588179856,75704,281657,356544
1630588179866,75713,281688,356526
1630588179876,75715,281679,356576
1630588179886,75722,281714,356557
1630588179896,75741,281697,356561
1630588179906,75747,281724,356577
1630588179916,75759,281700,356542
1630588179926,75769,281717,356549
1630588179936,75804,281751,356538
1630588179946,75808,281698,356614
1630588179956,75837,281752,356602
1630588179966,75846,281725,356590
1630588179976,75854,281741,356552
1630588179986,75881,281779,356631
1630588179996,75874,281762,356578
1630588180006,75911,281781,356581
1630588180016,75921,281837,356615
1630588180026,75933,281810,356617
1630588180036,75946,281836,356626
1630588180046,75981,281815,356595
1630588180056,75980,281829,356612
1630588180066,75994,281863,356609
1630588180076,76023,281889,356645
1630588180086,76032,281876,356596
1630588180096,76048,281841,356632
1630588180106,76055,281884,356624
1630588180116,76043,281840,356602
1630588180126,76041,281833,356634
1630588180136,76006,281774,356617
1630588180146,75965,281769,356648
1630588180156,75915,281765,356583
1630588180166,75877,281709,356603
1630588180176,75842,281674,356571
1630588180186,75783,281652,356561
1630588180196,75740,281671,356562
1630588180206,75709,281643,356521
1630588180216,75674,281628,356529
1630588180226,75655,281639,356526
1630588180236,75614,281583,356561
1630588180246,75597,281615,356541
1630588180256,75580,281582,356541
1630588180266,75570,281581,356511
1630588180276,75555,281605,356536
1630588180286,75539,281590,356565
1630588180296,75523,281632,356530
1630588180306,75504,281602,356502
1630588180316,75494,281559,356511
1630588180326,75501,281584,356507
1630588180336,75513,281592,356553
1630588180346,75502,281623,356523
1630588180356,75512,281618,356517
1630588180366,75516,281609,356490
1630588180376,75517,281596,356480
1630588180386,75520,281607,356506
1630588180396,75530,281583,356507
1630588180406,75537,281601,356523
1630588180416,75538,281602,356497
1630588180426,75535,281614,356487
1630588180436,75544,281596,356535
1630588180446,75544,281623,356569
1630588180456,75550,281641,356503
1630588180466,75539,281595,356541
1630588180476,75557,281596,356512
1630588180486,75568,281599,356541
1630588180496,75554,281591,356549
1630588180506,75558,281641,356500
1630588180516,75566,281667,356539
1630588180526,75575,281656,356535
1630588180536,75577,281619,356547
1630588180546,75586,281646,356553
1630588180556,75600,281680,356515
1630588180566,75605,281658,356570
1630588180576,75631,281670,356556
1630588180586,75636,281632,356556
1630588180596,75653,281635,356601
1630588180606,75663,281685,356593
1630588180616,75686,281684,356555
1630588180626,75689,281682,356577
1630588180636,75714,281726,356554
1630588180646,75723,281704,356589
1630588180656,75719,281693,356571
1630588180666,75727,281718,356607
1630588180676,75747,281713,356598
1630588180686,75766,281723,356603
1630588180696,75780,281760,356604
1630588180706,75781,281732,356580
1630588180716,75806,281753,356583
1630588180726,75820,281737,356635
1630588180736,75842,281776,356600
1630588180746,75861,281736,356656
1630588180756,75877,281811,356627
1630588180766,75886,281800,356644
1630588180776,75901,281814,356646
1630588180786,75930,281814,356658
1630588180796,75936,281834,356665
1630588180806,75947,281808,356629
1630588180816,75967,281832,356610
1630588180826,75988,281789,356666
1630588180836,75987,281856,356642
1630588180846,76011,281832,356667
1630588180856,75994,281808,356664
1630588180866,76014,281809,356639
1630588180876,75991,281813,356633
1630588180886,75964,281779,356625
1630588180896,75935,281748,356646
1630588180906,75906,281713,356620
1630588180916,75855,281684,356597
1630588180926,75802,281681,356564
1630588180936,75774,281618,356550
1630588180946,75742,281637,356557
1630588180956,75701,281611,356541
1630588180966,75679,281613,356544
1630588180976,75643,281595,356534
1630588180986,75619,281562,356498
1630588180996,75603,281589,356477
1630588181006,75592,281594,356466
1630588181016,75572,281558,356533
1630588181026,75565,281562,356515
1630588181036,75545,281548,356533
1630588181046,75536,281546,356477
1630588181056,75528,281544,356495
1630588181066,75524,281544,356514
1630588181076,75515,281572,356471
1630588181086,75520,281513,356484
1630588181096,75531,281537,356509
1630588181106,75531,281534,356470
1630588181116,75534,281544,356462
1630588181126,75537,281507,356477
1630588181136,75539,281562,356507
1630588181146,75532,281560,356505
1630588181156,75540,281548,356507
1630588181166,75555,281560,356502
1630588181176,75555,281567,356516
1630588181186,75555,281565,356494
1630588181196,75559,281557,356468
1630588181206,75560,281541,356500
1630588181216,75575,281538,356430
1630588181226,75563,281577,356494
1630588181236,75566,281585,356487
1630588181246,75568,281619,356479
1630588181256,75575,281591,356494
1630588181266,75584,281575,356497
1630588181276,75599,281565,356493
1630588181286,75619,281594,356485
1630588181296,75618,281575,356512
1630588181306,75619,281597,356494
1630588181316,75639,281578,356490
1630588181326,75649,281585,356496
1630588181336,75672,281569,356535
1630588181346,75690,281610,356542
1630588181356,75696,281622,356494
1630588181366,75711,281605,356526
1630588181376,75721,281619,356516
1630588181386,75731,281634,356519
1630588181396,75742,281653,356518
1630588181406,75750,281638,356533
1630588181416,75777,281622,356532
1630588181426,75794,281679,356528
1630588181436,75815,281647,356582
1630588181446,75836,281694,356536
1630588181456,75858,281710,356563
1630588181466,75868,281687,356543
1630588181476,75876,281705,356531
1630588181486,75885,281719,356563
1630588181496,75907,281744,356536
1630588181506,75917,281704,356607
1630588181516,75920,281741,356539
1630588181526,75956,281767,356539
1630588181536,75962,281734,356599
1630588181546,75982,281783,356551
1630588181556,76018,281775,356596
1630588181566,76023,281776,356602
1630588181576,76044,281751,356576
1630588181586,76059,281794,356605
1630588181596,76072,281787,356609
1630588181606,76074,281798,356573
1630588181616,76111,281825,356610
1630588181626,76108,281823,356612
1630588181636,76095,281797,356654
1630588181646,76089,281761,356559
1630588181656,76044,281702,356534
1630588181666,76000,281694,356537
1630588181676,75971,281667,356546
1630588181686,75933,281683,356516
1630588181696,75897,281627,356530
1630588181706,75863,281588,356482
1630588181716,75828,281639,356514
1630588181726,75814,281590,356522
1630588181736,75781,281596,356459
1630588181746,75753,281572,356488
1630588181756,75734,281575,356448
1630588181766,75711,281548,356484
1630588181776,75698,281569,356479
1630588181786,75673,281556,356451
1630588181796,75657,281501,356454
1630588181806,75639,281555,356439
1630588181816,75624,281463,356434
1630588181826,75615,281460,356464
1630588181836,75606,281498,356447
1630588181846,75606,281516,356428
1630588181856,75596,281482,356421
1630588181866,75595,281513,356400
1630588181876,75610,281516,356422
1630588181886,75612,281502,356421
1630588181896,75619,281522,356396
1630588181906,75620,281525,356438
1630588181916,75631,281545,356434
1630588181926,75612,281549,356429
1630588181936,75634,281530,356452
1630588181946,75634,281494,356467
1630588181956,75650,281506,356429
1630588181966,75648,281525,356415
1630588181976,75651,281552,356455
1630588181986,75652,281498,356405
1630588181996,75653,281557,356423
1630588182006,75656,281514,356454
1630588182016,75669,281533,356411
1630588182026,75686,281543,356457
1630588182036,75695,281531,356444
1630588182046,75692,281537,356409
1630588182056,75705,281560,356443
1630588182066,75716,281541,356422
1630588182076,75723,281566,356409
1630588182086,75733,281595,356460
1630588182096,75731,281553,356404
1630588182106,75759,281590,356425
1630588182116,75775,281580,356475
1630588182126,75772,281594,356453
1630588182136,75805,281590,356403
1630588182146,75790,281600,356454
1630588182156,75819,281643,356436
1630588182166,75811,281625,356469
1630588182176,75847,281648,356462
1630588182186,75858,281601,356502
1630588182196,75879,281654,356471
1630588182206,75912,281675,356473
1630588182216,75906,281661,356473
1630588182226,75918,281666,356518
1630588182236,75954,281669,356523
1630588182246,75953,281689,356518
1630588182256,75971,281704,356520
1630588182266,75992,281708,356514
1630588182276,76007,281732,356541
1630588182286,76036,281752,356518
1630588182296,76039,281724,356506
1630588182306,76053,281760,356558
1630588182316,76088,281765,356561
1630588182326,76092,281739,356535
1630588182336,76102,281784,356565
1630588182346,76129,281799,356563
1630588182356,76148,281813,356558
1630588182366,76167,281807,356556
1630588182376,76175,281823,356538
1630588182386,76197,281875,356538
1630588182396,76218,281856,356581
1630588182406,76231,281829,356595
1630588182416,76222,281808,356597
1630588182426,76211,281791,356545
1630588182436,76198,281738,356546
1630588182446,76158,281744,356552
1630588182456,76143,281715,356551
1630588182466,76096,281686,356554
1630588182476,76051,281724,356485
1630588182486,76014,281669,356542
1630588182496,75985,281643,356546
1630588182506,75964,281655,356491
1630588182516,75925,281597,356456
1630588182526,75912,281626,356496
1630588182536,75901,281602,356465
1630588182546,75887,281619,356484
1630588182556,75871,281608,356475
1630588182566,75863,281632,356468
1630588182576,75832,281620,356386
1630588182586,75814,281600,356415
1630588182596,75820,281589,356448
1630588182606,75783,281590,356452
1630588182616,75790,281528,356441
1630588182626,75775,281598,356441
1630588182636,75776,281576,356445
1630588182646,75782,281556,356439
1630588182656,75782,281614,356436
1630588182666,75791,281537,356433
1630588182676,75800,281606,356445
1630588182686,75823,281582,356418
1630588182696,75811,281567,356458
1630588182706,75833,281598,356456
1630588182716,75843,281584,356482
1630588182726,75847,281580,356432
1630588182736,75834,281617,356445
1630588182746,75855,281606,356444
1630588182756,75861,281600,356415
1630588182766,75854,281592,356432
1630588182776,75866,281598,356438
1630588182786,75890,281642,356461
1630588182796,75870,281644,356477
1630588182806,75882,281667,356505
1630588182816,75900,281614,356462
1630588182826,75910,281606,356461
1630588182836,75915,281635,356467
1630588182846,75934,281647,356469
1630588182856,75948,281658,356436
1630588182866,75947,281664,356473
1630588182876,75971,281672,356487
1630588182886,75995,281702,356537
1630588182896,76010,281692,356512
1630588182906,76040,281703,356508
1630588182916,76059,281667,356506
1630588182926,76070,281661,356474
1630588182936,76084,281616,356521
1630588182946,76087,281626,356482
1630588182956,76104,281654,356410
1630588182966,76106,281555,356410
1630588182976,76109,281597,356396
1630588182986,76142,281581,356447
1630588182996,76147,281609,356432
1630588183006,76164,281576,356472
1630588183016,76185,281583,356434
1630588183026,76199,281561,356420
1630588183036,76205,281570,356438
1630588183046,76215,281538,356391
1630588183056,76225,281582,356430
1630588183066,76244,281579,356383
1630588183076,76236,281531,356376
1630588183086,76250,281491,356378
1630588183096,76257,281498,356395
1630588183106,76257,281516,356359
1630588183116,76267,281519,356358
1630588183126,76286,281500,356344
1630588183136,76288,281486,356408
1630588183146,76293,281482,356345
1630588183156,76309,281532,356371
1630588183166,76318,281523,356360
1630588183176,76330,281487,356344
1630588183186,76337,281475,356343
1630588183196,76352,281471,356303
1630588183206,76332,281439,356286
1630588183216,76310,281417,356301
1630588183226,76279,281399,356264
1630588183236,76254,281411,356252
1630588183246,76221,281363,356225
1630588183256,76187,281292,356186
1630588183266,76118,281329,356175
1630588183276,76081,281306,356152
1630588183286,76039,281270,356151
1630588183296,76008,281244,356142
1630588183306,75980,281277,356161
1630588183316,75971,281299,356142
1630588183326,75940,281338,356158
1630588183336,75931,281287,356172
1630588183346,75920,281317,356219
1630588183356,75900,281343,356203
1630588183366,75903,281344,356187
1630588183376,75875,281319,356208
1630588183386,75865,281340,356234
1630588183396,75832,281325,356191
1630588183406,75826,281283,356183
1630588183416,75829,281312,356177
1630588183426,75798,281342,356183
1630588183436,75813,281375,356161
1630588183446,75816,281316,356159
1630588183456,75809,281293,356133
1630588183466,75819,281312,356159
1630588183476,75825,281340,356192
1630588183486,75825,281290,356156
1630588183496,75827,281318,356175
1630588183506,75839,281321,356168
1630588183516,75838,281305,356165
1630588183526,75849,281327,356189
1630588183536,75854,281326,356198
1630588183546,75847,281321,356165
1630588183556,75837,281266,356148
1630588183566,75867,281333,356183
1630588183576,75861,281304,356143
1630588183586,75864,281272,356126
1630588183596,75863,281325,356145
1630588183606,75876,281325,356137
1630588183616,75883,281357,356161
1630588183626,75893,281382,356159
1630588183636,75896,281393,356182
1630588183646,75909,281364,356178
1630588183656,75929,281395,356172
1630588183666,75947,281383,356207
1630588183676,75941,281432,356211
1630588183686,75967,281404,356249
1630588183696,75969,281390,356208
1630588183706,75990,281452,356201
1630588183716,75999,281456,356214
1630588183726,76022,281504,356224
1630588183736,76035,281486,356251
1630588183746,76058,281519,356267
1630588183756,76091,281526,356270
1630588183766,76087,281612,356287
1630588183776,76100,281604,356306
1630588183786,76118,281620,356306
1630588183796,76141,281617,356269
1630588183806,76161,281648,356333
1630588183816,76191,281652,356350
1630588183826,76213,281712,356405
1630588183836,76236,281713,356359
1630588183846,76249,281718,356356
1630588183856,76269,281713,356374
1630588183866,76291,281759,356412
1630588183876,76313,281775,356396
1630588183886,76312,281715,356415
1630588183896,76344,281815,356427
1630588183906,76367,281760,356424
1630588183916,76382,281795,356454
1630588183926,76392,281777,356457
1630588183936,76406,281834,356474
1630588183946,76428,281827,356441
1630588183956,76438,281891,356440
1630588183966,76450,281865,356470
1630588183976,76463,281846,356426
1630588183986,76454,281836,356495
1630588183996,76452,281792,356461
1630588184006,76425,281787,356489
1630588184016,76377,281756,356462
1630588184026,76362,281751,356461
1630588184036,76317,281684,356439
1630588184046,76302,281691,356413
1630588184056,76266,281711,356369
1630588184066,76224,281670,356373
1630588184076,76211,281667,356324
1630588184086,76174,281663,356361
1630588184096,76146,281677,356350
1630588184106,76119,281632,356400
1630588184116,76110,281664,356363
1630588184126,76099,281673,356356
1630588184136,76071,281636,356362
1630588184146,76078,281667,356331
1630588184156,76060,281606,356335
1630588184166,76032,281627,356350
1630588184176,76025,281640,356314
1630588184186,76024,281591,356307
1630588184196,76012,281654,356272
1630588184206,76016,281652,356323
1630588184216,76023,281644,356346
1630588184226,76026,281681,356317
1630588184236,76045,281687,356306
1630588184246,76038,281675,356333
1630588184256,76039,281626,356342
1630588184266,76046,281675,356294
1630588184276,76051,281648,356310
1630588184286,76043,281676,356290
1630588184296,76057,281640,356333
1630588184306,76051,281646,356302
1630588184316,76066,281641,356324
1630588184326,76069,281688,356345
1630588184336,76075,281674,356343
1630588184346,76098,281712,356375
1630588184356,76102,281711,356375
1630588184366,76103,281754,356410
1630588184376,76112,281745,356376
1630588184386,76146,281768,356370
1630588184396,76144,281835,356407
1630588184406,76171,281779,356433
1630588184416,76176,281830,356415
1630588184426,76194,281758,356387
1630588184436,76200,281838,356429
1630588184446,76206,281794,356445
1630588184456,76225,281862,356427
1630588184466,76258,281851,356422
1630588184476,76267,281857,356454
1630588184486,76284,281852,356463
1630588184496,76300,281867,356485
1630588184506,76316,281854,356445
1630588184516,76318,281920,356463
1630588184526,76351,281932,356478
1630588184536,76349,281905,356485
1630588184546,76366,281949,356468
1630588184556,76379,281899,356456
1630588184566,76420,281964,356460
1630588184576,76432,281978,356527
1630588184586,76446,281924,356514
1630588184596,76454,282000,356508
1630588184606,76466,282008,356563
1630588184616,76488,282057,356519
1630588184626,76523,282025,356549
1630588184636,76533,282047,356563
1630588184646,76548,282101,356539
1630588184656,76562,282042,356569
1630588184666,76588,282071,356546
1630588184676,76602,282066,356579
1630588184686,76609,282094,356602
1630588184696,76652,282128,356593
1630588184706,76660,282100,356577
1630588184716,76686,282131,356587
1630588184726,76684,282148,356599
1630588184736,76684,282132,356605
1630588184746,76663,282093,356556
1630588184756,76649,282087,356598
1630588184766,76625,282021,356595
1630588184776,76591,282052,356548
1630588184786,76562,282006,356534
1630588184796,76513,281987,356535
1630588184806,76477,281927,356563
1630588184816,76442,281932,356546
1630588184826,76420,281936,356539
1630588184836,76372,281952,356522
1630588184846,76363,281935,356524
1630588184856,76332,281883,356527
1630588184866,76293,281899,356501
1630588184876,76268,281892,356505
1630588184886,76242,281870,356502
1630588184896,76234,281873,356497
1630588184906,76213,281889,356501
1630588184916,76192,281856,356469
1630588184926,76167,281848,356432
1630588184936,76155,281846,356483
1630588184946,76134,281836,356484
1630588184956,76145,281835,356471
1630588184966,76150,281835,356510
1630588184976,76139,281839,356493
1630588184986,76142,281880,356485
1630588184996,76151,281843,356512
1630588185006,76163,281853,356494
1630588185016,76158,281844,356492
1630588185026,76159,281852,356483
1630588185036,76146,281905,356512
1630588185046,76165,281854,356467
1630588185056,76155,281886,356496
1630588185066,76164,281859,356499
1630588185076,76165,281848,356498
1630588185086,76158,281886,356490
1630588185096,76162,281842,356490
1630588185106,76159,281860,356501
1630588185116,76165,281870,356454
1630588185126,76181,281848,356520
1630588185136,76179,281873,356471
1630588185146,76173,281890,356513
1630588185156,76199,281858,356497
1630588185166,76189,281898,356529
1630588185176,76216,281914,356501
1630588185186,76212,281890,356514
1630588185196,76220,281910,356551
1630588185206,76221,281916,356498
1630588185216,76239,281902,356481
1630588185226,76245,281905,356560
1630588185236,76263,281947,356523
1630588185246,76266,281933,356531
1630588185256,76284,281948,356537
1630588185266,76269,281952,356531
1630588185276,76303,281974,356513
1630588185286,76306,282001,356554
1630588185296,76337,281976,356569
1630588185306,76346,281961,356571
1630588185316,76356,282002,356561
1630588185326,76368,282005,356557
1630588185336,76377,281996,356544
1630588185346,76373,282033,356597
1630588185356,76395,282003,356574
1630588185366,76419,282017,356594
1630588185376,76436,282074,356536
1630588185386,76444,282113,356570
1630588185396,76447,282093,356585
1630588185406,76459,282034,356575
1630588185416,76472,282087,356620
1630588185426,76493,282103,356578
1630588185436,76521,282087,356616
1630588185446,76534,282109,356599
1630588185456,76543,282121,356574
1630588185466,76540,282076,356620
1630588185476,76547,282078,356587
1630588185486,76507,282054,356615
1630588185496,76500,282035,356588
1630588185506,76442,281967,356555
1630588185516,76414,281948,356560
1630588185526,76349,281940,356581
1630588185536,76320,281944,356560
1630588185546,76273,281897,356508
1630588185556,76235,281881,356532
1630588185566,76197,281846,356503
1630588185576,76170,281860,356456
1630588185586,76126,281848,356489
1630588185596,76114,281815,356478
1630588185606,76081,281807,356461
1630588185616,76035,281811,356512
1630588185626,76015,281774,356484
1630588185636,75987,281749,356496
1630588185646,75954,281766,356460
1630588185656,75939,281735,356505
1630588185666,75909,281691,356460
1630588185676,75883,281770,356444
1630588185686,75879,281688,356439
1630588185696,75867,281716,356449
1630588185706,75868,281748,356418
1630588185716,75858,281757,356442
1630588185726,75855,281798,356433
1630588185736,75858,281762,356476
1630588185746,75851,281754,356468
1630588185756,75849,281784,356420
1630588185766,75857,281750,356438
1630588185776,75856,281718,356406
1630588185786,75865,281739,356456
1630588185796,75855,281739,356440
1630588185806,75857,281747,356404
1630588185816,75857,281758,356446
1630588185826,75852,281788,356441
1630588185836,75847,281733,356423
1630588185846,75856,281780,356422
1630588185856,75862,281791,356441
1630588185866,75863,281757,356436
1630588185876,75858,281832,356461
1630588185886,75863,281769,356465
1630588185896,75870,281811,356484
1630588185906,75877,281764,356456
1630588185916,75894,281798,356507
1630588185926,75909,281792,356458
1630588185936,75911,281801,356453
1630588185946,75919,281836,356485
1630588185956,75934,281837,356504
1630588185966,75939,281814,356515
1630588185976,75944,281829,356463
1630588185986,75961,281847,356516
1630588185996,75974,281836,356472
1630588186006,75981,281863,356464
1630588186016,75998,281824,356479
1630588186026,76001,281902,356543
1630588186036,76008,281863,356480
1630588186046,76026,281893,356477
1630588186056,76035,281885,356510
1630588186066,76057,281876,356492
1630588186076,76067,281924,356505
1630588186086,76085,281913,356507
1630588186096,76102,281905,356517
1630588186106,76116,281925,356558
1630588186116,76132,281928,356523
1630588186126,76158,281933,356552
1630588186136,76156,281964,356507
1630588186146,76169,281971,356575
1630588186156,76168,281943,356618
1630588186166,76194,281955,356546
1630588186176,76222,281975,356547
1630588186186,76224,281977,356599
1630588186196,76218,281986,356549
1630588186206,76224,281991,356526
1630588186216,76198,281951,356515
1630588186226,76173,281870,356507
1630588186236,76141,281907,356537
1630588186246,76087,281877,356513
1630588186256,76042,281820,356494
1630588186266,75984,281766,356507
1630588186276,75940,281780,356486
1630588186286,75912,281739,356466
1630588186296,75845,281741,356461
1630588186306,75811,281720,356459
1630588186316,75771,281724,356440
1630588186326,75733,281691,356426
1630588186336,75683,281679,356420
1630588186346,75661,281691,356415
1630588186356,75627,281644,356422
1630588186366,75586,281628,356394
1630588186376,75549,281597,356396
1630588186386,75513,281605,356402
1630588186396,75513,281600,356375
1630588186406,75467,281606,356379
1630588186416,75447,281595,356394
1630588186426,75445,281570,356359
1630588186436,75432,281569,356392
1630588186446,75421,281590,356393
1630588186456,75424,281566,356384
1630588186466,75433,281576,356402
1630588186476,75431,281596,356394
1630588186486,75422,281609,356391
1630588186496,75436,281598,356411
1630588186506,75443,281558,356391
1630588186516,75435,281566,356393
1630588186526,75415,281605,356364
1630588186536,75420,281592,356375
1630588186546,75416,281572,356349
1630588186556,75414,281587,356417
1630588186566,75428,281578,356362
1630588186576,75425,281572,356413
1630588186586,75424,281601,356394
1630588186596,75437,281621,356389
1630588186606,75438,281561,356419
1630588186616,75439,281574,356407
1630588186626,75440,281592,356393
1630588186636,75448,281598,356396
1630588186646,75450,281615,356406
1630588186656,75476,281659,356344
1630588186666,75474,281661,356423
1630588186676,75487,281635,356412
1630588186686,75487,281677,356408
1630588186696,75500,281630,356393
1630588186706,75511,281645,356421
1630588186716,75526,281622,356411
1630588186726,75542,281661,356444
1630588186736,75553,281669,356395
1630588186746,75579,281678,356425
1630588186756,75595,281675,356425
1630588186766,75607,281683,356404
1630588186776,75619,281678,356433
1630588186786,75638,281724,356473
1630588186796,75658,281726,356451
1630588186806,75664,281742,356493
1630588186816,75676,281705,356479
1630588186826,75694,281741,356484
1630588186836,75711,281749,356509
1630588186846,75721,281724,356492
1630588186856,75740,281748,356478
1630588186866,75752,281768,356485
1630588186876,75756,281742,356487
1630588186886,75776,281782,356471
1630588186896,75792,281789,356503
1630588186906,75817,281801,356558
1630588186916,75828,281772,356510
1630588186926,75870,281801,356496
1630588186936,75863,281851,356552
1630588186946,75892,281813,356518
1630588186956,75893,281850,356466
1630588186966,75910,281825,356508
1630588186976,75917,281859,356574
1630588186986,75905,281786,356572
1630588186996,75872,281794,356523
1630588187006,75836,281771,356500
1630588187016,75786,281781,356527
1630588187026,75738,281699,356504
1630588187036,75686,281660,356469
1630588187046,75627,281681,356447
1630588187056,75577,281668,356411
1630588187066,75539,281601,356430
1630588187076,75492,281608,356443
1630588187086,75441,281561,356428
1630588187096,75408,281565,356400
1630588187106,75371,281549,356454
1630588187116,75318,281507,356420
1630588187126,75282,281475,356391
1630588187136,75262,281515,356393
1630588187146,75218,281463,356375
1630588187156,75186,281427,356384
1630588187166,75164,281457,356406
1630588187176,75135,281438,356379
1630588187186,75116,281405,356364
1630588187196,75096,281426,356355
1630588187206,75090,281396,356351
1630588187216,75072,281440,356370
1630588187226,75076,281458,356350
1630588187236,75082,281472,356404
1630588187246,75100,281439,356422
1630588187256,75098,281474,356372
1630588187266,75102,281449,356397
1630588187276,75101,281461,356367
1630588187286,75109,281420,356412
1630588187296,75109,281469,356409
1630588187306,75086,281456,356382
1630588187316,75099,281461,356399
1630588187326,75097,281465,356436
1630588187336,75092,281487,356418
1630588187346,75104,281474,356414
1630588187356,75109,281458,356436
1630588187366,75102,281397,356423
1630588187376,75116,281467,356479
1630588187386,75122,281491,356428
1630588187396,75130,281442,356440
1630588187406,75135,281497,356453
1630588187416,75156,281489,356445
1630588187426,75159,281497,356440
1630588187436,75160,281491,356438
1630588187446,75178,281493,356481
1630588187456,75199,281513,356503
1630588187466,75214,281532,356456
1630588187476,75214,281520,356497
1630588187486,75229,281571,356447
1630588187496,75259,281544,356477
1630588187506,75251,281568,356449
1630588187516,75283,281550,356506
1630588187526,75298,281568,356486
1630588187536,75308,281575,356505
1630588187546,75323,281585,356482
1630588187556,75338,281639,356465
1630588187566,75369,281643,356509
1630588187576,75384,281630,356533
1630588187586,75395,281643,356505
1630588187596,75408,281663,356520
1630588187606,75431,281630,356549
1630588187616,75448,281690,356538
1630588187626,75452,281669,356569
1630588187636,75474,281705,356550
1630588187646,75491,281661,356538
1630588187656,75511,281675,356543
1630588187666,75509,281711,356570
1630588187676,75529,281687,356568
1630588187686,75556,281758,356584
1630588187696,75567,281723,356598
1630588187706,75582,281757,356620
1630588187716,75603,281759,356621
1630588187726,75625,281735,356647
1630588187736,75642,281799,356589
1630588187746,75660,281785,356652
1630588187756,75679,281783,356648
1630588187766,75693,281848,356629
1630588187776,75720,281859,356679
1630588187786,75725,281832,356624
1630588187796,75757,281840,356611
1630588187806,75762,281861,356697
1630588187816,75776,281833,356647
1630588187826,75760,281850,356712
1630588187836,75739,281791,356644
1630588187846,75715,281766,356690
1630588187856,75674,281735,356623
1630588187866,75616,281712,356636
1630588187876,75586,281695,356619
1630588187886,75518,281668,356610
1630588187896,75483,281668,356626
1630588187906,75438,281656,356639
1630588187916,75407,281639,356608
1630588187926,75369,281627,356609
1630588187936,75333,281597,356624
1630588187946,75305,281599,356601
1630588187956,75287,281542,356577
1630588187966,75236,281547,356587
1630588187976,75209,281530,356556
1630588187986,75180,281547,356547
1630588187996,75167,281529,356531
1630588188006,75143,281541,356547
1630588188016,75133,281513,356570
1630588188026,75098,281482,356524
1630588188036,75085,281526,356529
1630588188046,75090,281522,356553
1630588188056,75096,281517,356556
1630588188066,75095,281512,356540
1630588188076,75097,281545,356563
1630588188086,75105,281527,356583
1630588188096,75117,281534,356558
1630588188106,75126,281538,356569
1630588188116,75135,281528,356573
1630588188126,75134,281560,356612
1630588188136,75128,281524,356584
1630588188146,75136,281545,356556
1630588188156,75137,281536,356593
1630588188166,75133,281569,356561
1630588188176,75141,281536,356574
1630588188186,75156,281555,356585
1630588188196,75170,281568,356578
1630588188206,75178,281564,356598
1630588188216,75183,281596,356628
1630588188226,75199,281568,356624
1630588188236,75199,281589,356602
1630588188246,75203,281583,356631
1630588188256,75223,281587,356686
1630588188266,75233,281594,356612
1630588188276,75240,281641,356618
1630588188286,75244,281672,356623
1630588188296,75283,281643,356661
1630588188306,75289,281675,356647
1630588188316,75309,281621,356651
1630588188326,75331,281641,356656
1630588188336,75338,281677,356673
1630588188346,75358,281647,356679
1630588188356,75368,281731,356694
1630588188366,75397,281688,356685
1630588188376,75410,281683,356698
1630588188386,75439,281751,356721
1630588188396,75452,281752,356677
1630588188406,75461,281717,356709
1630588188416,75481,281757,356686
1630588188426,75511,281758,356706
1630588188436,75530,281770,356719
1630588188446,75521,281804,356724
1630588188456,75542,281780,356713
1630588188466,75571,281762,356767
1630588188476,75589,281837,356748
1630588188486,75604,281830,356755
1630588188496,75614,281850,356734
1630588188506,75644,281892,356778
1630588188516,75661,281865,356814
1630588188526,75681,281852,356749
1630588188536,75704,281891,356764
1630588188546,75731,281859,356769
1630588188556,75739,281900,356798
1630588188566,75764,281919,356835
1630588188576,75765,281903,356832
1630588188586,75800,281916,356843
1630588188596,75814,281942,356816
1630588188606,75844,281962,356812
1630588188616,75834,281959,356828
1630588188626,75873,281990,356813
1630588188636,75890,281986,356831
1630588188646,75903,282007,356857
1630588188656,75924,282005,356821
1630588188666,75946,282008,356857
1630588188676,75960,281991,356911
1630588188686,75983,281983,356844
1630588188696,75996,282029,356889
1630588188706,75985,282009,356911
1630588188716,75995,281961,356854
1630588188726,75959,281936,356810
1630588188736,75910,281934,356812
1630588188746,75878,281926,356827
1630588188756,75853,281906,356826
1630588188766,75810,281834,356847
1630588188776,75751,281885,356870
1630588188786,75750,281850,356817
1630588188796,75691,281804,356801
1630588188806,75672,281830,356735
1630588188816,75653,281828,356778
1630588188826,75639,281806,356762
1630588188836,75622,281778,356766
1630588188846,75595,281798,356743
1630588188856,75575,281778,356729
1630588188866,75566,281779,356724
1630588188876,75550,281751,356745
1630588188886,75544,281755,356705
1630588188896,75524,281754,356775
1630588188906,75525,281739,356720
1630588188916,75510,281758,356690
1630588188926,75524,281777,356687
1630588188936,75526,281758,356750
1630588188946,75546,281765,356710
1630588188956,75537,281744,356756
1630588188966,75541,281776,356754
1630588188976,75553,281756,356715
1630588188986,75550,281764,356724
1630588188996,75572,281756,356752
1630588189006,75569,281783,356706
1630588189016,75566,281722,356706
1630588189026,75577,281760,356733
1630588189036,75579,281759,356729
1630588189046,75594,281790,356761
1630588189056,75586,281744,356715
1630588189066,75606,281764,356715
1630588189076,75626,281782,356746
1630588189086,75610,281781,356680
1630588189096,75634,281781,356669
1630588189106,75646,281801,356762
1630588189116,75649,281775,356717
1630588189126,75658,281809,356701
1630588189136,75670,281796,356688
1630588189146,75682,281826,356728
1630588189156,75701,281805,356716
1630588189166,75709,281784,356651
1630588189176,75732,281821,356726
1630588189186,75752,281841,356722
1630588189196,75770,281849,356740
1630588189206,75778,281848,356707
1630588189216,75796,281847,356747
1630588189226,75816,281859,356708
1630588189236,75825,281850,356753
1630588189246,75859,281875,356748
1630588189256,75872,281872,356762
1630588189266,75875,281905,356721
1630588189276,75896,281927,356739
1630588189286,75906,281894,356724
1630588189296,75933,281928,356788
1630588189306,75957,281916,356754
1630588189316,75973,281909,356753
1630588189326,75999,281939,356733
1630588189336,76025,281937,356760
1630588189346,76030,281934,356773
1630588189356,76051,282006,356770
1630588189366,76069,281994,356725
1630588189376,76077,281965,356773
1630588189386,76084,281972,356760
1630588189396,76138,281999,356803
1630588189406,76144,282002,356798
1630588189416,76163,282021,356770
1630588189426,76198,282018,356820
1630588189436,76197,282021,356795
1630588189446,76216,282044,356833
1630588189456,76230,282049,356843
1630588189466,76240,282066,356809
1630588189476,76260,282089,356810
1630588189486,76276,282083,356823
1630588189496,76311,282073,356793
1630588189506,76329,282066,356857
1630588189516,76351,282099,356806
1630588189526,76369,282115,356850
1630588189536,76388,282124,356854
1630588189546,76389,282107,356829
1630588189556,76411,282075,356845
1630588189566,76417,282115,356889
1630588189576,76409,282068,356851
1630588189586,76395,282071,356821
1630588189596,76364,282022,356832
1630588189606,76341,282066,356826
1630588189616,76294,281983,356838
1630588189626,76263,281968,356775
1630588189636,76242,282007,356793
1630588189646,76207,281969,356777
1630588189656,76182,281945,356780
1630588189666,76146,281940,356776
1630588189676,76129,281947,356775
1630588189686,76108,281955,356765
1630588189696,76081,281939,356757
1630588189706,76057,281910,356754
1630588189716,76044,281917,356730
1630588189726,76018,281869,356734
1630588189736,76004,281877,356740
1630588189746,75982,281865,356757
1630588189756,75987,281885,356755
1630588189766,75960,281885,356721
1630588189776,75948,281862,356760
1630588189786,75955,281820,356715
1630588189796,75953,281855,356747
1630588189806,75959,281831,356733
1630588189816,75971,281896,356695
1630588189826,75985,281870,356760
1630588189836,75991,281870,356740
1630588189846,76001,281875,356758
1630588189856,75994,281869,356765
1630588189866,76012,281863,356732
1630588189876,76005,281860,356714
1630588189886,76009,281867,356757
1630588189896,76016,281891,356737
1630588189906,76005,281877,356744
1630588189916,76023,281893,356768
1630588189926,76026,281860,356733
1630588189936,76027,281898,356753
1630588189946,76028,281879,356733
1630588189956,76044,281901,356723
1630588189966,76044,281893,356724
1630588189976,76053,281895,356750
1630588189986,76080,281937,356736
1630588189996,76073,281933,356682
1630588190006,76100,281962,356729
1630588190016,76111,281912,356731
1630588190026,76115,281982,356754
1630588190036,76123,281972,356783
1630588190046,76133,281958,356714
1630588190056,76154,281988,356748
1630588190066,76169,281987,356724
1630588190076,76207,281957,356756
1630588190086,76220,281969,356787
1630588190096,76220,281984,356751
1630588190106,76245,281994,356795
1630588190116,76259,282014,356788
1630588190126,76268,282048,356802
1630588190136,76281,282040,356757
1630588190146,76315,282058,356826
1630588190156,76329,282032,356773
1630588190166,76354,282059,356801
1630588190176,76363,282084,356767
1630588190186,76375,282060,356769
1630588190196,76402,282127,356789
1630588190206,76409,282075,356807
1630588190216,76438,282120,356804
1630588190226,76459,282128,356808
1630588190236,76462,282135,356769
1630588190246,76485,282147,356812
1630588190256,76498,282098,356847
1630588190266,76517,282123,356832
1630588190276,76521,282127,356838
1630588190286,76531,282154,356867
1630588190296,76552,282198,356830
1630588190306,76582,282201,356831
1630588190316,76602,282177,356841
1630588190326,76620,282180,356833
1630588190336,76633,282228,356865
1630588190346,76652,282260,356863
1630588190356,76677,282235,356822
1630588190366,76671,282245,356843
1630588190376,76707,282288,356861
1630588190386,76727,282242,356901
1630588190396,76744,282289,356896
1630588190406,76765,282270,356890
1630588190416,76788,282290,356881
1630588190426,76805,282323,356897
1630588190436,76804,282313,356891
1630588190446,76831,282306,356918
1630588190456,76828,282348,356884
1630588190466,76840,282302,356905
1630588190476,76816,282273,356946
1630588190486,76801,282228,356891
1630588190496,76773,282234,356864
1630588190506,76745,282202,356887
1630588190516,76710,282192,356837
1630588190526,76677,282160,356865
1630588190536,76652,282141,356841
1630588190546,76631,282154,356820
1630588190556,76591,282181,356836
1630588190566,76576,282091,356838
1630588190576,76562,282083,356847
1630588190586,76524,282127,356831
1630588190596,76508,282090,356813
1630588190606,76469,282118,356800
1630588190616,76457,282072,356835
1630588190626,76466,282102,356805
1630588190636,76436,282065,356755
1630588190646,76421,282106,356768
1630588190656,76411,282063,356800
1630588190666,76394,282033,356776
1630588190676,76382,282068,356786
1630588190686,76367,282076,356793
1630588190696,76396,282060,356780
1630588190706,76377,282003,356763
1630588190716,76388,282089,356764
1630588190726,76393,282057,356730
1630588190736,76405,282072,356762
1630588190746,76402,282060,356734
1630588190756,76395,282091,356765
1630588190766,76401,282111,356764
1630588190776,76394,282017,356782
1630588190786,76417,282070,356725
1630588190796,76429,282073,356769
1630588190806,76410,282071,356782
1630588190816,76418,282044,356756
1630588190826,76426,282028,356738
1630588190836,76436,282033,356740
1630588190846,76435,282025,356752
1630588190856,76430,282060,356705
1630588190866,76428,282069,356696
1630588190876,76439,282031,356751
1630588190886,76464,282102,356712
1630588190896,76465,282078,356704
1630588190906,76461,282076,356740
1630588190916,76471,282091,356739
1630588190926,76486,282111,356735
1630588190936,76486,282108,356741
1630588190946,76502,282131,356774
1630588190956,76524,282110,356717
1630588190966,76541,282106,356748
1630588190976,76550,282143,356749
1630588190986,76552,282128,356738
1630588190996,76569,282153,356706
1630588191006,76584,282174,356752
1630588191016,76597,282200,356771
1630588191026,76610,282144,356737
1630588191036,76619,282179,356764
1630588191046,76644,282162,356771
1630588191056,76662,282186,356736
1630588191066,76668,282199,356748
1630588191076,76693,282187,356749
1630588191086,76690,282213,356767
1630588191096,76713,282220,356769
1630588191106,76727,282211,356778
1630588191116,76751,282221,356790
1630588191126,76764,282276,356825
1630588191136,76781,282213,356820
1630588191146,76777,282237,356802
1630588191156,76820,282293,356778
1630588191166,76823,282273,356783
1630588191176,76854,282303,356786
1630588191186,76864,282273,356815
1630588191196,76874,282315,356844
1630588191206,76881,282309,356805
1630588191216,76905,282320,356831
1630588191226,76918,282347,356804
1630588191236,76926,282333,356807
1630588191246,76941,282324,356831
1630588191256,76950,282346,356836
1630588191266,76961,282366,356822
1630588191276,76989,282375,356814
1630588191286,77017,282345,356808
1630588191296,77022,282390,356866
1630588191306,77039,282391,356822
1630588191316,77062,282408,356839
1630588191326,77078,282414,356862
1630588191336,77093,282398,356858
1630588191346,77110,282387,356845
1630588191356,77122,282410,356829
1630588191366,77114,282401,356801
1630588191376,77112,282340,356827
1630588191386,77081,282372,356840
1630588191396,77048,282304,356825
1630588191406,77005,282278,356768
1630588191416,76973,282283,356836
1630588191426,76946,282316,356775
1630588191436,76933,282260,356727
1630588191446,76885,282253,356742
1630588191456,76870,282234,356762
1630588191466,76845,282238,356762
1630588191476,76810,282183,356739
1630588191486,76784,282190,356724
1630588191496,76770,282201,356712
1630588191506,76759,282156,356728
1630588191516,76745,282181,356683
1630588191526,76728,282166,356705
1630588191536,76719,282165,356731
1630588191546,76706,282145,356675
1630588191556,76695,282177,356696
1630588191566,76674,282168,356715
1630588191576,76651,282156,356681
1630588191586,76647,282175,356679
1630588191596,76656,282081,356674
1630588191606,76660,282148,356702
1630588191616,76660,282169,356694
1630588191626,76658,282157,356676
1630588191636,76661,282109,356692
1630588191646,76653,282181,356704
1630588191656,76655,282166,356658
1630588191666,76656,282154,356688
1630588191676,76651,282133,356693
1630588191686,76654,282126,356686
1630588191696,76641,282127,356644
1630588191706,76657,282111,356675
1630588191716,76649,282160,356669
1630588191726,76646,282149,356686
1630588191736,76654,282145,356649
1630588191746,76649,282127,356659
1630588191756,76653,282114,356625
1630588191766,76673,282127,356664
1630588191776,76674,282123,356653
1630588191786,76674,282140,356647
1630588191796,76683,282184,356665
1630588191806,76700,282131,356646
1630588191816,76703,282135,356645
1630588191826,76720,282198,356661
1630588191836,76723,282144,356639
1630588191846,76732,282190,356667
1630588191856,76737,282231,356616
1630588191866,76757,282207,356669
1630588191876,76757,282171,356697
1630588191886,76756,282194,356674
1630588191896,76773,282196,356709
1630588191906,76780,282190,356650
1630588191916,76792,282255,356695
1630588191926,76824,282274,356685
1630588191936,76843,282228,356702
1630588191946,76860,282259,356696
1630588191956,76861,282290,356740
1630588191966,76874,282255,356706
1630588191976,76881,282294,356711
1630588191986,76910,282263,356676
1630588191996,76907,282265,356708
1630588192006,76930,282337,356732
1630588192016,76944,282268,356730
1630588192026,76947,282343,356678
1630588192036,76965,282292,356698
1630588192046,76985,282315,356729
1630588192056,76974,282334,356692
1630588192066,76993,282327,356751
1630588192076,77016,282344,356724
1630588192086,77034,282351,356754
1630588192096,77044,282364,356716
1630588192106,77048,282376,356715
1630588192116,77067,282364,356722
1630588192126,77094,282326,356755
1630588192136,77097,282375,356749
1630588192146,77112,282406,356696
1630588192156,77114,282395,356712
1630588192166,77131,282430,356753
1630588192176,77155,282435,356751
1630588192186,77159,282415,356749
1630588192196,77174,282451,356713
1630588192206,77190,282425,356783
1630588192216,77186,282442,356789
1630588192226,77207,282443,356709
1630588192236,77209,282451,356775
1630588192246,77223,282425,356722
1630588192256,77207,282414,356753
1630588192266,77186,282378,356739
1630588192276,77173,282359,356759
1630588192286,77112,282335,356684
1630588192296,77087,282307,356725
1630588192306,77059,282283,356722
1630588192316,77009,282274,356716
1630588192326,76973,282269,356663
1630588192336,76954,282212,356661
1630588192346,76922,282270,356701
1630588192356,76899,282203,356626
1630588192366,76866,282188,356669
1630588192376,76847,282208,356627
1630588192386,76817,282132,356624
1630588192396,76801,282161,356624
1630588192406,76792,282181,356587
1630588192416,76786,282163,356620
1630588192426,76754,282142,356632
1630588192436,76739,282155,356603
1630588192446,76727,282155,356621
1630588192456,76715,282130,356573
1630588192466,76703,282146,356594
1630588192476,76716,282140,356607
1630588192486,76695,282169,356592
1630588192496,76730,282137,356596
1630588192506,76706,282146,356558
1630588192516,76703,282138,356597
1630588192526,76693,282117,356585
1630588192536,76693,282157,356606
1630588192546,76696,282129,356587
1630588192556,76686,282128,356618
1630588192566,76689,282153,356583
1630588192576,76687,282179,356605
1630588192586,76684,282142,356591
1630588192596,76674,282155,356559
1630588192606,76680,282161,356546
1630588192616,76665,282121,356562
1630588192626,76664,282149,356583
1630588192636,76685,282142,356554
1630588192646,76663,282152,356570
1630588192656,76688,282155,356550
1630588192666,76678,282136,356556
1630588192676,76676,282134,356572
1630588192686,76672,282141,356576
1630588192696,76685,282184,356555
1630588192706,76697,282134,356554
1630588192716,76692,282151,356531
1630588192726,76705,282159,356567
1630588192736,76722,282175,356556
1630588192746,76709,282206,356570
1630588192756,76731,282130,356557
1630588192766,76739,282193,356575
1630588192776,76755,282192,356584
1630588192786,76752,282208,356576
1630588192796,76775,282192,356572
1630588192806,76780,282224,356556
1630588192816,76793,282245,356538
1630588192826,76816,282250,356568
1630588192836,76808,282235,356601
1630588192846,76829,282227,356599
1630588192856,76823,282291,356580
1630588192866,76829,282309,356592
1630588192876,76842,282307,356597
1630588192886,76860,282259,356572
1630588192896,76871,282279,356599
1630588192906,76876,282317,356602
1630588192916,76910,282304,356630
1630588192926,76903,282288,356634
1630588192936,76908,282277,356610
1630588192946,76916,282299,356601
1630588192956,76936,282294,356602
1630588192966,76944,282340,356623
1630588192976,76965,282331,356613
1630588192986,76972,282377,356605
1630588192996,76987,282317,356623
1630588193006,76988,282333,356673
1630588193016,77003,282369,356648
1630588193026,77018,282371,356645
1630588193036,77031,282377,356627
1630588193046,77032,282432,356617
1630588193056,77050,282394,356646
1630588193066,77065,282434,356635
1630588193076,77073,282406,356639
1630588193086,77075,282386,356641
1630588193096,77053,282361,356625
1630588193106,77032,282343,356651
1630588193116,76995,282298,356584
1630588193126,76982,282275,356609
1630588193136,76926,282222,356583
1630588193146,76898,282242,356540
1630588193156,76832,282205,356553
1630588193166,76810,282189,356506
1630588193176,76759,282146,356537
1630588193186,76726,282200,356513
1630588193196,76698,282160,356520
1630588193206,76659,282125,356479
1630588193216,76637,282131,356518
1630588193226,76617,282099,356482
1630588193236,76580,282112,356487
1630588193246,76562,282132,356464
1630588193256,76538,282098,356477
1630588193266,76506,282050,356468
1630588193276,76478,282022,356483
1630588193286,76465,282043,356450
1630588193296,76442,282072,356448
1630588193306,76440,282088,356431
1630588193316,76438,282035,356409
1630588193326,76424,282041,356436
1630588193336,76415,282070,356432
1630588193346,76413,282082,356471
1630588193356,76422,282075,356459
1630588193366,76399,282064,356442
1630588193376,76400,282064,356441
1630588193386,76402,282053,356451
1630588193396,76395,282043,356430
1630588193406,76388,282057,356436
1630588193416,76374,282009,356437
1630588193426,76383,282091,356434
1630588193436,76364,282017,356425
1630588193446,76366,282003,356405
1630588193456,76363,281996,356447
1630588193466,76355,282034,356405
1630588193476,76340,282037,356437
1630588193486,76347,282026,356429
1630588193496,76350,282009,356422
1630588193506,76330,282044,356437
1630588193516,76334,282064,356423
1630588193526,76343,282052,356458
1630588193536,76344,282070,356449
1630588193546,76364,282056,356449
1630588193556,76357,282047,356439
1630588193566,76361,282056,356437
1630588193576,76366,282079,356439
1630588193586,76375,282070,356424
1630588193596,76384,282120,356415
1630588193606,76385,282119,356435
1630588193616,76415,282094,356447
1630588193626,76402,282137,356469
1630588193636,76421,282086,356445
1630588193646,76442,282135,356464
1630588193656,76427,282129,356451
1630588193666,76447,282119,356453
1630588193676,76446,282136,356472
1630588193686,76459,282150,356455
1630588193696,76471,282152,356470
1630588193706,76501,282189,356453
1630588193716,76493,282146,356451
1630588193726,76520,282122,356463
1630588193736,76509,282234,356496
1630588193746,76528,282213,356464
1630588193756,76543,282166,356494
1630588193766,76539,282170,356512
1630588193776,76568,282189,356488
1630588193786,76579,282209,356480
1630588193796,76587,282237,356509
1630588193806,76593,282232,356527
1630588193816,76597,282229,356531
1630588193826,76620,282292,356520
1630588193836,76623,282255,356525
1630588193846,76645,282243,356499
1630588193856,76658,282263,356543
1630588193866,76675,282288,356545
1630588193876,76684,282258,356527
1630588193886,76683,282314,356545
1630588193896,76717,282283,356537
1630588193906,76720,282288,356557
1630588193916,76726,282258,356548
1630588193926,76718,282274,356534
1630588193936,76714,282296,356515
1630588193946,76697,282252,356515
1630588193956,76654,282204,356521
1630588193966,76610,282143,356504
1630588193976,76558,282145,356493
1630588193986,76502,282062,356501
1630588193996,76485,282084,356451
1630588194006,76425,282064,356431
1630588194016,76358,281999,356442
1630588194026,76335,282018,356445
1630588194036,76288,281987,356448
1630588194046,76256,281992,356394
1630588194056,76211,281988,356412
1630588194066,76182,281964,356386
1630588194076,76154,281866,356374
1630588194086,76113,281922,356342
1630588194096,76087,281895,356357
1630588194106,76065,281861,356349
1630588194116,76035,281844,356358
1630588194126,76015,281875,356337
1630588194136,75987,281797,356327
1630588194146,75969,281812,356352
1630588194156,75961,281801,356328
1630588194166,75944,281820,356326
1630588194176,75942,281801,356286
1630588194186,75958,281849,356293
1630588194196,75933,281801,356290
1630588194206,75937,281838,356316
1630588194216,75934,281807,356288
1630588194226,75922,281812,356297
1630588194236,75904,281814,356302
1630588194246,75893,281843,356339
1630588194256,75884,281814,356314
1630588194266,75882,281789,356300
1630588194276,75885,281775,356239
1630588194286,75883,281764,356282
1630588194296,75875,281778,356301
1630588194306,75855,281780,356264
1630588194316,75866,281789,356307
1630588194326,75866,281793,356295
1630588194336,75851,281801,356279
1630588194346,75868,281801,356270
1630588194356,75864,281804,356279
1630588194366,75865,281821,356297
1630588194376,75865,281834,356307
1630588194386,75878,281830,356288
1630588194396,75899,281837,356285
1630588194406,75901,281830,356304
1630588194416,75892,281841,356320
1630588194426,75914,281796,356275
1630588194436,75929,281796,356296
1630588194446,75927,281814,356292
1630588194456,75951,281826,356271
1630588194466,75948,281843,356316
1630588194476,75951,281872,356338
1630588194486,75971,281841,356294
1630588194496,75977,281854,356287
1630588194506,75994,281911,356304
1630588194516,75996,281916,356310
1630588194526,76033,281865,356313
1630588194536,76030,281907,356340
1630588194546,76034,281877,356322
1630588194556,76061,281865,356309
1630588194566,76073,281908,356348
1630588194576,76085,281978,356332
1630588194586,76088,281929,356317
1630588194596,76106,281920,356333
1630588194606,76110,281919,356290
1630588194616,76122,281933,356331
1630588194626,76138,281937,356321
1630588194636,76146,281941,356307
1630588194646,76160,281957,356369
1630588194656,76172,281963,356330
1630588194666,76178,281950,356368
1630588194676,76184,282005,356367
1630588194686,76217,282004,356396
1630588194696,76238,282033,356387
1630588194706,76242,281989,356402
1630588194716,76265,282056,356397
1630588194726,76276,282045,356383
1630588194736,76278,282040,356405
1630588194746,76310,282107,356421
1630588194756,76315,282043,356446
1630588194766,76319,282045,356440
1630588194776,76291,282062,356431
1630588194786,76275,282002,356415
1630588194796,76218,281923,356388
1630588194806,76195,281941,356381
1630588194816,76146,281903,356378
1630588194826,76108,281925,356383
1630588194836,76066,281877,356333
1630588194846,76025,281873,356335
1630588194856,75978,281882,356365
1630588194866,75945,281840,356359
1630588194876,75899,281832,356350
1630588194886,75863,281786,356303
1630588194896,75849,281803,356301
1630588194906,75821,281804,356327
1630588194916,75801,281783,356277
1630588194926,75775,281829,356320
1630588194936,75762,281746,356284
1630588194946,75744,281775,356321
1630588194956,75725,281724,356295
1630588194966,75702,281764,356286
1630588194976,75690,281776,356316
1630588194986,75679,281762,356319
1630588194996,75679,281798,356302
1630588195006,75687,281751,356305
1630588195016,75690,281779,356307
1630588195026,75690,281790,356320
1630588195036,75699,281796,356329
1630588195046,75691,281772,356293
1630588195056,75688,281781,356312
1630588195066,75692,281750,356332
1630588195076,75685,281754,356320
1630588195086,75676,281754,356318
1630588195096,75679,281745,356337
1630588195106,75672,281739,356369
1630588195116,75672,281794,356334
1630588195126,75665,281742,356373
1630588195136,75662,281747,356334
1630588195146,75659,281777,356346
1630588195156,75661,281737,356332
1630588195166,75666,281766,356349
1630588195176,75678,281803,356356
1630588195186,75684,281800,356340
1630588195196,75701,281754,356418
1630588195206,75697,281788,356360
1630588195216,75685,281776,356387
1630588195226,75686,281808,356357
1630588195236,75721,281825,356356
1630588195246,75701,281842,356361
1630588195256,75716,281824,356424
1630588195266,75732,281849,356390
1630588195276,75745,281795,356438
1630588195286,75758,281795,356395
1630588195296,75758,281847,356449
1630588195306,75777,281846,356429
1630588195316,75800,281851,356484
1630588195326,75815,281909,356410
1630588195336,75825,281917,356437
1630588195346,75852,281934,356447
1630588195356,75855,281895,356441
1630588195366,75867,281923,356496
1630588195376,75892,281934,356439
1630588195386,75878,281916,356447
1630588195396,75910,281928,356455
1630588195406,75908,281955,356512
1630588195416,75934,281946,356498
1630588195426,75931,281926,356490
1630588195436,75966,281961,356504
1630588195446,75963,281979,356447
1630588195456,75980,281975,356484
1630588195466,75977,281952,356537
1630588195476,76002,281995,356529
1630588195486,76018,281987,356512
1630588195496,76037,282028,356527
1630588195506,76055,282047,356505
1630588195516,76073,282000,356534
1630588195526,76073,281970,356531
1630588195536,76100,282005,356576
1630588195546,76111,282035,356561
1630588195556,76126,282067,356565
1630588195566,76136,282045,356588
1630588195576,76140,282069,356559
1630588195586,76145,282037,356530
1630588195596,76124,282012,356545
1630588195606,76094,282028,356554
1630588195616,76058,281991,356546
1630588195626,76029,281911,356491
1630588195636,75985,281939,356476
1630588195646,75953,281922,356510
1630588195656,75900,281878,356477
1630588195666,75869,281876,356487
1630588195676,75836,281830,356523
1630588195686,75796,281846,356492
1630588195696,75769,281804,356453
1630588195706,75739,281834,356468
1630588195716,75713,281778,356468
1630588195726,75693,281798,356459
1630588195736,75684,281763,356443
1630588195746,75657,281775,356436
1630588195756,75630,281780,356452
1630588195766,75628,281786,356435
1630588195776,75603,281769,356489
1630588195786,75589,281755,356429
1630588195796,75590,281748,356435
1630588195806,75589,281778,356445
1630588195816,75588,281757,356437
1630588195826,75591,281778,356432
1630588195836,75606,281787,356481
1630588195846,75605,281830,356476
1630588195856,75604,281812,356458
1630588195866,75590,281801,356415
1630588195876,75583,281793,356452
1630588195886,75586,281775,356449
1630588195896,75589,281796,356448
1630588195906,75600,281787,356471
1630588195916,75582,281741,356461
1630588195926,75577,281782,356467
1630588195936,75573,281783,356486
1630588195946,75571,281787,356448
1630588195956,75570,281781,356448
1630588195966,75568,281815,356443
1630588195976,75571,281811,356449
1630588195986,75580,281798,356464
1630588195996,75581,281783,356462
1630588196006,75600,281810,356502
1630588196016,75601,281847,356478
1630588196026,75609,281847,356468
1630588196036,75616,281831,356513
1630588196046,75626,281815,356486
1630588196056,75633,281789,356479
1630588196066,75644,281827,356462
1630588196076,75653,281774,356542
1630588196086,75652,281835,356502
1630588196096,75668,281833,356538
1630588196106,75692,281863,356539
1630588196116,75696,281890,356523
1630588196126,75716,281848,356505
1630588196136,75726,281905,356509
1630588196146,75739,281882,356504
1630588196156,75761,281875,356538
1630588196166,75774,281899,356568
1630588196176,75785,281942,356542
1630588196186,75795,281937,356562
1630588196196,75802,281920,356516
1630588196206,75826,281926,356579
1630588196216,75828,281957,356555
1630588196226,75846,281952,356563
1630588196236,75868,281931,356591
1630588196246,75885,281993,356554
1630588196256,75887,281978,356551
1630588196266,75906,281971,356585
1630588196276,75909,281979,356546
1630588196286,75930,282020,356560
1630588196296,75942,282007,356596
1630588196306,75979,282021,356585
1630588196316,75977,282039,356619
1630588196326,75993,282027,356602
1630588196336,76002,282057,356623
1630588196346,76029,282074,356647
1630588196356,76041,282072,356602
1630588196366,76064,282072,356645
1630588196376,76075,282055,356603
1630588196386,76096,282097,356636
1630588196396,76091,282072,356633
1630588196406,76100,282105,356639
1630588196416,76107,282068,356625
1630588196426,76090,282037,356653
1630588196436,76046,282028,356608
1630588196446,76016,281980,356596
1630588196456,75969,281992,356611
1630588196466,75943,281909,356632
1630588196476,75907,281956,356572
1630588196486,75870,281932,356576
1630588196496,75835,281903,356555
1630588196506,75794,281869,356612
1630588196516,75760,281902,356537
1630588196526,75735,281875,356547
1630588196536,75718,281876,356541
1630588196546,75695,281812,356555
1630588196556,75663,281830,356505
1630588196566,75644,281824,356511
1630588196576,75630,281800,356541
1630588196586,75623,281827,356582
1630588196596,75585,281763,356508
1630588196606,75572,281791,356522
1630588196616,75561,281778,356519
1630588196626,75560,281778,356512
1630588196636,75552,281801,356540
1630588196646,75552,281812,356532
1630588196656,75553,281820,356482
1630588196666,75568,281803,356542
1630588196676,75556,281826,356550
1630588196686,75557,281849,356493
1630588196696,75573,281790,356536
1630588196706,75561,281819,356514
1630588196716,75566,281833,356533
1630588196726,75558,281818,356523
1630588196736,75578,281858,356536
1630588196746,75563,281771,356467
1630588196756,75569,281798,356510
1630588196766,75550,281812,356501
1630588196776,75562,281809,356495
1630588196786,75566,281797,356513
1630588196796,75579,281770,356561
1630588196806,75586,281780,356491
1630588196816,75590,281778,356547
1630588196826,75584,281831,356496
1630588196836,75593,281850,356526
1630588196846,75606,281829,356521
1630588196856,75614,281838,356513
1630588196866,75624,281830,356530
1630588196876,75626,281800,356539
1630588196886,75638,281835,356547
1630588196896,75647,281887,356581
1630588196906,75663,281844,356563
1630588196916,75683,281846,356547
1630588196926,75687,281884,356556
1630588196936,75706,281865,356549
1630588196946,75720,281918,356533
1630588196956,75753,281859,356544
1630588196966,75759,281891,356603
1630588196976,75776,281902,356543
1630588196986,75782,281919,356532
1630588196996,75793,281938,356584
1630588197006,75813,281921,356580
1630588197016,75833,281922,356579
1630588197026,75844,281957,356558
1630588197036,75878,281964,356627
1630588197046,75907,281939,356590
1630588197056,75906,281994,356570
1630588197066,75911,281988,356617
1630588197076,75931,281965,356619
1630588197086,75954,281968,356608
1630588197096,75952,281978,356593
1630588197106,75966,282015,356598
1630588197116,75997,281994,356604
1630588197126,76020,282006,356620
1630588197136,76028,282027,356642
1630588197146,76052,282046,356648
1630588197156,76070,282057,356629
1630588197166,76071,282064,356616
1630588197176,76090,282062,356710
1630588197186,76108,282090,356631
1630588197196,76116,282081,356661
1630588197206,76135,282061,356657
1630588197216,76162,282051,356655
1630588197226,76174,282056,356674
1630588197236,76180,282110,356690
1630588197246,76194,282117,356671
1630588197256,76192,282074,356661
1630588197266,76179,282046,356684
1630588197276,76179,282041,356633
1630588197286,76134,282019,356656
1630588197296,76123,282001,356647
1630588197306,76084,281963,356646
1630588197316,76053,281926,356651
1630588197326,76017,281921,356617
1630588197336,75984,281942,356617
1630588197346,75952,281968,356589
1630588197356,75928,281878,356623
1630588197366,75934,281901,356590
1630588197376,75892,281882,356593
1630588197386,75862,281893,356590
1630588197396,75841,281854,356585
1630588197406,75839,281891,356550
1630588197416,75814,281843,356553
1630588197426,75800,281814,356575
1630588197436,75804,281858,356521
1630588197446,75787,281850,356537
1630588197456,75783,281853,356528
1630588197466,75778,281840,356555
1630588197476,75775,281852,356553
1630588197486,75772,281870,356551
1630588197496,75771,281811,356557
1630588197506,75791,281855,356552
1630588197516,75788,281836,356573
1630588197526,75800,281901,356561
1630588197536,75821,281832,356557
1630588197546,75809,281859,356559
1630588197556,75812,281855,356592
1630588197566,75830,281876,356612
1630588197576,75824,281847,356530
1630588197586,75834,281840,356564
1630588197596,75843,281874,356574
1630588197606,75852,281797,356557
1630588197616,75847,281866,356568
1630588197626,75852,281843,356541
1630588197636,75853,281832,356539
1630588197646,75864,281854,356552
1630588197656,75877,281882,356560
1630588197666,75883,281841,356567
1630588197676,75890,281827,356506
1630588197686,75914,281907,356567
1630588197696,75910,281854,356569
1630588197706,75928,281879,356547
1630588197716,75938,281917,356553
1630588197726,75955,281925,356574
1630588197736,75968,281938,356573
1630588197746,75972,281944,356575
1630588197756,75988,281884,356538
1630588197766,76008,281922,356630
1630588197776,76037,281946,356603
1630588197786,76040,281918,356567
1630588197796,76054,281925,356604
1630588197806,76080,281989,356599
1630588197816,76097,281943,356578
1630588197826,76105,281952,356606
1630588197836,76124,281971,356621
1630588197846,76142,281969,356606
1630588197856,76165,281992,356613
1630588197866,76184,282005,356614
1630588197876,76185,282003,356599
1630588197886,76220,282029,356657
1630588197896,76227,282094,356674
1630588197906,76244,282015,356679
1630588197916,76262,282039,356615
1630588197926,76279,282063,356646
1630588197936,76308,282074,356647
1630588197946,76323,282111,356645
1630588197956,76326,282051,356676
1630588197966,76349,282062,356672
1630588197976,76367,282085,356692
1630588197986,76367,282102,356682
1630588197996,76383,282077,356667
1630588198006,76429,282098,356679
1630588198016,76439,282098,356671
1630588198026,76451,282106,356686
1630588198036,76459,282128,356666
1630588198046,76488,282149,356709
1630588198056,76499,282118,356691
1630588198066,76529,282176,356689
1630588198076,76522,282136,356729
1630588198086,76537,282117,356680
1630588198096,76533,282137,356721
1630588198106,76515,282066,356664
1630588198116,76486,282062,356701
1630588198126,76465,282031,356626
1630588198136,76420,282040,356638
1630588198146,76396,282010,356674
1630588198156,76382,281996,356650
1630588198166,76337,281989,356667
1630588198176,76323,281984,356615
1630588198186,76301,281950,356597
1630588198196,76289,281943,356638
1630588198206,76270,281958,356623
1630588198216,76266,281943,356625
1630588198226,76266,281934,356608
1630588198236,76237,281936,356599
1630588198246,76222,281919,356573
1630588198256,76227,281908,356594
1630588198266,76222,281899,356581
1630588198276,76210,281900,356578
1630588198286,76213,281911,356609
1630588198296,76204,281874,356601
1630588198306,76210,281878,356562
1630588198316,76224,281945,356567
1630588198326,76228,281895,356587
1630588198336,76220,281885,356533
1630588198346,76251,281953,356584
1630588198356,76242,281897,356562
1630588198366,76231,281894,356559
1630588198376,76232,281918,356571
1630588198386,76234,281932,356520
1630588198396,76256,281905,356573
1630588198406,76242,281894,356524
1630588198416,76246,281895,356534
1630588198426,76256,281947,356554
1630588198436,76244,281878,356557
1630588198446,76265,281888,356540
1630588198456,76265,281873,356559
1630588198466,76266,281939,356526
1630588198476,76270,281879,356543
1630588198486,76293,281928,356557
1630588198496,76300,281922,356559
1630588198506,76308,281920,356549
1630588198516,76320,281911,356536
1630588198526,76320,281896,356540
1630588198536,76321,281963,356552
1630588198546,76332,281914,356509
1630588198556,76355,281930,356540
1630588198566,76371,281934,356584
1630588198576,76385,281974,356556
1630588198586,76392,281988,356583
1630588198596,76409,281926,356556
1630588198606,76417,281978,356554
1630588198616,76432,281980,356568
1630588198626,76449,281967,356529
1630588198636,76465,281971,356561
1630588198646,76465,281990,356582
1630588198656,76498,281961,356537
1630588198666,76504,282009,356551
1630588198676,76507,281983,356550
1630588198686,76529,282010,356550
1630588198696,76541,282000,356550
1630588198706,76553,282019,356541
1630588198716,76577,281993,356538
1630588198726,76575,282057,356566
1630588198736,76602,282046,356545
1630588198746,76617,282063,356567
1630588198756,76631,282039,356571
1630588198766,76638,282024,356578
1630588198776,76644,282026,356586
1630588198786,76664,282055,356614
1630588198796,76701,282044,356570
1630588198806,76697,282071,356559
1630588198816,76731,282057,356589
1630588198826,76746,282064,356633
1630588198836,76753,282079,356614
1630588198846,76773,282142,356631
1630588198856,76786,282111,356599
1630588198866,76788,282122,356576
1630588198876,76809,282116,356614
1630588198886,76803,282123,356619
1630588198896,76809,282062,356577
1630588198906,76799,282054,356610
1630588198916,76785,282030,356560
1630588198926,76765,282021,356543
1630588198936,76730,282006,356562
1630588198946,76695,281956,356532
1630588198956,76662,281981,356531
1630588198966,76647,281948,356534
1630588198976,76608,281910,356472
1630588198986,76584,281910,356513
1630588198996,76566,281949,356494
1630588199006,76539,281922,356543
1630588199016,76523,281855,356483
1630588199026,76507,281916,356487
1630588199036,76472,281888,356477
1630588199046,76462,281854,356475
1630588199056,76443,281833,356453
1630588199066,76431,281873,356460
1630588199076,76416,281865,356467
1630588199086,76398,281852,356457
1630588199096,76383,281857,356469
1630588199106,76370,281794,356442
1630588199116,76369,281910,356420
1630588199126,76376,281863,356455
1630588199136,76372,281844,356450
1630588199146,76389,281837,356424
1630588199156,76385,281830,356488
1630588199166,76395,281851,356447
1630588199176,76375,281864,356436
1630588199186,76387,281786,356420
1630588199196,76404,281811,356426
1630588199206,76388,281839,356465
1630588199216,76380,281817,356466
1630588199226,76390,281833,356387
1630588199236,76372,281830,356444
1630588199246,76377,281772,356447
1630588199256,76395,281849,356441
1630588199266,76380,281882,356427
1630588199276,76370,281861,356419
1630588199286,76382,281783,356426
1630588199296,76372,281902,356381
1630588199306,76398,281826,356427
1630588199316,76390,281820,356390
1630588199326,76389,281849,356421
1630588199336,76399,281840,356456
1630588199346,76410,281868,356410
1630588199356,76421,281839,356437
1630588199366,76422,281866,356412
1630588199376,76441,281818,356421
1630588199386,76443,281851,356384
1630588199396,76454,281836,356392
1630588199406,76466,281896,356426
1630588199416,76474,281838,356433
1630588199426,76479,281878,356410
1630588199436,76492,281863,356437
1630588199446,76504,281864,356419
1630588199456,76522,281880,356394
1630588199466,76538,281844,356407
1630588199476,76542,281895,356461
1630588199486,76564,281904,356402
1630588199496,76579,281880,356446
1630588199506,76596,281872,356433
1630588199516,76603,281934,356445
1630588199526,76610,281932,356474
1630588199536,76617,281954,356456
1630588199546,76639,281943,356468
1630588199556,76667,281947,356465
1630588199566,76665,281930,356456
1630588199576,76685,281960,356453
1630588199586,76690,281979,356459
1630588199596,76698,281996,356433
1630588199606,76719,281975,356443
1630588199616,76726,281993,356449
1630588199626,76745,282006,356475
1630588199636,76762,281991,356450
1630588199646,76770,281975,356425
1630588199656,76783,281985,356465
1630588199666,76791,281994,356457
1630588199676,76799,282015,356503
1630588199686,76819,282016,356476
1630588199696,76830,282043,356477
1630588199706,76816,282041,356500
1630588199716,76821,281971,356503
1630588199726,76798,281948,356499
1630588199736,76774,281975,356417
1630588199746,76743,281961,356433
1630588199756,76703,281935,356361
1630588199766,76672,281876,356373
1630588199776,76650,281889,356407
1630588199786,76619,281877,356385
1630588199796,76572,281879,356393
1630588199806,76549,281836,356381
1630588199816,76535,281847,356366
1630588199826,76513,281869,356344
1630588199836,76481,281855,356408
1630588199846,76474,281815,356382
1630588199856,76455,281799,356347
1630588199866,76420,281821,356308
1630588199876,76427,281833,356339
1630588199886,76406,281837,356355
1630588199896,76393,281804,356311
1630588199906,76394,281843,356329
1630588199916,76383,281804,356312
1630588199926,76375,281817,356278
1630588199936,76366,281831,356296
1630588199946,76371,281861,356328
1630588199956,76368,281862,356350
1630588199966,76359,281823,356302
1630588199976,76377,281821,356332
1630588199986,76380,281852,356315
1630588199996,76376,281838,356260
1630588200006,76375,281792,356261
1630588200016,76372,281803,356325
1630588200026,76352,281837,356276
1630588200036,76361,281797,356294
1630588200046,76353,281774,356300
1630588200056,76348,281771,356234
1630588200066,76346,281793,356245
1630588200076,76366,281808,356249
1630588200086,76348,281785,356254
1630588200096,76347,281806,356281
1630588200106,76371,281793,356280
1630588200116,76373,281818,356263
1630588200126,76350,281796,356279
1630588200136,76380,281803,356222
1630588200146,76385,281781,356279
1630588200156,76375,281819,356256
1630588200166,76386,281827,356234
1630588200176,76391,281810,356229
1630588200186,76393,281805,356259
1630588200196,76407,281823,356272
1630588200206,76425,281852,356262
1630588200216,76432,281833,356268
1630588200226,76444,281819,356249
1630588200236,76456,281856,356260
1630588200246,76466,281858,356211
1630588200256,76482,281842,356251
1630588200266,76465,281815,356236
1630588200276,76496,281878,356257
1630588200286,76509,281866,356250
1630588200296,76533,281891,356306
1630588200306,76535,281861,356289
1630588200316,76547,281893,356235
1630588200326,76556,281886,356216
1630588200336,76556,281876,356241
1630588200346,76577,281863,356289
1630588200356,76587,281866,356302
1630588200366,76598,281877,356269
1630588200376,76602,281885,356247
1630588200386,76610,281932,356290
1630588200396,76633,281901,356256
1630588200406,76638,281922,356256
1630588200416,76660,281927,356284
1630588200426,76668,281940,356316
1630588200436,76686,281963,356255
1630588200446,76683,281933,356245
1630588200456,76701,281934,356302
1630588200466,76727,281988,356297
1630588200476,76726,281961,356332
1630588200486,76739,281959,356309
1630588200496,76749,281984,356313
1630588200506,76758,282034,356338
1630588200516,76768,281987,356310
1630588200526,76775,281958,356301
1630588200536,76774,281968,356346
1630588200546,76762,281930,356330
1630588200556,76714,281907,356282
1630588200566,76707,281877,356295
1630588200576,76668,281899,356289
1630588200586,76630,281824,356217
1630588200596,76575,281813,356269
1630588200606,76530,281788,356220
1630588200616,76517,281813,356260
1630588200626,76488,281752,356219
1630588200636,76438,281776,356220
1630588200646,76408,281753,356184
1630588200656,76387,281770,356227
1630588200666,76362,281754,356188
1630588200676,76354,281703,356174
1630588200686,76330,281726,356221
1630588200696,76313,281767,356168
1630588200706,76284,281711,356160
1630588200716,76271,281702,356184
1630588200726,76248,281685,356201
1630588200736,76242,281742,356162
1630588200746,76223,281724,356184
1630588200756,76230,281728,356210
1630588200766,76231,281708,356167
1630588200776,76238,281720,356183
1630588200786,76229,281728,356176
1630588200796,76226,281705,356152
1630588200806,76220,281698,356192
1630588200816,76222,281721,356168
1630588200826,76218,281722,356146
1630588200836,76205,281657,356188
1630588200846,76198,281713,356190
1630588200856,76191,281670,356166
1630588200866,76184,281670,356162
1630588200876,76171,281708,356167
1630588200886,76162,281676,356151
1630588200896,76166,281655,356183
1630588200906,76164,281657,356193
1630588200916,76171,281676,356194
1630588200926,76173,281677,356189
1630588200936,76165,281685,356122
1630588200946,76178,281676,356200
1630588200956,76154,281659,356139
1630588200966,76174,281683,356163
1630588200976,76180,281681,356161
1630588200986,76181,281711,356104
1630588200996,76178,281721,356146
1630588201006,76196,281694,356164
1630588201016,76201,281708,356148
1630588201026,76209,281687,356159
1630588201036,76229,281723,356182
1630588201046,76241,281741,356158
1630588201056,76229,281722,356181
1630588201066,76240,281793,356192
1630588201076,76262,281729,356211
1630588201086,76262,281721,356209
1630588201096,76279,281725,356171
1630588201106,76291,281753,356176
1630588201116,76289,281699,356162
1630588201126,76298,281790,356126
1630588201136,76302,281780,356190
1630588201146,76321,281778,356167
1630588201156,76320,281792,356208
1630588201166,76330,281770,356154
1630588201176,76359,281743,356166
1630588201186,76362,281797,356190
1630588201196,76363,281785,356162
1630588201206,76394,281777,356183
1630588201216,76381,281800,356176
1630588201226,76395,281756,356217
1630588201236,76389,281806,356208
1630588201246,76425,281847,356170
1630588201256,76436,281798,356238
1630588201266,76457,281810,356169
1630588201276,76439,281800,356186
1630588201286,76455,281802,356198
1630588201296,76462,281800,356166
1630588201306,76472,281868,356171
1630588201316,76483,281851,356175
1630588201326,76485,281803,356175
1630588201336,76481,281789,356193
1630588201346,76446,281733,356116
1630588201356,76419,281764,356130
1630588201366,76376,281693,356125
1630588201376,76332,281647,356111
1630588201386,76290,281660,356105
1630588201396,76250,281608,356101
1630588201406,76215,281628,356090
1630588201416,76160,281589,356100
1630588201426,76132,281589,356089
1630588201436,76104,281539,356077
1630588201446,76062,281510,356011
1630588201456,76022,281512,356009
1630588201466,75984,281498,356026
1630588201476,75954,281498,356038
1630588201486,75932,281443,355963
1630588201496,75921,281439,355940
1630588201506,75880,281416,355991
1630588201516,75856,281428,355989
1630588201526,75827,281406,355942
1630588201536,75797,281390,355946
1630588201546,75792,281388,355926
1630588201556,75783,281425,355927
1630588201566,75788,281374,355927
1630588201576,75786,281369,355944
1630588201586,75770,281391,355942
1630588201596,75767,281403,355946
1630588201606,75764,281400,355922
1630588201616,75760,281374,355935
1630588201626,75750,281386,355931
1630588201636,75739,281373,355947
1630588201646,75737,281381,355899
1630588201656,75733,281345,355957
1630588201666,75724,281378,355893
1630588201676,75726,281323,355954
1630588201686,75713,281336,355903
1630588201696,75714,281333,355919
1630588201706,75689,281348,355928
1630588201716,75691,281340,355907
1630588201726,75676,281313,355934
1630588201736,75687,281310,355923
1630588201746,75698,281321,355935
1630588201756,75712,281324,355890
1630588201766,75706,281334,355891
1630588201776,75698,281321,355893
1630588201786,75704,281318,355912
1630588201796,75717,281351,355913
1630588201806,75718,281362,355918
1630588201816,75729,281386,355910
1630588201826,75738,281336,355893
1630588201836,75744,281373,355885
1630588201846,75744,281365,355928
1630588201856,75761,281379,355889
1630588201866,75775,281391,355898
1630588201876,75764,281387,355890
1630588201886,75796,281365,355911
1630588201896,75816,281384,355913
1630588201906,75817,281399,355976
1630588201916,75821,281423,355923
1630588201926,75823,281399,355910
1630588201936,75836,281384,355945
1630588201946,75852,281428,355938
1630588201956,75864,281410,355961
1630588201966,75869,281427,355949
1630588201976,75879,281417,355951
1630588201986,75896,281464,355960
1630588201996,75924,281412,355953
1630588202006,75919,281483,355986
1630588202016,75930,281450,355984
1630588202026,75944,281473,356013
1630588202036,75956,281458,355979
1630588202046,75967,281478,355953
1630588202056,75979,281477,355960
1630588202066,75999,281512,355994
1630588202076,76002,281528,355979
1630588202086,76007,281557,355995
1630588202096,76027,281517,355974
1630588202106,76029,281529,355994
1630588202116,76046,281518,355986
1630588202126,76049,281567,355998
1630588202136,76065,281524,356015
1630588202146,76060,281508,355976
1630588202156,76046,281492,355978
1630588202166,76016,281437,356015
1630588202176,75977,281421,355985
1630588202186,75937,281346,355934
1630588202196,75870,281378,355939
1630588202206,75822,281400,355925
1630588202216,75787,281336,355899
1630588202226,75742,281322,355951
1630588202236,75710,281324,355928
1630588202246,75674,281332,355883
1630588202256,75654,281294,355932
1630588202266,75616,281268,355909
1630588202276,75589,281300,355888
1630588202286,75562,281264,355941
1630588202296,75536,281249,355913
1630588202306,75521,281240,355836
1630588202316,75493,281223,355902
1630588202326,75472,281204,355873
1630588202336,75444,281222,355854
1630588202346,75429,281215,355827
1630588202356,75423,281225,355829
1630588202366,75395,281203,355860
1630588202376,75394,281180,355835
1630588202386,75392,281187,355835
1630588202396,75402,281191,355819
1630588202406,75399,281205,355882
1630588202416,75410,281193,355907
1630588202426,75409,281194,355862
1630588202436,75407,281182,355842
1630588202446,75414,281196,355831
1630588202456,75410,281198,355822
1630588202466,75392,281237,355834
1630588202476,75406,281154,355827
1630588202486,75399,281193,355862
1630588202496,75377,281232,355827
1630588202506,75401,281216,355841
1630588202516,75385,281182,355880
1630588202526,75385,281190,355882
1630588202536,75398,281175,355855
1630588202546,75397,281200,355869
1630588202556,75401,281206,355861
1630588202566,75409,281195,355900
1630588202576,75428,281203,355858
1630588202586,75419,281245,355852
1630588202596,75427,281221,355875
1630588202606,75431,281261,355861
1630588202616,75452,281237,355901
1630588202626,75465,281289,355879
1630588202636,75473,281243,355856
1630588202646,75493,281262,355900
1630588202656,75500,281253,355869
1630588202666,75510,281275,355906
1630588202676,75518,281265,355909
1630588202686,75532,281254,355902
1630588202696,75567,281308,355880
1630588202706,75577,281310,355955
1630588202716,75594,281366,355895
1630588202726,75613,281329,355957
1630588202736,75607,281277,355941
1630588202746,75645,281348,355946
1630588202756,75662,281324,355947
1630588202766,75660,281357,355939
1630588202776,75666,281366,355939
1630588202786,75678,281399,355925
1630588202796,75710,281372,355938
1630588202806,75716,281355,356002
1630588202816,75727,281358,355989
1630588202826,75735,281375,355983
1630588202836,75749,281419,355982
1630588202846,75775,281404,355971
1630588202856,75791,281391,355980
1630588202866,75798,281446,355954
1630588202876,75823,281451,356008
1630588202886,75828,281454,355973
1630588202896,75849,281444,355995
1630588202906,75866,281474,356003
1630588202916,75878,281425,355998
1630588202926,75894,281498,356002
1630588202936,75904,281472,356046
1630588202946,75920,281493,356039
1630588202956,75932,281507,356053
1630588202966,75940,281470,356016
1630588202976,75937,281486,356046
1630588202986,75911,281453,356004
1630588202996,75876,281407,356005
1630588203006,75836,281360,355954
1630588203016,75795,281375,355952
1630588203026,75768,281366,355990
1630588203036,75728,281317,355947
1630588203046,75677,281296,355953
1630588203056,75665,281274,355963
1630588203066,75632,281256,355902
1630588203076,75604,281256,355917
1630588203086,75574,281275,355933
1630588203096,75538,281256,355962
1630588203106,75535,281219,355895
1630588203116,75526,281253,355915
1630588203126,75492,281221,355929
1630588203136,75462,281201,355953
1630588203146,75470,281182,355884
1630588203156,75462,281170,355945
1630588203166,75430,281178,355865
1630588203176,75421,281170,355905
1630588203186,75423,281176,355908
1630588203196,75435,281241,355879
1630588203206,75426,281236,355855
1630588203216,75439,281182,355909
1630588203226,75446,281156,355853
1630588203236,75422,281181,355854
1630588203246,75436,281202,355848
1630588203256,75442,281196,355864
1630588203266,75438,281156,355856
1630588203276,75445,281134,355845
1630588203286,75445,281175,355836
1630588203296,75429,281149,355861
1630588203306,75443,281148,355885
1630588203316,75431,281125,355854
1630588203326,75443,281149,355812
1630588203336,75439,281087,355806
1630588203346,75437,281170,355830
1630588203356,75429,281133,355779
1630588203366,75453,281164,355827
1630588203376,75438,281145,355818
1630588203386,75448,281139,355827
1630588203396,75457,281114,355815
1630588203406,75458,281101,355804
1630588203416,75474,281139,355801
1630588203426,75487,281140,355818
1630588203436,75494,281125,355806
1630588203446,75504,281152,355847
1630588203456,75526,281194,355826
1630588203466,75529,281169,355832
1630588203476,75551,281151,355805
1630588203486,75559,281187,355820
1630588203496,75560,281173,355853
1630588203506,75577,281175,355825
1630588203516,75592,281155,355885
1630588203526,75604,281218,355839
1630588203536,75629,281211,355851
1630588203546,75640,281255,355868
1630588203556,75636,281195,355825
1630588203566,75662,281221,355849
1630588203576,75679,281243,355833
1630588203586,75678,281260,355823
1630588203596,75703,281195,355842
1630588203606,75717,281217,355843
1630588203616,75729,281215,355853
1630588203626,75742,281254,355841
1630588203636,75750,281297,355914
1630588203646,75764,281300,355896
1630588203656,75787,281269,355885
1630588203666,75792,281297,355874
1630588203676,75819,281302,355856
1630588203686,75816,281318,355910
1630588203696,75847,281332,355909
1630588203706,75841,281321,355894
1630588203716,75866,281329,355897
1630588203726,75885,281367,355896
1630588203736,75894,281345,355911
1630588203746,75910,281340,355909
1630588203756,75917,281349,355928
1630588203766,75935,281271,355930
1630588203776,75902,281327,355923
1630588203786,75893,281272,355903
1630588203796,75857,281256,355900
1630588203806,75822,281231,355846
1630588203816,75796,281205,355890
1630588203826,75772,281224,355878
1630588203836,75718,281186,355861
1630588203846,75691,281140,355858
1630588203856,75653,281162,355852
1630588203866,75620,281151,355854
1630588203876,75596,281169,355834
1630588203886,75571,281137,355834
1630588203896,75554,281103,355856
1630588203906,75528,281093,355813
1630588203916,75510,281092,355800
1630588203926,75510,281093,355815
1630588203936,75481,281074,355770
1630588203946,75466,281029,355787
1630588203956,75476,281065,355782
1630588203966,75443,281048,355765
1630588203976,75442,280999,355772
1630588203986,75439,281057,355765
1630588203996,75438,281048,355795
1630588204006,75449,281094,355771
1630588204016,75455,281082,355776
1630588204026,75474,281066,355765
1630588204036,75469,281070,355791
1630588204046,75489,281089,355758
1630588204056,75473,281058,355762
1630588204066,75489,281063,355730
1630588204076,75488,281042,355765
1630588204086,75491,281082,355797
1630588204096,75470,281053,355762
1630588204106,75491,281055,355802
1630588204116,75497,281095,355753
1630588204126,75475,281086,355759
1630588204136,75490,281055,355783
1630588204146,75496,281070,355781
1630588204156,75485,281027,355761
1630588204166,75516,281103,355768
1630588204176,75515,281081,355760
1630588204186,75531,281075,355768
1630588204196,75540,281052,355806
1630588204206,75540,281123,355826
1630588204216,75547,281089,355783
1630588204226,75567,281123,355790
1630588204236,75570,281130,355812
1630588204246,75595,281093,355792
1630588204256,75604,281126,355844
1630588204266,75619,281108,355838
1630588204276,75633,281139,355817
