timestamp,green,ir,red
1630588169004,109067,339855,404741
1630588169014,109029,339876,404689
1630588169024,109011,339854,404695
1630588169034,108982,339862,404643
1630588169044,108954,339827,404560
1630588169054,108954,339811,404612
1630588169064,108927,339791,404579
1630588169074,108928,339815,404600
1630588169084,108918,339776,404600
1630588169094,108874,339747,404624
1630588169104,108881,339737,404650
1630588169114,108884,339763,404651
1630588169124,108863,339704,404670
1630588169134,108873,339695,404608
1630588169144,108829,339708,404581
1630588169154,108834,339665,404551
1630588169164,108822,339663,404525
1630588169174,108815,339619,404562
1630588169184,108801,339597,404546
1630588169194,108816,339581,404567
1630588169204,108814,339587,404665
1630588169214,108819,339586,404575
1630588169224,108816,339621,404584
1630588169234,108808,339591,404587
1630588169244,108841,339580,404610
1630588169254,108852,339565,404619
1630588169264,108845,339551,404595
1630588169274,108863,339577,404626
1630588169284,108853,339545,404625
1630588169294,108874,339606,404578
1630588169304,108893,339625,404683
1630588169314,108934,339804,404741
1630588169324,108956,340000,404894
1630588169334,108972,340163,404994
1630588169344,108965,340257,405004
1630588169354,108990,340214,404977
1630588169364,108995,340168,405009
1630588169374,108973,340150,404985
1630588169384,108994,340127,404990
1630588169394,109001,340138,404855
1630588169404,109003,340189,404814
1630588169414,109007,340163,404723
1630588169424,109013,340098,404693
1630588169434,108995,340028,404720
1630588169444,109026,339947,404592
1630588169454,108977,339908,404513
1630588169464,108970,339926,404463
1630588169474,108929,339912,404336
1630588169484,108927,339948,404237
1630588169494,108867,339980,404117
1630588169504,108840,340015,404045
1630588169514,108819,340002,404004
1630588169524,108783,339969,403896
1630588169534,108764,339913,403784
1630588169544,108721,339911,403744
1630588169554,108705,339883,403716
1630588169564,108657,339886,403612
1630588169574,108626,339837,403565
1630588169584,108619,339755,403495
1630588169594,108563,339752,403369
1630588169604,108532,339711,403263
1630588169614,108513,339681,403220
1630588169624,108456,339694,403082
1630588169634,108450,339635,403066
1630588169644,108435,339646,402937
1630588169654,108405,339690,402835
1630588169664,108378,339674,402731
1630588169674,108348,339659,402637
1630588169684,108308,339719,402522
1630588169694,108285,339658,402469
1630588169704,108284,339615,402428
1630588169714,108273,339597,402438
1630588169724,108264,339586,402446
1630588169734,108259,339593,402321
1630588169744,108225,339572,402279
1630588169754,108160,339541,402197
1630588169764,108111,339478,402096
1630588169774,108048,339524,402071
1630588169784,108044,339476,401995
1630588169794,108018,339420,401999
1630588169804,107992,339530,401985
1630588169814,107960,339471,401963
1630588169824,107921,339440,401962
1630588169834,107909,339449,401987
1630588169844,107888,339418,402005
1630588169854,107882,339454,402010
1630588169864,107853,339433,401993
1630588169874,107876,339458,401943
1630588169884,107851,339447,401972
1630588169894,107857,339416,401980
1630588169904,107832,339410,402060
1630588169914,107839,339368,402071
1630588169924,107836,339392,402091
1630588169934,107830,339401,402064
1630588169944,107825,339412,402039
1630588169954,107781,339410,402004
1630588169964,107825,339468,402046
1630588169974,107833,339455,402025
1630588169984,107841,339427,402048
1630588169994,107841,339468,402063
1630588170004,107852,339484,402100
1630588170014,107847,339504,402092
1630588170024,107875,339489,402139
1630588170034,107877,339480,402101
1630588170044,107897,339509,402075
1630588170054,107894,339507,402017
1630588170064,107889,339489,401933
1630588170074,107908,339429,401883
1630588170084,107875,339433,401860
1630588170094,107867,339424,401805
1630588170104,107848,339385,401808
1630588170114,107877,339368,401809
1630588170124,107906,339371,401786
1630588170134,107920,339363,401792
1630588170144,107904,339301,401769
1630588170154,107925,339331,401802
1630588170164,107942,339355,401794
1630588170174,107955,339391,401786
1630588170184,107942,339379,401792
1630588170194,107956,339408,401733
1630588170204,107933,339411,401690
1630588170214,107924,339478,401574
1630588170224,107914,339460,401519
1630588170234,107885,339471,401468
1630588170244,107874,339500,401400
1630588170254,107850,339456,401361
1630588170264,107833,339471,401303
1630588170274,107833,339474,401240
1630588170284,107802,339512,401210
1630588170294,107818,339496,401094
1630588170304,107807,339477,401046
1630588170314,107779,339476,400970
1630588170324,107758,339448,400859
1630588170334,107736,339453,400725
1630588170344,107721,339415,400654
1630588170354,107709,339490,400596
1630588170364,107730,339466,400541
1630588170374,107697,339400,400474
1630588170384,107685,339443,400471
1630588170394,107685,339429,400397
1630588170404,107707,339416,400363
1630588170414,107690,339413,400321
1630588170424,107702,339370,400321
1630588170434,107707,339367,400367
1630588170444,107722,339342,400346
1630588170454,107731,339326,400336
1630588170464,107733,339315,400358
1630588170474,107725,339322,400374
1630588170484,107715,339317,400362
1630588170494,107711,339335,400358
1630588170504,107691,339319,400350
1630588170514,107682,339285,400389
1630588170524,107699,339266,400409
1630588170534,107701,339268,400492
1630588170544,107686,339259,400530
1630588170554,107720,339301,400610
1630588170564,107719,339281,400624
1630588170574,107710,339240,400639
1630588170584,107718,339246,400651
1630588170594,107725,339216,400604
1630588170604,107729,339200,400646
1630588170614,107752,339175,400689
1630588170624,107754,339225,400731
1630588170634,107763,339210,400782
1630588170644,107770,339248,400814
1630588170654,107800,339276,400852
1630588170664,107836,339259,400995
1630588170674,107845,339260,400952
1630588170684,107863,339290,401055
1630588170694,107881,339286,401118
1630588170704,107916,339293,401107
1630588170714,107922,339302,401173
1630588170724,107926,339286,401154
1630588170734,107950,339320,401233
1630588170744,108004,339359,401338
1630588170754,108011,339310,401411
1630588170764,108012,339338,401431
1630588170774,108045,339305,401445
1630588170784,108073,339323,401495
1630588170794,108078,339387,401500
1630588170804,108067,339373,401544
1630588170814,108076,339424,401576
1630588170824,108096,339465,401639
1630588170834,108102,339419,401618
1630588170844,108124,339453,401665
1630588170854,108140,339515,401658
1630588170864,108156,339492,401694
1630588170874,108186,339544,401731
1630588170884,108166,339556,401757
1630588170894,108179,339590,401726
1630588170904,108197,339486,401764
1630588170914,108226,339539,401814
1630588170924,108232,339535,401820
1630588170934,108245,339539,401810
1630588170944,108251,339558,401784
1630588170954,108255,339502,401845
1630588170964,108289,339519,401964
1630588170974,108325,339453,402019
1630588170984,108358,339450,402069
1630588170994,108401,339413,402184
1630588171004,108439,339375,402295
1630588171014,108489,339341,402319
1630588171024,108501,339296,402371
1630588171034,108574,339213,402479
1630588171044,108559,339220,402556
1630588171054,108602,339220,402543
1630588171064,108624,339116,402639
1630588171074,108626,339160,402639
1630588171084,108640,339102,402651
1630588171094,108649,339097,402625
1630588171104,108672,339079,402629
1630588171114,108666,339076,402663
1630588171124,108668,339066,402688
1630588171134,108673,339046,402684
1630588171144,108681,339104,402717
1630588171154,108674,339078,402667
1630588171164,108700,339061,402634
1630588171174,108687,339001,402644
1630588171184,108674,338935,402604
1630588171194,108665,338924,402526
1630588171204,108633,338955,402505
1630588171214,108590,338930,402451
1630588171224,108573,338927,402389
1630588171234,108559,338805,402340
1630588171244,108539,338827,402344
1630588171254,108518,338799,402355
1630588171264,108529,338752,402347
1630588171274,108500,338809,402335
1630588171284,108488,338812,402293
1630588171294,108480,338885,402289
1630588171304,108471,338832,402213
1630588171314,108456,338847,402204
1630588171324,108449,338849,402195
1630588171334,108456,338836,402129
1630588171344,108435,338894,402106
1630588171354,108417,338871,402064
1630588171364,108389,338870,402033
1630588171374,108405,338826,401982
1630588171384,108368,338871,401941
1630588171394,108381,338808,401903
1630588171404,108396,338829,401923
1630588171414,108396,338847,401965
1630588171424,108423,338851,401927
1630588171434,108393,338866,401885
1630588171444,108391,338921,401934
1630588171454,108394,338871,401856
1630588171464,108411,338871,401850
1630588171474,108429,338877,401850
1630588171484,108398,338810,401801
1630588171494,108399,338778,401744
1630588171504,108380,338804,401723
1630588171514,108371,338797,401726
1630588171524,108342,338813,401667
1630588171534,108376,338759,401632
1630588171544,108325,338796,401576
1630588171554,108349,338782,401552
1630588171564,108357,338799,401511
1630588171574,108336,338796,401515
1630588171584,108346,338814,401541
1630588171594,108351,338820,401521
1630588171604,108350,338810,401514
1630588171614,108337,338829,401471
1630588171624,108317,338859,401445
1630588171634,108309,338941,401431
1630588171644,108297,338937,401420
1630588171654,108314,338880,401399
1630588171664,108318,338924,401371
1630588171674,108314,338961,401378
1630588171684,108318,338926,401356
1630588171694,108330,338948,401387
1630588171704,108325,338917,401387
1630588171714,108362,338973,401413
1630588171724,108360,338976,401361
1630588171734,108357,338972,401364
1630588171744,108383,338987,401365
1630588171754,108388,338994,401372
1630588171764,108403,339037,401366
1630588171774,108413,339077,401338
1630588171784,108401,339150,401426
1630588171794,108412,339121,401448
1630588171804,108401,339124,401445
1630588171814,108426,339141,401480
1630588171824,108451,339148,401473
1630588171834,108469,339156,401510
1630588171844,108499,339168,401494
1630588171854,108496,339139,401557
1630588171864,108481,339237,401601
1630588171874,108492,339208,401546
1630588171884,108482,339134,401552
1630588171894,108476,339178,401530
1630588171904,108466,339122,401509
1630588171914,108454,339149,401512
1630588171924,108433,339172,401510
1630588171934,108439,339142,401547
1630588171944,108414,339129,401472
1630588171954,108420,339178,401531
1630588171964,108406,339197,401563
1630588171974,108410,339148,401582
1630588171984,108428,339134,401615
1630588171994,108429,339134,401660
1630588172004,108472,339162,401661
1630588172014,108483,339192,401717
1630588172024,108479,339167,401709
1630588172034,108487,339166,401673
1630588172044,108495,339221,401680
1630588172054,108498,339231,401687
1630588172064,108488,339188,401733
1630588172074,108514,339213,401790
1630588172084,108501,339267,401780
1630588172094,108536,339240,401784
1630588172104,108540,339244,401838
1630588172114,108570,339243,401906
1630588172124,108570,339214,401904
1630588172134,108591,339311,401916
1630588172144,108607,339339,401954
1630588172154,108618,339325,401931
1630588172164,108614,339290,401935
1630588172174,108649,339362,401957
1630588172184,108636,339359,401953
1630588172194,108654,339364,401938
1630588172204,108650,339342,402007
1630588172214,108666,339400,402003
1630588172224,108684,339374,401983
1630588172234,108679,339350,402012
1630588172244,108700,339344,402039
1630588172254,108702,339425,402027
1630588172264,108714,339405,402044
1630588172274,108722,339432,402054
1630588172284,108744,339436,402048
1630588172294,108741,339448,402077
1630588172304,108739,339488,402050
1630588172314,108754,339508,402080
1630588172324,108747,339460,402082
1630588172334,108776,339468,402079
1630588172344,108780,339506,402139
1630588172354,108790,339485,402118
1630588172364,108801,339535,402104
1630588172374,108803,339526,402065
1630588172384,108813,339543,402027
1630588172394,108798,339588,402029
1630588172404,108812,339553,402060
1630588172414,108816,339564,402045
1630588172424,108813,339575,402067
1630588172434,108822,339605,402108
1630588172444,108819,339607,402063
1630588172454,108827,339598,402041
1630588172464,108824,339661,402043
1630588172474,108852,339577,402052
1630588172484,108846,339638,402058
1630588172494,108877,339604,402026
1630588172504,108869,339683,402041
1630588172514,108850,339640,402079
1630588172524,108869,339680,402058
1630588172534,108873,339714,402041
1630588172544,108857,339699,402050
1630588172554,108869,339759,402029
1630588172564,108847,339738,402021
1630588172574,108844,339702,401950
1630588172584,108813,339683,401913
1630588172594,108789,339682,401897
1630588172604,108771,339657,401835
1630588172614,108765,339628,401858
1630588172624,108763,339648,401847
1630588172634,108741,339653,401819
1630588172644,108746,339621,401901
1630588172654,108736,339620,401839
1630588172664,108740,339602,401884
1630588172674,108736,339609,401874
1630588172684,108752,339639,401906
1630588172694,108749,339610,401913
1630588172704,108753,339569,401912
1630588172714,108758,339612,401926
1630588172724,108776,339614,401975
1630588172734,108739,339623,401918
1630588172744,108757,339556,401978
1630588172754,108761,339617,401978
1630588172764,108746,339611,401964
1630588172774,108765,339572,401945
1630588172784,108768,339610,402000
1630588172794,108801,339631,402006
1630588172804,108802,339569,402028
1630588172814,108818,339540,402025
1630588172824,108836,339608,402043
1630588172834,108833,339609,402120
1630588172844,108852,339610,402084
1630588172854,108856,339625,402086
1630588172864,108868,339537,402072
1630588172874,108883,339592,402049
1630588172884,108891,339599,402098
1630588172894,108860,339589,402123
1630588172904,108900,339575,402130
1630588172914,108912,339600,402115
1630588172924,108893,339583,402169
1630588172934,108894,339621,402203
1630588172944,108913,339643,402168
1630588172954,108921,339606,402151
1630588172964,108920,339651,402199
1630588172974,108939,339619,402191
1630588172984,108935,339612,402195
1630588172994,108961,339628,402200
1630588173004,108952,339633,402195
1630588173014,108969,339576,402207
1630588173024,108981,339606,402212
1630588173034,108978,339596,402209
1630588173044,109003,339602,402236
1630588173054,109007,339567,402228
1630588173064,109009,339619,402256
1630588173074,109024,339629,402304
1630588173084,109025,339612,402315
1630588173094,109036,339591,402329
1630588173104,109048,339633,402333
1630588173114,109059,339637,402340
1630588173124,109088,339654,402407
1630588173134,109084,339656,402369
1630588173144,109092,339640,402414
1630588173154,109124,339662,402343
1630588173164,109125,339676,402437
1630588173174,109141,339649,402471
1630588173184,109150,339651,402420
1630588173194,109157,339680,402436
1630588173204,109179,339651,402418
1630588173214,109154,339682,402439
1630588173224,109169,339659,402443
1630588173234,109171,339672,402402
1630588173244,109191,339628,402425
1630588173254,109190,339679,402447
1630588173264,109196,339669,402418
1630588173274,109180,339700,402370
1630588173284,109177,339704,402366
1630588173294,109169,339669,402310
1630588173304,109125,339650,402304
1630588173314,109125,339649,402285
1630588173324,109121,339651,402267
1630588173334,109114,339605,402246
1630588173344,109103,339664,402263
1630588173354,109098,339614,402269
1630588173364,109101,339659,402283
1630588173374,109100,339640,402253
1630588173384,109093,339609,402309
1630588173394,109089,339625,402289
1630588173404,109099,339630,402291
1630588173414,109094,339560,402272
1630588173424,109085,339602,402271
1630588173434,109087,339584,402306
1630588173444,109083,339581,402280
1630588173454,109089,339593,402312
1630588173464,109113,339576,402288
1630588173474,109087,339557,402316
1630588173484,109100,339589,402375
1630588173494,109105,339585,402322
1630588173504,109113,339614,402364
1630588173514,109129,339581,402393
1630588173524,109132,339606,402406
1630588173534,109128,339571,402363
1630588173544,109146,339596,402380
1630588173554,109160,339572,402408
1630588173564,109169,339577,402427
1630588173574,109175,339608,402452
1630588173584,109185,339580,402463
1630588173594,109190,339637,402491
1630588173604,109192,339551,402513
1630588173614,109210,339626,402481
1630588173624,109219,339640,402514
1630588173634,109209,339612,402512
1630588173644,109222,339565,402553
1630588173654,109230,339604,402520
1630588173664,109245,339614,402551
1630588173674,109243,339607,402578
1630588173684,109267,339595,402577
1630588173694,109275,339608,402591
1630588173704,109268,339659,402615
1630588173714,109267,339623,402605
1630588173724,109274,339675,402620
1630588173734,109280,339677,402613
1630588173744,109312,339666,402621
1630588173754,109297,339675,402637
1630588173764,109338,339651,402659
1630588173774,109330,339635,402657
1630588173784,109341,339716,402655
1630588173794,109349,339645,402694
1630588173804,109333,339689,402667
1630588173814,109369,339691,402732
1630588173824,109357,339722,402669
1630588173834,109381,339728,402697
1630588173844,109404,339700,402736
1630588173854,109383,339728,402727
1630588173864,109425,339693,402691
1630588173874,109424,339725,402716
1630588173884,109415,339706,402736
1630588173894,109417,339707,402804
1630588173904,109443,339786,402763
1630588173914,109450,339713,402760
1630588173924,109472,339795,402786
1630588173934,109487,339749,402807
1630588173944,109504,339816,402820
1630588173954,109515,339758,402818
1630588173964,109492,339760,402825
1630588173974,109471,339770,402818
1630588173984,109501,339801,402800
1630588173994,109479,339790,402746
1630588174004,109453,339775,402718
1630588174014,109426,339802,402710
1630588174024,109410,339736,402631
1630588174034,109378,339721,402603
1630588174044,109376,339730,402651
1630588174054,109366,339721,402622
1630588174064,109362,339735,402618
1630588174074,109356,339762,402644
1630588174084,109359,339740,402656
1630588174094,109377,339737,402614
1630588174104,109365,339716,402683
1630588174114,109345,339722,402623
1630588174124,109377,339679,402673
1630588174134,109361,339671,402668
1630588174144,109365,339655,402659
1630588174154,109362,339664,402659
1630588174164,109354,339678,402683
1630588174174,109361,339682,402654
1630588174184,109360,339744,402685
1630588174194,109360,339691,402644
1630588174204,109357,339668,402685
1630588174214,109378,339664,402697
1630588174224,109378,339651,402669
1630588174234,109379,339646,402683
1630588174244,109390,339621,402733
1630588174254,109402,339677,402758
1630588174264,109389,339772,402701
1630588174274,109399,339675,402694
1630588174284,109377,339701,402714
1630588174294,109405,339682,402706
1630588174304,109377,339672,402742
1630588174314,109417,339689,402744
1630588174324,109421,339646,402718
1630588174334,109432,339685,402770
1630588174344,109409,339686,402746
1630588174354,109415,339672,402772
1630588174364,109424,339714,402770
1630588174374,109418,339690,402767
1630588174384,109433,339699,402828
1630588174394,109435,339670,402775
1630588174404,109456,339636,402806
1630588174414,109468,339720,402809
1630588174424,109466,339657,402797
1630588174434,109475,339728,402776
1630588174444,109474,339652,402794
1630588174454,109502,339686,402838
1630588174464,109463,339697,402807
1630588174474,109505,339705,402780
1630588174484,109507,339719,402834
1630588174494,109522,339706,402854
1630588174504,109509,339710,402858
1630588174514,109502,339664,402821
1630588174524,109517,339741,402828
1630588174534,109521,339732,402875
1630588174544,109527,339734,402863
1630588174554,109540,339752,402840
1630588174564,109538,339789,402847
1630588174574,109560,339738,402928
1630588174584,109543,339751,402907
1630588174594,109579,339742,402859
1630588174604,109561,339756,402904
1630588174614,109591,339749,402933
1630588174624,109589,339809,402907
1630588174634,109604,339763,402949
1630588174644,109622,339771,402948
1630588174654,109630,339776,402968
1630588174664,109632,339783,402985
1630588174674,109639,339764,402977
1630588174684,109656,339792,402996
1630588174694,109656,339733,402929
1630588174704,109660,339719,403014
1630588174714,109647,339774,402999
1630588174724,109629,339845,402972
1630588174734,109605,339819,402898
1630588174744,109610,339791,402880
1630588174754,109579,339777,402832
1630588174764,109564,339815,402782
1630588174774,109567,339779,402803
1630588174784,109544,339759,402760
1630588174794,109531,339731,402841
1630588174804,109527,339747,402863
1630588174814,109534,339740,402827
1630588174824,109500,339734,402807
1630588174834,109515,339716,402837
1630588174844,109504,339708,402859
1630588174854,109500,339699,402844
1630588174864,109520,339768,402871
1630588174874,109526,339714,402837
1630588174884,109520,339698,402869
1630588174894,109512,339693,402871
1630588174904,109543,339702,402886
1630588174914,109518,339720,402912
1630588174924,109525,339748,402887
1630588174934,109542,339723,402948
1630588174944,109554,339748,402942
1630588174954,109554,339744,402939
1630588174964,109540,339746,402928
1630588174974,109560,339712,402990
1630588174984,109552,339764,402952
1630588174994,109554,339693,402963
1630588175004,109557,339739,402947
1630588175014,109548,339709,402955
1630588175024,109552,339740,402937
1630588175034,109553,339769,402920
1630588175044,109565,339727,402979
1630588175054,109569,339731,402944
1630588175064,109573,339780,402977
1630588175074,109570,339753,402934
1630588175084,109561,339737,402941
1630588175094,109579,339721,402949
1630588175104,109590,339756,402947
1630588175114,109587,339731,402948
1630588175124,109581,339761,402953
1630588175134,109564,339779,402950
1630588175144,109586,339752,402944
1630588175154,109614,339838,402950
1630588175164,109603,339797,402944
1630588175174,109592,339767,402956
1630588175184,109614,339844,402945
1630588175194,109619,339795,402988
1630588175204,109611,339775,402982
1630588175214,109607,339825,403001
1630588175224,109627,339793,402990
1630588175234,109635,339789,402959
1630588175244,109636,339819,402935
1630588175254,109652,339765,402994
1630588175264,109657,339807,403010
1630588175274,109659,339845,402986
1630588175284,109656,339768,403012
1630588175294,109668,339789,402989
1630588175304,109666,339809,402997
1630588175314,109671,339834,402991
1630588175324,109656,339758,402996
1630588175334,109662,339791,402991
1630588175344,109666,339849,403010
1630588175354,109674,339806,403005
1630588175364,109682,339868,402994
1630588175374,109675,339830,403032
1630588175384,109682,339762,403014
1630588175394,109717,339804,403013
1630588175404,109703,339826,403012
1630588175414,109705,339836,403026
1630588175424,109719,339846,403020
1630588175434,109713,339807,403018
1630588175444,109722,339877,402948
1630588175454,109688,339820,402968
1630588175464,109677,339777,402911
1630588175474,109650,339821,402867
1630588175484,109621,339783,402837
1630588175494,109608,339783,402814
1630588175504,109579,339706,402799
1630588175514,109565,339713,402785
1630588175524,109546,339757,402792
1630588175534,109536,339738,402805
1630588175544,109557,339736,402802
1630588175554,109535,339673,402818
1630588175564,109547,339688,402818
1630588175574,109512,339717,402799
1630588175584,109485,339673,402835
1630588175594,109481,339652,402767
1630588175604,109511,339653,402772
1630588175614,109483,339644,402783
1630588175624,109484,339683,402773
1630588175634,109492,339612,402793
1630588175644,109489,339658,402771
1630588175654,109488,339623,402764
1630588175664,109485,339632,402785
1630588175674,109466,339615,402782
1630588175684,109497,339612,402804
1630588175694,109496,339626,402814
1630588175704,109485,339640,402799
1630588175714,109511,339600,402811
1630588175724,109505,339617,402775
1630588175734,109494,339603,402785
1630588175744,109506,339587,402804
1630588175754,109477,339597,402810
1630588175764,109511,339563,402799
1630588175774,109494,339607,402807
1630588175784,109495,339554,402813
1630588175794,109499,339593,402787
1630588175804,109493,339528,402787
1630588175814,109487,339539,402799
1630588175824,109479,339577,402784
1630588175834,109474,339579,402836
1630588175844,109498,339557,402795
1630588175854,109489,339598,402834
1630588175864,109512,339590,402817
1630588175874,109512,339596,402810
1630588175884,109533,339622,402864
1630588175894,109510,339546,402777
1630588175904,109504,339564,402823
1630588175914,109511,339572,402825
1630588175924,109533,339555,402813
1630588175934,109510,339565,402817
1630588175944,109538,339571,402852
1630588175954,109537,339600,402891
1630588175964,109530,339602,402850
1630588175974,109521,339565,402846
1630588175984,109536,339520,402862
1630588175994,109548,339550,402857
1630588176004,109543,339607,402832
1630588176014,109550,339609,402868
1630588176024,109575,339594,402931
1630588176034,109580,339593,402870
1630588176044,109559,339606,402904
1630588176054,109575,339585,402871
1630588176064,109582,339612,402872
1630588176074,109561,339609,402876
1630588176084,109565,339599,402956
1630588176094,109590,339588,402913
1630588176104,109616,339640,402916
1630588176114,109629,339579,402930
1630588176124,109618,339665,402931
1630588176134,109604,339603,402911
1630588176144,109612,339627,402949
1630588176154,109633,339649,402938
1630588176164,109638,339626,402960
1630588176174,109637,339642,402916
1630588176184,109627,339630,402871
1630588176194,109616,339660,402853
1630588176204,109602,339631,402835
1630588176214,109567,339593,402800
1630588176224,109519,339571,402746
1630588176234,109514,339594,402705
1630588176244,109496,339543,402722
1630588176254,109472,339582,402714
1630588176264,109424,339553,402714
1630588176274,109429,339584,402726
1630588176284,109405,339546,402696
1630588176294,109382,339564,402706
1630588176304,109378,339500,402666
1630588176314,109364,339549,402698
1630588176324,109357,339530,402675
1630588176334,109354,339489,402701
1630588176344,109328,339530,402716
1630588176354,109337,339489,402646
1630588176364,109325,339548,402674
1630588176374,109304,339497,402679
1630588176384,109304,339509,402677
1630588176394,109298,339491,402669
1630588176404,109296,339446,402674
1630588176414,109311,339491,402707
1630588176424,109284,339474,402675
1630588176434,109307,339467,402678
1630588176444,109300,339440,402715
1630588176454,109307,339428,402720
1630588176464,109280,339413,402680
1630588176474,109270,339459,402665
1630588176484,109304,339483,402705
1630588176494,109320,339511,402713
1630588176504,109304,339473,402714
1630588176514,109297,339436,402698
1630588176524,109294,339474,402692
1630588176534,109274,339463,402679
1630588176544,109272,339474,402721
1630588176554,109250,339476,402672
1630588176564,109249,339466,402652
1630588176574,109272,339486,402670
1630588176584,109264,339438,402681
1630588176594,109246,339434,402674
1630588176604,109269,339484,402669
1630588176614,109283,339437,402735
1630588176624,109258,339466,402708
1630588176634,109269,339445,402731
1630588176644,109276,339418,402710
1630588176654,109282,339461,402742
1630588176664,109257,339433,402711
1630588176674,109273,339457,402731
1630588176684,109289,339419,402712
1630588176694,109299,339430,402722
1630588176704,109298,339477,402710
1630588176714,109261,339461,402705
1630588176724,109290,339489,402705
1630588176734,109291,339445,402733
1630588176744,109287,339442,402743
1630588176754,109304,339481,402756
1630588176764,109307,339457,402783
1630588176774,109306,339471,402733
1630588176784,109332,339459,402752
1630588176794,109328,339410,402752
1630588176804,109333,339477,402746
1630588176814,109326,339513,402766
1630588176824,109322,339450,402760
1630588176834,109349,339501,402795
1630588176844,109337,339517,402767
1630588176854,109315,339482,402776
1630588176864,109339,339491,402826
1630588176874,109360,339475,402787
1630588176884,109322,339506,402803
1630588176894,109365,339476,402763
1630588176904,109369,339570,402797
1630588176914,109379,339525,402797
1630588176924,109382,339517,402812
1630588176934,109366,339488,402811
1630588176944,109356,339507,402797
1630588176954,109325,339479,402759
1630588176964,109309,339499,402675
1630588176974,109276,339506,402651
1630588176984,109233,339476,402596
1630588176994,109229,339422,402586
1630588177004,109179,339464,402581
1630588177014,109159,339435,402587
1630588177024,109141,339461,402533
1630588177034,109129,339415,402590
1630588177044,109096,339441,402565
1630588177054,109101,339376,402558
1630588177064,109085,339402,402537
1630588177074,109087,339352,402528
1630588177084,109048,339360,402575
1630588177094,109076,339370,402520
1630588177104,109048,339356,402581
1630588177114,109024,339355,402551
1630588177124,109003,339343,402542
1630588177134,108995,339365,402529
1630588177144,109007,339322,402566
1630588177154,109009,339293,402564
1630588177164,109004,339341,402579
1630588177174,109006,339325,402545
1630588177184,109026,339344,402579
1630588177194,109002,339359,402605
1630588177204,108997,339325,402586
1630588177214,108999,339308,402593
1630588177224,108999,339337,402588
1630588177234,109003,339314,402597
1630588177244,109010,339337,402576
1630588177254,109018,339317,402623
1630588177264,108991,339319,402617
1630588177274,108977,339338,402613
1630588177284,108982,339297,402630
1630588177294,108971,339300,402642
1630588177304,108970,339344,402621
1630588177314,108969,339319,402617
1630588177324,108995,339317,402607
1630588177334,108992,339363,402634
1630588177344,108986,339329,402634
1630588177354,108985,339350,402641
1630588177364,108988,339338,402623
1630588177374,108971,339335,402631
1630588177384,108971,339324,402638
1630588177394,108992,339338,402648
1630588177404,108993,339332,402660
1630588177414,108994,339331,402668
1630588177424,108995,339344,402708
1630588177434,108995,339342,402701
1630588177444,108990,339331,402678
1630588177454,108993,339340,402691
1630588177464,109005,339384,402710
1630588177474,108998,339379,402711
1630588177484,109010,339369,402710
1630588177494,109033,339339,402696
1630588177504,109030,339337,402703
1630588177514,109031,339348,402768
1630588177524,109041,339382,402744
1630588177534,109029,339357,402709
1630588177544,109044,339403,402734
1630588177554,109053,339364,402720
1630588177564,109067,339430,402767
1630588177574,109056,339424,402781
1630588177584,109053,339440,402764
1630588177594,109071,339406,402769
1630588177604,109060,339435,402739
1630588177614,109065,339490,402775
1630588177624,109073,339455,402750
1630588177634,109069,339456,402777
1630588177644,109119,339428,402790
1630588177654,109111,339443,402790
1630588177664,109094,339489,402800
1630588177674,109123,339469,402766
1630588177684,109120,339464,402794
1630588177694,109097,339446,402779
1630588177704,109105,339465,402757
1630588177714,109097,339482,402738
1630588177724,109065,339448,402684
1630588177734,109033,339441,402670
1630588177744,109018,339426,402595
1630588177754,108955,339484,402563
1630588177764,108926,339381,402600
1630588177774,108900,339396,402574
1630588177784,108876,339363,402515
1630588177794,108857,339335,402568
1630588177804,108832,339343,402558
1630588177814,108855,339363,402604
1630588177824,108847,339387,402564
1630588177834,108831,339345,402591
1630588177844,108823,339359,402560
1630588177854,108806,339344,402573
1630588177864,108791,339373,402600
1630588177874,108779,339363,402571
1630588177884,108778,339357,402583
1630588177894,108788,339332,402574
1630588177904,108789,339335,402612
1630588177914,108761,339319,402578
1630588177924,108765,339329,402644
1630588177934,108770,339373,402620
1630588177944,108769,339360,402622
1630588177954,108766,339363,402628
1630588177964,108804,339381,402685
1630588177974,108763,339364,402579
1630588177984,108768,339390,402647
1630588177994,108782,339366,402594
1630588178004,108774,339368,402598
1630588178014,108760,339337,402628
1630588178024,108777,339338,402620
1630588178034,108767,339384,402609
1630588178044,108777,339311,402608
1630588178054,108753,339360,402598
1630588178064,108756,339382,402635
1630588178074,108749,339369,402645
1630588178084,108736,339340,402602
1630588178094,108739,339362,402592
1630588178104,108747,339371,402640
1630588178114,108743,339315,402629
1630588178124,108740,339344,402640
1630588178134,108751,339345,402608
1630588178144,108756,339382,402645
1630588178154,108768,339382,402674
1630588178164,108769,339381,402663
1630588178174,108762,339410,402624
1630588178184,108769,339362,402597
1630588178194,108768,339373,402649
1630588178204,108776,339369,402644
1630588178214,108765,339406,402660
1630588178224,108788,339406,402661
1630588178234,108782,339391,402680
1630588178244,108802,339367,402671
1630588178254,108782,339378,402675
1630588178264,108782,339404,402664
1630588178274,108801,339418,402693
1630588178284,108802,339393,402688
1630588178294,108806,339405,402675
1630588178304,108803,339371,402701
1630588178314,108812,339437,402712
1630588178324,108840,339398,402736
1630588178334,108836,339423,402729
1630588178344,108832,339408,402692
1630588178354,108834,339426,402694
1630588178364,108838,339433,402693
1630588178374,108837,339436,402733
1630588178384,108865,339448,402705
1630588178394,108875,339412,402757
1630588178404,108884,339443,402724
1630588178414,108864,339451,402729
1630588178424,108858,339425,402721
1630588178434,108856,339464,402712
1630588178444,108855,339445,402699
1630588178454,108839,339454,402659
1630588178464,108823,339444,402657
1630588178474,108793,339433,402597
1630588178484,108766,339431,402531
1630588178494,108690,339396,402541
1630588178504,108698,339396,402542
1630588178514,108683,339365,402525
1630588178524,108648,339328,402500
1630588178534,108634,339360,402515
1630588178544,108621,339326,402512
1630588178554,108580,339358,402507
1630588178564,108580,339325,402505
1630588178574,108574,339349,402512
1630588178584,108548,339327,402533
1630588178594,108548,339336,402518
1630588178604,108533,339316,402510
1630588178614,108556,339308,402519
1630588178624,108536,339328,402548
1630588178634,108522,339325,402574
1630588178644,108543,339315,402519
1630588178654,108523,339293,402557
1630588178664,108514,339270,402549
1630588178674,108535,339260,402603
1630588178684,108538,339300,402602
1630588178694,108544,339295,402579
1630588178704,108534,339339,402561
1630588178714,108543,339302,402606
1630588178724,108532,339273,402572
1630588178734,108552,339264,402608
1630588178744,108523,339355,402617
1630588178754,108522,339305,402599
1630588178764,108515,339263,402637
1630588178774,108571,339302,402618
1630588178784,108514,339343,402587
1630588178794,108524,339318,402626
1630588178804,108527,339295,402595
1630588178814,108525,339340,402598
1630588178824,108528,339324,402614
1630588178834,108536,339320,402613
1630588178844,108551,339281,402628
1630588178854,108545,339298,402616
1630588178864,108524,339357,402623
1630588178874,108558,339296,402637
1630588178884,108534,339316,402676
1630588178894,108553,339306,402677
1630588178904,108562,339357,402686
1630588178914,108554,339327,402717
1630588178924,108567,339333,402686
1630588178934,108591,339344,402713
1630588178944,108575,339391,402726
1630588178954,108606,339365,402681
1630588178964,108602,339374,402701
1630588178974,108620,339383,402736
1630588178984,108599,339404,402711
1630588178994,108606,339369,402737
1630588179004,108627,339417,402760
1630588179014,108614,339346,402765
1630588179024,108602,339407,402763
1630588179034,108644,339421,402746
1630588179044,108652,339401,402814
1630588179054,108630,339405,402827
1630588179064,108655,339443,402779
1630588179074,108653,339443,402817
1630588179084,108656,339379,402848
1630588179094,108676,339395,402815
1630588179104,108706,339395,402809
1630588179114,108700,339423,402819
1630588179124,108704,339478,402813
1630588179134,108722,339444,402841
1630588179144,108731,339477,402881
1630588179154,108721,339470,402904
1630588179164,108747,339443,402881
1630588179174,108720,339519,402873
1630588179184,108705,339488,402808
1630588179194,108686,339493,402740
1630588179204,108636,339450,402711
1630588179214,108602,339441,402674
1630588179224,108570,339432,402704
1630588179234,108549,339402,402623
1630588179244,108542,339392,402680
1630588179254,108500,339387,402664
1630588179264,108495,339391,402661
1630588179274,108464,339375,402661
1630588179284,108464,339331,402686
1630588179294,108441,339395,402697
1630588179304,108449,339413,402702
1630588179314,108419,339371,402664
1630588179324,108428,339325,402692
1630588179334,108434,339330,402700
1630588179344,108432,339329,402722
1630588179354,108409,339349,402719
1630588179364,108414,339312,402695
1630588179374,108401,339348,402720
1630588179384,108377,339325,402747
1630588179394,108415,339358,402699
1630588179404,108423,339329,402747
1630588179414,108409,339281,402767
1630588179424,108450,339353,402821
1630588179434,108433,339302,402805
1630588179444,108426,339301,402801
1630588179454,108453,339351,402797
1630588179464,108417,339349,402811
1630588179474,108420,339313,402785
1630588179484,108440,339316,402762
1630588179494,108422,339333,402778
1630588179504,108441,339323,402769
1630588179514,108441,339337,402811
1630588179524,108419,339316,402791
1630588179534,108417,339324,402759
1630588179544,108431,339344,402751
1630588179554,108436,339342,402760
1630588179564,108432,339396,402832
1630588179574,108428,339392,402832
1630588179584,108435,339347,402801
1630588179594,108449,339331,402822
1630588179604,108480,339327,402849
1630588179614,108482,339360,402853
1630588179624,108449,339366,402829
1630588179634,108472,339347,402856
1630588179644,108483,339386,402824
1630588179654,108496,339370,402898
1630588179664,108497,339346,402897
1630588179674,108506,339398,402894
1630588179684,108522,339397,402893
1630588179694,108511,339382,402874
1630588179704,108513,339364,402938
1630588179714,108522,339415,402902
1630588179724,108529,339354,402916
1630588179734,108541,339381,402900
1630588179744,108541,339378,402946
1630588179754,108575,339370,402933
1630588179764,108571,339405,402938
1630588179774,108569,339402,402956
1630588179784,108617,339435,402935
1630588179794,108618,339428,402949
1630588179804,108622,339385,402997
1630588179814,108629,339424,402985
1630588179824,108611,339402,403031
1630588179834,108654,339425,402979
1630588179844,108661,339440,403017
1630588179854,108688,339427,402992
1630588179864,108679,339438,403021
1630588179874,108671,339427,403007
1630588179884,108687,339434,403045
1630588179894,108700,339414,403043
1630588179904,108716,339462,403071
1630588179914,108721,339494,403081
1630588179924,108701,339487,403044
1630588179934,108681,339450,402952
1630588179944,108642,339446,402931
1630588179954,108643,339456,402898
1630588179964,108594,339427,402899
1630588179974,108567,339467,402842
1630588179984,108515,339397,402856
1630588179994,108525,339406,402882
1630588180004,108527,339401,402894
1630588180014,108485,339346,402904
1630588180024,108470,339356,402905
1630588180034,108477,339380,402892
1630588180044,108461,339389,402879
1630588180054,108461,339400,402871
1630588180064,108448,339337,402902
1630588180074,108465,339379,402944
1630588180084,108481,339324,402916
1630588180094,108479,339356,402958
1630588180104,108434,339351,402966
1630588180114,108467,339330,402943
1630588180124,108477,339353,402973
1630588180134,108476,339301,402939
1630588180144,108488,339354,402945
1630588180154,108497,339350,402967
1630588180164,108477,339350,403036
1630588180174,108508,339345,403000
1630588180184,108508,339359,403014
1630588180194,108503,339376,402971
1630588180204,108492,339326,403010
1630588180214,108499,339345,403043
1630588180224,108512,339381,403043
1630588180234,108523,339341,403021
1630588180244,108544,339355,403007
1630588180254,108534,339346,402987
1630588180264,108541,339367,403019
1630588180274,108548,339335,403058
1630588180284,108529,339369,403064
1630588180294,108540,339334,403019
1630588180304,108557,339392,403047
1630588180314,108534,339386,403047
1630588180324,108565,339380,403026
1630588180334,108541,339373,403088
1630588180344,108549,339387,403057
1630588180354,108546,339409,403096
1630588180364,108567,339402,403085
1630588180374,108571,339405,403072
1630588180384,108593,339399,403072
1630588180394,108607,339375,403098
1630588180404,108609,339400,403097
1630588180414,108597,339394,403124
1630588180424,108617,339365,403109
1630588180434,108631,339378,403127
1630588180444,108659,339414,403120
1630588180454,108641,339485,403111
1630588180464,108655,339460,403158
1630588180474,108658,339416,403140
1630588180484,108656,339432,403126
1630588180494,108673,339454,403140
1630588180504,108668,339392,403164
1630588180514,108684,339472,403181
1630588180524,108689,339456,403135
1630588180534,108693,339403,403163
1630588180544,108706,339454,403124
1630588180554,108719,339485,403194
1630588180564,108752,339448,403163
1630588180574,108749,339421,403165
1630588180584,108729,339466,403209
1630588180594,108772,339490,403237
1630588180604,108759,339482,403228
1630588180614,108773,339476,403206
1630588180624,108781,339477,403173
1630588180634,108807,339458,403243
1630588180644,108804,339517,403249
1630588180654,108821,339489,403206
1630588180664,108807,339495,403173
1630588180674,108800,339496,403150
1630588180684,108780,339534,403134
1630588180694,108749,339500,403051
1630588180704,108704,339444,403068
1630588180714,108683,339445,403007
1630588180724,108670,339447,403049
1630588180734,108636,339445,403067
1630588180744,108665,339448,403031
1630588180754,108661,339430,403054
1630588180764,108648,339434,403010
1630588180774,108633,339413,403006
1630588180784,108637,339430,403022
1630588180794,108618,339395,403005
1630588180804,108632,339390,403025
1630588180814,108613,339394,403002
1630588180824,108629,339394,402977
1630588180834,108590,339377,403017
1630588180844,108599,339365,403043
1630588180854,108585,339329,403005
1630588180864,108602,339318,402998
1630588180874,108591,339374,403045
1630588180884,108645,339362,403052
1630588180894,108648,339323,403009
1630588180904,108640,339369,403048
1630588180914,108668,339353,403054
1630588180924,108666,339350,403072
1630588180934,108649,339320,403050
1630588180944,108639,339358,403041
1630588180954,108661,339360,403056
1630588180964,108679,339337,403083
1630588180974,108673,339331,403086
1630588180984,108675,339351,403078
1630588180994,108676,339312,402998
1630588181004,108680,339354,403117
1630588181014,108682,339350,403049
1630588181024,108682,339358,403075
1630588181034,108698,339361,403065
1630588181044,108705,339337,403078
1630588181054,108721,339345,403067
1630588181064,108711,339323,403083
1630588181074,108736,339325,403072
1630588181084,108742,339338,403105
1630588181094,108744,339331,403116
1630588181104,108750,339332,403116
1630588181114,108762,339381,403126
1630588181124,108769,339342,403042
1630588181134,108798,339357,403126
1630588181144,108793,339361,403153
1630588181154,108804,339362,403156
1630588181164,108795,339362,403131
1630588181174,108805,339414,403121
1630588181184,108822,339372,403138
1630588181194,108832,339405,403186
1630588181204,108840,339346,403157
1630588181214,108854,339313,403154
1630588181224,108869,339348,403141
1630588181234,108860,339396,403134
1630588181244,108885,339380,403142
1630588181254,108882,339404,403140
1630588181264,108896,339423,403178
1630588181274,108884,339364,403217
1630588181284,108916,339365,403223
1630588181294,108929,339383,403221
1630588181304,108936,339459,403213
1630588181314,108948,339428,403226
1630588181324,108952,339382,403206
1630588181334,108954,339422,403260
1630588181344,108961,339391,403264
1630588181354,108970,339481,403238
1630588181364,108982,339445,403246
1630588181374,109004,339446,403222
1630588181384,109011,339407,403245
1630588181394,109037,339427,403256
1630588181404,109041,339429,403264
1630588181414,109035,339440,403273
1630588181424,109032,339470,403225
1630588181434,109009,339454,403252
1630588181444,109013,339482,403192
1630588181454,109000,339447,403139
1630588181464,108961,339467,403108
1630588181474,108967,339439,403072
1630588181484,108922,339444,403034
1630588181494,108904,339409,403074
1630588181504,108892,339433,403073
1630588181514,108887,339354,403084
1630588181524,108861,339412,403057
1630588181534,108884,339388,403097
1630588181544,108895,339394,403065
1630588181554,108880,339400,403052
1630588181564,108865,339376,403128
1630588181574,108871,339360,403061
1630588181584,108853,339302,403055
1630588181594,108846,339368,403049
1630588181604,108858,339363,403027
1630588181614,108869,339319,403085
1630588181624,108862,339332,403031
1630588181634,108868,339368,403038
1630588181644,108855,339387,403086
1630588181654,108870,339326,403082
1630588181664,108878,339314,403049
1630588181674,108880,339320,403077
1630588181684,108864,339349,403080
1630588181694,108866,339361,403094
1630588181704,108908,339392,403113
1630588181714,108895,339353,403135
1630588181724,108917,339314,403018
1630588181734,108908,339333,403121
1630588181744,108904,339386,403104
1630588181754,108914,339319,403083
1630588181764,108927,339382,403073
1630588181774,108927,339400,403127
1630588181784,108910,339395,403117
1630588181794,108931,339361,403147
1630588181804,108941,339324,403120
1630588181814,108949,339355,403117
1630588181824,108956,339356,403125
1630588181834,108970,339317,403130
1630588181844,108964,339359,403131
1630588181854,108984,339352,403158
1630588181864,108983,339343,403119
1630588181874,108988,339334,403157
1630588181884,108987,339336,403147
1630588181894,109012,339357,403151
1630588181904,109023,339351,403154
1630588181914,109036,339303,403163
1630588181924,109044,339376,403184
1630588181934,109041,339376,403182
1630588181944,109063,339371,403198
1630588181954,109056,339355,403159
1630588181964,109059,339383,403175
1630588181974,109049,339367,403192
1630588181984,109069,339386,403158
1630588181994,109072,339381,403190
1630588182004,109073,339338,403191
1630588182014,109108,339421,403168
1630588182024,109132,339396,403194
1630588182034,109116,339352,403224
1630588182044,109116,339425,403178
1630588182054,109152,339394,403207
1630588182064,109135,339389,403232
1630588182074,109150,339423,403223
1630588182084,109152,339398,403219
1630588182094,109179,339398,403186
1630588182104,109181,339410,403232
1630588182114,109190,339403,403258
1630588182124,109188,339413,403263
1630588182134,109213,339395,403250
1630588182144,109214,339408,403222
1630588182154,109193,339445,403237
1630588182164,109222,339461,403229
1630588182174,109235,339468,403291
1630588182184,109259,339472,403268
1630588182194,109263,339502,403281
1630588182204,109269,339485,403272
1630588182214,109263,339474,403239
1630588182224,109236,339497,403191
1630588182234,109229,339474,403171
1630588182244,109192,339474,403046
1630588182254,109166,339459,403143
1630588182264,109161,339474,403107
1630588182274,109148,339442,403070
1630588182284,109100,339472,403076
1630588182294,109098,339415,403091
1630588182304,109099,339420,403054
1630588182314,109080,339413,403047
1630588182324,109087,339446,403037
1630588182334,109090,339422,403057
1630588182344,109107,339357,403100
1630588182354,109100,339414,403034
1630588182364,109103,339354,403073
1630588182374,109109,339356,403074
1630588182384,109096,339352,403039
1630588182394,109098,339371,403028
1630588182404,109105,339362,403071
1630588182414,109089,339372,403042
1630588182424,109105,339294,403078
1630588182434,109100,339322,403094
1630588182444,109096,339306,403102
1630588182454,109106,339333,403104
1630588182464,109109,339316,403139
1630588182474,109114,339388,403145
1630588182484,109127,339372,403169
1630588182494,109118,339290,403118
1630588182504,109161,339330,403176
1630588182514,109149,339325,403165
1630588182524,109151,339308,403069
1630588182534,109157,339317,403139
1630588182544,109170,339308,403063
1630588182554,109147,339332,403129
1630588182564,109168,339259,403111
1630588182574,109171,339269,403114
1630588182584,109179,339282,403101
1630588182594,109188,339283,403095
1630588182604,109176,339266,403107
1630588182614,109167,339240,403114
1630588182624,109194,339285,403075
1630588182634,109187,339273,403067
1630588182644,109187,339281,403081
1630588182654,109178,339249,403029
1630588182664,109201,339218,403063
1630588182674,109190,339225,402984
1630588182684,109191,339245,402981
1630588182694,109191,339203,402924
1630588182704,109158,339216,402896
1630588182714,109152,339234,402817
1630588182724,109130,339199,402859
1630588182734,109149,339165,402817
1630588182744,109113,339167,402801
1630588182754,109129,339147,402775
1630588182764,109102,339110,402687
1630588182774,109085,339073,402662
1630588182784,109108,339158,402696
1630588182794,109125,339089,402734
1630588182804,109145,339190,402828
1630588182814,109155,339261,402885
1630588182824,109177,339312,402920
1630588182834,109219,339315,402968
1630588182844,109199,339386,403036
1630588182854,109202,339338,403008
1630588182864,109212,339294,403003
1630588182874,109203,339271,402963
1630588182884,109201,339269,402941
1630588182894,109198,339244,402891
1630588182904,109204,339271,402869
1630588182914,109215,339172,402913
1630588182924,109230,339215,402924
1630588182934,109225,339165,402924
1630588182944,109222,339142,402926
1630588182954,109226,339124,402854
1630588182964,109222,339077,402810
1630588182974,109223,339110,402814
1630588182984,109242,339121,402821
1630588182994,109230,339107,402816
1630588183004,109218,339163,402766
1630588183014,109206,339183,402733
1630588183024,109183,339201,402739
1630588183034,109149,339142,402659
1630588183044,109139,339220,402655
1630588183054,109105,339177,402626
1630588183064,109087,339162,402566
1630588183074,109080,339137,402571
1630588183084,109073,339123,402545
1630588183094,109051,339128,402591
1630588183104,109033,339105,402614
1630588183114,109037,339093,402583
1630588183124,109024,339126,402623
1630588183134,109040,339061,402569
1630588183144,109031,339113,402582
1630588183154,109003,339114,402542
1630588183164,109019,339100,402618
1630588183174,109022,339081,402600
1630588183184,108994,339146,402558
1630588183194,109016,339110,402642
1630588183204,109029,339145,402613
1630588183214,109015,339082,402639
1630588183224,109022,339081,402677
1630588183234,109038,339053,402666
1630588183244,109017,339056,402649
1630588183254,109035,339048,402691
1630588183264,109029,339044,402679
1630588183274,109041,338995,402704
1630588183284,109043,339013,402707
1630588183294,109046,339051,402722
1630588183304,109043,338980,402693
1630588183314,109060,338992,402755
1630588183324,109038,339000,402789
1630588183334,109072,338983,402756
1630588183344,109086,339008,402736
1630588183354,109061,338944,402747
1630588183364,109069,339000,402766
1630588183374,109093,338958,402786
1630588183384,109109,338931,402801
1630588183394,109107,338956,402773
1630588183404,109118,338940,402791
1630588183414,109104,338948,402776
1630588183424,109116,338946,402778
1630588183434,109139,338961,402805
1630588183444,109111,338980,402848
1630588183454,109129,338961,402842
1630588183464,109141,339013,402880
1630588183474,109175,338985,402895
1630588183484,109178,338958,402946
1630588183494,109204,338968,402924
1630588183504,109208,339010,402907
1630588183514,109208,338972,402930
1630588183524,109202,338974,402918
1630588183534,109232,338986,402992
1630588183544,109242,339030,402994
1630588183554,109219,338953,403009
1630588183564,109259,339093,403013
1630588183574,109291,339023,403095
1630588183584,109259,338990,403036
1630588183594,109274,339028,403122
1630588183604,109265,339046,403106
1630588183614,109276,339045,403164
1630588183624,109288,339080,403160
1630588183634,109306,339034,403187
1630588183644,109322,339120,403201
1630588183654,109294,339095,403175
1630588183664,109336,339121,403188
1630588183674,109331,339128,403190
1630588183684,109336,339075,403225
1630588183694,109344,339126,403211
1630588183704,109353,339156,403298
1630588183714,109350,339186,403266
1630588183724,109373,339130,403212
1630588183734,109383,339149,403249
1630588183744,109368,339182,403264
1630588183754,109375,339200,403229
1630588183764,109379,339149,403245
1630588183774,109364,339184,403183
1630588183784,109350,339161,403156
1630588183794,109357,339206,403140
1630588183804,109326,339171,403155
1630588183814,109296,339116,403114
1630588183824,109287,339126,403122
1630588183834,109251,339140,403054
1630588183844,109235,339124,403019
1630588183854,109245,339119,403067
1630588183864,109230,339104,403038
1630588183874,109217,339107,403037
1630588183884,109204,339079,403042
1630588183894,109196,339064,403057
1630588183904,109169,339121,403057
1630588183914,109158,339100,403073
1630588183924,109157,339107,403095
1630588183934,109168,339073,403095
1630588183944,109176,339078,403046
1630588183954,109164,339076,403028
1630588183964,109200,339086,402993
1630588183974,109179,339012,403005
1630588183984,109153,339029,403048
1630588183994,109184,338976,403062
1630588184004,109200,339022,403119
1630588184014,109194,339028,403093
1630588184024,109200,339007,403134
1630588184034,109221,339001,403180
1630588184044,109224,339064,403190
1630588184054,109239,339037,403187
1630588184064,109236,339035,403207
1630588184074,109253,339068,403234
1630588184084,109227,339108,403242
1630588184094,109244,339064,403225
1630588184104,109252,339048,403257
1630588184114,109282,339047,403306
1630588184124,109308,339047,403324
1630588184134,109299,339080,403326
1630588184144,109316,339013,403334
1630588184154,109309,339045,403373
1630588184164,109333,339006,403394
1630588184174,109342,339031,403411
1630588184184,109345,339050,403421
1630588184194,109324,339044,403376
1630588184204,109358,339049,403404
1630588184214,109336,339039,403410
1630588184224,109362,339050,403456
1630588184234,109382,339091,403486
1630588184244,109371,339032,403523
1630588184254,109387,339075,403498
1630588184264,109396,339078,403550
1630588184274,109392,339068,403563
1630588184284,109422,339104,403537
1630588184294,109450,339113,403603
1630588184304,109455,339101,403564
1630588184314,109435,339119,403646
1630588184324,109450,339167,403648
1630588184334,109447,339161,403640
1630588184344,109481,339172,403689
1630588184354,109451,339192,403684
1630588184364,109492,339162,403637
1630588184374,109499,339219,403725
1630588184384,109503,339133,403726
1630588184394,109512,339248,403728
1630588184404,109517,339198,403741
1630588184414,109514,339206,403720
1630588184424,109511,339214,403715
1630588184434,109532,339207,403667
1630588184444,109527,339231,403724
1630588184454,109559,339244,403766
1630588184464,109563,339242,403723
1630588184474,109581,339292,403742
1630588184484,109583,339297,403770
1630588184494,109567,339291,403797
1630588184504,109597,339274,403775
1630588184514,109599,339247,403812
1630588184524,109598,339274,403775
1630588184534,109609,339276,403728
1630588184544,109566,339295,403701
1630588184554,109530,339263,403682
1630588184564,109504,339250,403643
1630588184574,109471,339226,403588
1630588184584,109450,339267,403586
1630588184594,109445,339247,403599
1630588184604,109423,339248,403586
1630588184614,109398,339306,403605
1630588184624,109409,339211,403573
1630588184634,109413,339214,403593
1630588184644,109390,339193,403538
1630588184654,109360,339184,403601
1630588184664,109366,339209,403572
1630588184674,109353,339230,403572
1630588184684,109345,339215,403581
1630588184694,109346,339144,403572
1630588184704,109340,339203,403540
1630588184714,109308,339167,403553
1630588184724,109298,339180,403559
1630588184734,109292,339136,403589
1630588184744,109284,339193,403560
1630588184754,109304,339103,403553
1630588184764,109312,339168,403547
1630588184774,109337,339144,403597
1630588184784,109299,339203,403609
1630588184794,109308,339177,403617
1630588184804,109313,339147,403608
1630588184814,109336,339169,403614
1630588184824,109312,339180,403600
1630588184834,109300,339174,403639
1630588184844,109326,339156,403557
1630588184854,109305,339163,403601
1630588184864,109295,339144,403612
1630588184874,109299,339146,403583
1630588184884,109307,339171,403581
1630588184894,109307,339127,403583
1630588184904,109300,339195,403608
1630588184914,109314,339171,403600
1630588184924,109289,339107,403576
1630588184934,109326,339139,403589
1630588184944,109319,339173,403592
1630588184954,109332,339144,403610
1630588184964,109331,339144,403557
1630588184974,109302,339129,403612
1630588184984,109335,339149,403621
1630588184994,109320,339148,403597
1630588185004,109332,339123,403601
1630588185014,109319,339105,403639
1630588185024,109348,339130,403624
1630588185034,109344,339150,403591
1630588185044,109358,339146,403633
1630588185054,109353,339181,403646
1630588185064,109347,339154,403595
1630588185074,109349,339169,403638
1630588185084,109372,339103,403649
1630588185094,109385,339111,403597
1630588185104,109378,339183,403665
1630588185114,109388,339140,403609
1630588185124,109381,339119,403654
1630588185134,109396,339132,403632
1630588185144,109403,339185,403670
1630588185154,109410,339170,403634
1630588185164,109403,339185,403673
1630588185174,109420,339185,403667
1630588185184,109430,339150,403656
1630588185194,109435,339174,403666
1630588185204,109393,339145,403656
1630588185214,109418,339191,403641
1630588185224,109439,339199,403631
1630588185234,109428,339182,403617
1630588185244,109433,339222,403620
1630588185254,109483,339212,403653
1630588185264,109445,339207,403664
1630588185274,109408,339214,403610
1630588185284,109388,339192,403559
1630588185294,109389,339144,403525
1630588185304,109331,339177,403507
1630588185314,109323,339165,403459
1630588185324,109280,339150,403477
1630588185334,109284,339117,403443
1630588185344,109247,339120,403447
1630588185354,109254,339114,403422
1630588185364,109225,339076,403462
1630588185374,109210,339131,403482
1630588185384,109221,339122,403441
1630588185394,109213,339087,403442
1630588185404,109184,339088,403403
1630588185414,109198,339085,403430
1630588185424,109197,339088,403454
1630588185434,109166,339070,403412
1630588185444,109147,339044,403450
1630588185454,109161,339080,403437
1630588185464,109124,339082,403409
1630588185474,109130,339052,403417
1630588185484,109136,339099,403455
1630588185494,109145,339048,403468
1630588185504,109144,339052,403473
1630588185514,109150,339017,403460
1630588185524,109135,339081,403488
1630588185534,109136,339056,403515
1630588185544,109137,339021,403512
1630588185554,109139,339084,403515
1630588185564,109138,339011,403523
1630588185574,109150,339054,403484
1630588185584,109139,339087,403510
1630588185594,109137,339057,403469
1630588185604,109152,339047,403518
1630588185614,109157,339047,403546
1630588185624,109152,339048,403510
1630588185634,109147,338991,403528
1630588185644,109149,339052,403480
1630588185654,109157,339036,403515
1630588185664,109159,339088,403530
1630588185674,109168,339005,403553
1630588185684,109142,339047,403562
1630588185694,109153,339030,403543
1630588185704,109160,339042,403522
1630588185714,109164,339030,403566
1630588185724,109163,339014,403563
1630588185734,109172,339060,403548
1630588185744,109198,339071,403541
1630588185754,109172,339076,403569
1630588185764,109199,339061,403589
1630588185774,109188,339052,403596
1630588185784,109194,339056,403563
1630588185794,109211,339080,403582
1630588185804,109222,339040,403582
1630588185814,109219,339027,403629
1630588185824,109236,339041,403646
1630588185834,109247,339101,403635
1630588185844,109243,339090,403591
1630588185854,109251,339091,403641
1630588185864,109237,339050,403600
1630588185874,109258,339089,403650
1630588185884,109277,339090,403595
1630588185894,109286,339099,403640
1630588185904,109289,339115,403649
1630588185914,109304,339109,403670
1630588185924,109298,339126,403660
1630588185934,109318,339107,403649
1630588185944,109297,339150,403693
1630588185954,109325,339153,403647
1630588185964,109344,339100,403668
1630588185974,109335,339109,403648
1630588185984,109357,339112,403676
1630588185994,109326,339152,403655
1630588186004,109325,339188,403616
1630588186014,109290,339161,403583
1630588186024,109278,339120,403557
1630588186034,109243,339161,403521
1630588186044,109213,339156,403509
1630588186054,109210,339101,403474
1630588186064,109164,339043,403486
1630588186074,109166,339083,403480
1630588186084,109139,339072,403527
1630588186094,109126,339079,403477
1630588186104,109102,339047,403487
1630588186114,109107,339070,403473
1630588186124,109080,339021,403445
1630588186134,109074,339064,403446
1630588186144,109058,339062,403502
1630588186154,109029,339033,403493
1630588186164,109038,338995,403483
1630588186174,109042,339052,403450
1630588186184,109007,338994,403422
1630588186194,108997,339006,403422
1630588186204,108994,338963,403469
1630588186214,108996,338961,403480
1630588186224,109005,338962,403454
1630588186234,109040,338940,403489
1630588186244,109002,338979,403501
1630588186254,109022,338948,403486
1630588186264,109040,338957,403527
1630588186274,109012,338967,403523
1630588186284,109034,338941,403536
1630588186294,109006,338972,403522
1630588186304,109023,338955,403528
1630588186314,109036,338933,403541
1630588186324,109031,338949,403539
1630588186334,109010,338959,403517
1630588186344,109027,339012,403565
1630588186354,109019,338931,403550
1630588186364,109030,339006,403508
1630588186374,109018,338957,403525
1630588186384,109036,339007,403513
1630588186394,109045,338983,403539
1630588186404,109049,338962,403548
1630588186414,109078,338995,403568
1630588186424,109061,338899,403533
1630588186434,109073,338978,403577
1630588186444,109088,338920,403583
1630588186454,109061,338968,403606
1630588186464,109080,338969,403627
1630588186474,109095,338994,403633
1630588186484,109095,338998,403572
1630588186494,109081,339007,403635
1630588186504,109102,338980,403644
1630588186514,109107,338984,403586
1630588186524,109106,338988,403634
1630588186534,109109,338988,403615
1630588186544,109112,338987,403639
1630588186554,109157,338993,403658
1630588186564,109148,338975,403666
1630588186574,109160,338983,403641
1630588186584,109175,339020,403694
1630588186594,109161,338972,403683
1630588186604,109172,338960,403706
1630588186614,109193,339005,403694
1630588186624,109206,339048,403707
1630588186634,109200,339018,403679
1630588186644,109216,339024,403741
1630588186654,109229,339022,403718
1630588186664,109223,339054,403768
1630588186674,109218,339018,403701
1630588186684,109228,339031,403727
1630588186694,109243,339082,403723
1630588186704,109249,339094,403776
1630588186714,109255,339109,403778
1630588186724,109271,339046,403733
1630588186734,109301,339115,403741
1630588186744,109297,339004,403742
1630588186754,109286,339072,403785
1630588186764,109280,339062,403798
1630588186774,109255,339057,403738
1630588186784,109272,339100,403682
1630588186794,109243,339075,403665
1630588186804,109226,339095,403630
1630588186814,109181,339043,403645
1630588186824,109149,339065,403485
1630588186834,109127,339080,403582
1630588186844,109120,339000,403588
1630588186854,109090,339026,403559
1630588186864,109079,339028,403553
1630588186874,109088,339072,403536
1630588186884,109094,339026,403539
1630588186894,109043,338992,403527
1630588186904,109081,339041,403547
1630588186914,109062,339054,403552
1630588186924,109060,338984,403540
1630588186934,109036,338963,403539
1630588186944,109018,338972,403530
1630588186954,109025,338963,403563
1630588186964,109015,338972,403523
1630588186974,108988,338954,403542
1630588186984,108968,338945,403542
1630588186994,108980,338947,403555
1630588187004,108978,338971,403557
1630588187014,109017,338917,403611
1630588187024,109005,338975,403598
1630588187034,109032,338907,403581
1630588187044,109040,338981,403621
1630588187054,109026,338965,403681
1630588187064,109044,339017,403611
1630588187074,109062,338972,403634
1630588187084,109029,338989,403624
1630588187094,109041,338942,403635
1630588187104,109051,338944,403647
1630588187114,109040,338953,403655
1630588187124,109040,338957,403701
1630588187134,109055,338951,403621
1630588187144,109038,338956,403661
1630588187154,109062,338973,403663
1630588187164,109068,338979,403675
1630588187174,109044,338955,403654
1630588187184,109112,338954,403601
1630588187194,109078,339001,403724
1630588187204,109091,338967,403706
1630588187214,109090,338984,403704
1630588187224,109096,338986,403695
1630588187234,109104,338981,403653
1630588187244,109100,338991,403718
1630588187254,109107,338984,403707
1630588187264,109133,339007,403669
1630588187274,109128,338972,403726
1630588187284,109158,338972,403743
1630588187294,109159,339019,403775
1630588187304,109165,339014,403727
1630588187314,109133,339001,403764
1630588187324,109137,339006,403767
1630588187334,109157,339007,403794
1630588187344,109165,339057,403789
1630588187354,109182,339018,403787
1630588187364,109189,339091,403791
1630588187374,109214,339051,403780
1630588187384,109214,339042,403816
1630588187394,109196,339052,403804
1630588187404,109239,339105,403820
1630588187414,109245,339086,403838
1630588187424,109242,339101,403849
1630588187434,109215,339093,403784
1630588187444,109259,339098,403809
1630588187454,109267,339108,403849
1630588187464,109267,339109,403828
1630588187474,109301,339153,403832
1630588187484,109307,339135,403836
1630588187494,109321,339104,403820
1630588187504,109305,339117,403861
1630588187514,109316,339144,403857
1630588187524,109309,339196,403846
1630588187534,109333,339206,403864
1630588187544,109337,339199,403865
1630588187554,109350,339225,403856
1630588187564,109352,339230,403865
1630588187574,109331,339249,403897
1630588187584,109344,339151,403891
1630588187594,109372,339192,403916
1630588187604,109379,339234,403884
1630588187614,109381,339191,403859
1630588187624,109342,339221,403828
1630588187634,109327,339201,403815
1630588187644,109289,339209,403734
1630588187654,109281,339205,403703
1630588187664,109260,339176,403687
1630588187674,109233,339160,403679
1630588187684,109229,339130,403666
1630588187694,109225,339127,403730
1630588187704,109225,339169,403686
1630588187714,109219,339161,403690
1630588187724,109226,339136,403672
1630588187734,109180,339112,403708
1630588187744,109180,339117,403703
1630588187754,109177,339127,403701
1630588187764,109162,339100,403693
1630588187774,109160,339096,403689
1630588187784,109158,339116,403673
1630588187794,109149,339129,403660
1630588187804,109139,339056,403669
1630588187814,109158,339052,403688
1630588187824,109131,339079,403736
1630588187834,109133,339072,403667
1630588187844,109142,339026,403721
1630588187854,109174,339071,403743
1630588187864,109176,339089,403793
1630588187874,109176,339049,403758
1630588187884,109189,339081,403781
1630588187894,109180,339069,403753
1630588187904,109187,339024,403779
1630588187914,109181,339056,403782
1630588187924,109192,339025,403783
1630588187934,109193,339072,403802
1630588187944,109176,339052,403780
1630588187954,109197,339070,403783
1630588187964,109189,339033,403782
1630588187974,109195,339049,403812
1630588187984,109197,339061,403782
1630588187994,109223,339078,403803
1630588188004,109221,339054,403816
1630588188014,109247,339047,403826
1630588188024,109225,339088,403800
1630588188034,109251,339061,403817
1630588188044,109253,339072,403864
1630588188054,109241,339048,403837
1630588188064,109263,339108,403802
1630588188074,109262,339104,403806
1630588188084,109263,339099,403865
1630588188094,109262,339060,403894
1630588188104,109286,339059,403877
1630588188114,109289,339141,403910
1630588188124,109308,339096,403878
1630588188134,109325,339122,403899
1630588188144,109327,339084,403903
1630588188154,109338,339092,403897
1630588188164,109337,339141,403912
1630588188174,109347,339138,403908
1630588188184,109363,339090,403896
1630588188194,109364,339129,403948
1630588188204,109374,339114,403945
1630588188214,109380,339145,403926
1630588188224,109369,339138,403942
1630588188234,109402,339138,403916
1630588188244,109441,339139,403981
1630588188254,109423,339174,403981
1630588188264,109402,339177,403990
1630588188274,109406,339150,403995
1630588188284,109425,339145,404013
1630588188294,109427,339176,403940
1630588188304,109427,339252,404005
1630588188314,109443,339176,404002
1630588188324,109448,339153,404037
1630588188334,109458,339190,404052
1630588188344,109459,339213,404002
1630588188354,109504,339213,403995
1630588188364,109500,339201,404011
1630588188374,109503,339216,404071
1630588188384,109515,339228,404042
1630588188394,109526,339195,404051
1630588188404,109539,339201,404072
1630588188414,109535,339220,404031
1630588188424,109561,339261,404073
1630588188434,109540,339214,404094
1630588188444,109544,339271,404055
1630588188454,109555,339223,404085
1630588188464,109549,339257,404094
1630588188474,109568,339241,404072
1630588188484,109572,339257,404068
1630588188494,109564,339304,404031
1630588188504,109559,339252,403983
1630588188514,109542,339261,403957
1630588188524,109509,339221,403941
1630588188534,109502,339248,403882
1630588188544,109461,339237,403875
1630588188554,109470,339196,403895
1630588188564,109459,339232,403876
1630588188574,109461,339235,403897
1630588188584,109447,339136,403901
1630588188594,109414,339151,403898
1630588188604,109416,339172,403949
1630588188614,109436,339197,403910
1630588188624,109426,339203,403892
1630588188634,109436,339163,403916
1630588188644,109427,339163,403903
1630588188654,109408,339180,403930
1630588188664,109415,339146,403919
1630588188674,109401,339152,403902
1630588188684,109402,339142,403889
1630588188694,109382,339162,403876
1630588188704,109397,339146,403961
1630588188714,109415,339164,403946
1630588188724,109411,339178,403974
1630588188734,109433,339109,403985
1630588188744,109428,339115,403988
1630588188754,109440,339156,403961
1630588188764,109426,339190,403970
1630588188774,109417,339151,403932
1630588188784,109435,339137,403955
1630588188794,109438,339129,403951
1630588188804,109434,339143,403957
1630588188814,109440,339123,403966
1630588188824,109445,339177,404019
1630588188834,109432,339114,403945
1630588188844,109450,339104,403990
1630588188854,109470,339168,403991
1630588188864,109435,339138,403961
1630588188874,109469,339134,403959
1630588188884,109474,339142,403978
1630588188894,109477,339136,404044
1630588188904,109491,339169,404000
1630588188914,109465,339142,404011
1630588188924,109462,339146,404013
1630588188934,109484,339161,403995
1630588188944,109476,339142,404043
1630588188954,109475,339150,404009
1630588188964,109484,339172,404006
1630588188974,109507,339172,404020
1630588188984,109509,339158,404035
1630588188994,109520,339147,404067
1630588189004,109530,339161,404013
1630588189014,109529,339149,404014
1630588189024,109537,339161,404041
1630588189034,109526,339211,404085
1630588189044,109549,339145,404057
1630588189054,109553,339175,404012
1630588189064,109558,339161,404062
1630588189074,109583,339181,404070
1630588189084,109559,339189,404050
1630588189094,109577,339143,404074
1630588189104,109577,339193,404051
1630588189114,109586,339212,404096
1630588189124,109612,339167,404096
1630588189134,109620,339207,404075
1630588189144,109620,339151,404080
1630588189154,109644,339183,404051
1630588189164,109641,339191,404056
1630588189174,109640,339177,404102
1630588189184,109622,339125,404058
1630588189194,109664,339224,404112
1630588189204,109654,339173,404089
1630588189214,109666,339264,404106
1630588189224,109677,339187,404130
1630588189234,109671,339187,404137
1630588189244,109688,339202,404105
1630588189254,109678,339211,404114
1630588189264,109692,339266,404176
1630588189274,109694,339228,404122
1630588189284,109705,339249,404136
1630588189294,109726,339268,404134
1630588189304,109744,339244,404116
1630588189314,109742,339259,404117
1630588189324,109756,339244,404146
1630588189334,109743,339230,404154
1630588189344,109733,339237,404096
1630588189354,109727,339246,404096
1630588189364,109716,339288,404098
1630588189374,109714,339296,404047
1630588189384,109696,339236,404005
1630588189394,109656,339224,404017
1630588189404,109621,339234,403924
1630588189414,109635,339222,403961
1630588189424,109602,339219,403923
1630588189434,109616,339213,403952
1630588189444,109582,339191,403896
1630588189454,109576,339238,403942
1630588189464,109573,339198,403898
1630588189474,109572,339165,403942
1630588189484,109573,339158,403867
1630588189494,109553,339196,403901
1630588189504,109553,339188,403888
1630588189514,109520,339155,403917
1630588189524,109540,339168,403888
1630588189534,109497,339176,403895
1630588189544,109534,339181,403874
1630588189554,109500,339111,403869
1630588189564,109528,339149,403922
1630588189574,109514,339149,403882
1630588189584,109514,339147,403887
1630588189594,109543,339134,403938
1630588189604,109528,339149,403902
1630588189614,109526,339133,403934
1630588189624,109560,339109,403921
1630588189634,109553,339157,403907
1630588189644,109552,339132,403908
1630588189654,109562,339139,403939
1630588189664,109548,339136,403914
1630588189674,109536,339155,403904
1630588189684,109567,339113,403907
1630588189694,109522,339164,403886
1630588189704,109559,339114,403904
1630588189714,109531,339096,403896
1630588189724,109553,339130,403888
1630588189734,109539,339120,403937
1630588189744,109543,339109,403895
1630588189754,109545,339158,403904
1630588189764,109559,339140,403876
1630588189774,109565,339159,403946
1630588189784,109578,339095,403916
1630588189794,109585,339118,403932
1630588189804,109591,339132,403899
1630588189814,109589,339162,403949
1630588189824,109594,339106,403912
1630588189834,109599,339144,403971
1630588189844,109599,339142,403940
1630588189854,109605,339051,403962
1630588189864,109606,339130,403904
1630588189874,109616,339100,403953
1630588189884,109615,339173,403910
1630588189894,109601,339153,403952
1630588189904,109619,339109,403951
1630588189914,109617,339150,403909
1630588189924,109622,339167,403971
1630588189934,109627,339135,403945
1630588189944,109641,339190,403963
1630588189954,109658,339164,403976
1630588189964,109671,339165,403958
1630588189974,109670,339150,404004
1630588189984,109656,339174,403972
1630588189994,109669,339217,404005
1630588190004,109694,339207,403962
1630588190014,109695,339184,404025
1630588190024,109710,339196,403969
1630588190034,109704,339189,404022
1630588190044,109714,339178,404023
1630588190054,109696,339195,404024
1630588190064,109697,339197,403994
1630588190074,109706,339213,404001
1630588190084,109717,339227,404012
1630588190094,109726,339231,404040
1630588190104,109735,339241,404022
1630588190114,109744,339234,404036
1630588190124,109770,339206,403998
1630588190134,109769,339270,404041
1630588190144,109786,339225,404064
1630588190154,109783,339222,404020
1630588190164,109770,339251,404049
1630588190174,109801,339261,404061
1630588190184,109810,339288,404029
1630588190194,109786,339262,404090
1630588190204,109805,339239,404063
1630588190214,109831,339289,404037
1630588190224,109812,339249,404050
1630588190234,109806,339278,404054
1630588190244,109802,339223,404037
1630588190254,109794,339284,404016
1630588190264,109775,339290,403944
1630588190274,109763,339292,403928
1630588190284,109708,339254,403893
1630588190294,109719,339223,403811
1630588190304,109701,339227,403862
1630588190314,109662,339199,403843
1630588190324,109652,339243,403827
1630588190334,109660,339225,403811
1630588190344,109649,339203,403819
1630588190354,109636,339244,403797
1630588190364,109630,339185,403789
1630588190374,109620,339153,403819
1630588190384,109617,339209,403825
1630588190394,109595,339163,403785
1630588190404,109597,339193,403796
1630588190414,109564,339211,403787
1630588190424,109563,339121,403776
1630588190434,109549,339139,403802
1630588190444,109571,339166,403830
1630588190454,109554,339147,403830
1630588190464,109561,339124,403756
1630588190474,109560,339149,403770
1630588190484,109538,339121,403789
1630588190494,109566,339135,403824
1630588190504,109575,339095,403789
1630588190514,109559,339118,403838
1630588190524,109533,339095,403824
1630588190534,109560,339170,403804
1630588190544,109554,339127,403809
1630588190554,109544,339131,403768
1630588190564,109542,339135,403802
1630588190574,109537,339098,403759
1630588190584,109543,339065,403821
1630588190594,109555,339124,403801
1630588190604,109564,339105,403752
1630588190614,109555,339078,403826
1630588190624,109554,339140,403760
1630588190634,109561,339070,403772
1630588190644,109532,339096,403812
1630588190654,109566,339088,403800
1630588190664,109568,339074,403876
1630588190674,109577,339141,403836
1630588190684,109557,339111,403858
1630588190694,109579,339099,403795
1630588190704,109571,339108,403833
1630588190714,109570,339088,403831
1630588190724,109577,339092,403851
1630588190734,109586,339108,403827
1630588190744,109593,339141,403843
1630588190754,109591,339109,403886
1630588190764,109619,339133,403870
1630588190774,109622,339132,403827
1630588190784,109617,339105,403801
1630588190794,109607,339124,403876
1630588190804,109642,339147,403823
1630588190814,109644,339072,403847
1630588190824,109632,339132,403831
1630588190834,109638,339157,403861
1630588190844,109663,339095,403910
1630588190854,109665,339152,403883
1630588190864,109658,339148,403897
1630588190874,109669,339151,403888
1630588190884,109693,339102,403913
1630588190894,109667,339163,403896
1630588190904,109669,339132,403918
1630588190914,109696,339163,403902
1630588190924,109681,339194,403880
1630588190934,109697,339158,403886
1630588190944,109689,339214,403912
1630588190954,109728,339151,403902
1630588190964,109701,339181,403884
1630588190974,109736,339149,403898
1630588190984,109737,339170,403903
1630588190994,109725,339180,403923
1630588191004,109733,339224,403917
1630588191014,109753,339194,403919
1630588191024,109761,339165,403931
1630588191034,109774,339184,403919
1630588191044,109751,339166,403968
1630588191054,109754,339247,403944
1630588191064,109761,339224,403926
1630588191074,109769,339259,403965
1630588191084,109795,339216,403940
1630588191094,109791,339264,403970
1630588191104,109810,339233,403963
1630588191114,109809,339270,403961
1630588191124,109820,339223,403966
1630588191134,109822,339277,403935
1630588191144,109776,339245,403896
1630588191154,109790,339280,403917
1630588191164,109771,339270,403836
1630588191174,109749,339213,403814
1630588191184,109718,339206,403773
1630588191194,109708,339252,403736
1630588191204,109682,339211,403786
1630588191214,109656,339219,403725
1630588191224,109656,339161,403766
1630588191234,109650,339183,403746
1630588191244,109643,339197,403737
1630588191254,109618,339159,403684
1630588191264,109575,339182,403764
1630588191274,109612,339128,403725
1630588191284,109586,339169,403700
1630588191294,109569,339170,403712
1630588191304,109581,339109,403714
1630588191314,109566,339143,403704
1630588191324,109568,339148,403719
1630588191334,109547,339123,403742
1630588191344,109561,339127,403687
1630588191354,109534,339120,403722
1630588191364,109539,339128,403718
1630588191374,109557,339147,403746
1630588191384,109558,339137,403774
1630588191394,109540,339177,403764
1630588191404,109542,339114,403766
1630588191414,109555,339104,403757
1630588191424,109554,339120,403780
1630588191434,109569,339126,403733
1630588191444,109530,339111,403778
1630588191454,109548,339120,403758
1630588191464,109552,339096,403764
1630588191474,109531,339104,403758
1630588191484,109564,339149,403778
1630588191494,109534,339117,403751
1630588191504,109560,339119,403711
1630588191514,109540,339191,403767
1630588191524,109551,339108,403749
1630588191534,109563,339187,403775
1630588191544,109558,339128,403777
1630588191554,109546,339099,403770
1630588191564,109577,339150,403788
1630588191574,109574,339113,403768
1630588191584,109562,339153,403786
1630588191594,109546,339116,403776
1630588191604,109572,339112,403770
1630588191614,109593,339133,403765
1630588191624,109593,339135,403800
1630588191634,109581,339133,403763
1630588191644,109602,339193,403845
1630588191654,109603,339135,403810
1630588191664,109589,339205,403836
1630588191674,109592,339173,403792
1630588191684,109600,339154,403816
1630588191694,109601,339110,403800
1630588191704,109611,339147,403803
1630588191714,109633,339181,403825
1630588191724,109627,339134,403799
1630588191734,109647,339197,403851
1630588191744,109627,339205,403834
1630588191754,109650,339211,403863
1630588191764,109631,339230,403872
1630588191774,109648,339186,403834
1630588191784,109640,339182,403856
1630588191794,109663,339170,403834
1630588191804,109668,339216,403883
1630588191814,109694,339232,403828
1630588191824,109696,339235,403853
1630588191834,109688,339206,403860
1630588191844,109691,339184,403867
1630588191854,109685,339216,403852
1630588191864,109714,339234,403847
1630588191874,109714,339215,403869
1630588191884,109681,339235,403893
1630588191894,109711,339264,403905
1630588191904,109722,339255,403856
1630588191914,109744,339286,403906
1630588191924,109744,339261,403901
1630588191934,109718,339288,403906
1630588191944,109762,339268,403935
1630588191954,109754,339294,403910
1630588191964,109754,339319,403885
1630588191974,109767,339294,403863
1630588191984,109788,339264,403881
1630588191994,109771,339260,403900
1630588192004,109796,339338,403951
1630588192014,109792,339338,403916
1630588192024,109782,339298,403904
1630588192034,109767,339294,403836
1630588192044,109762,339321,403821
1630588192054,109715,339350,403744
1630588192064,109686,339287,403736
1630588192074,109645,339257,403708
1630588192084,109647,339249,403714
1630588192094,109604,339221,403689
1630588192104,109614,339250,403681
1630588192114,109606,339174,403685
1630588192124,109589,339200,403714
1630588192134,109591,339247,403663
1630588192144,109567,339228,403637
1630588192154,109570,339221,403673
1630588192164,109540,339183,403660
1630588192174,109535,339178,403630
1630588192184,109532,339189,403654
1630588192194,109527,339201,403630
1630588192204,109531,339191,403659
1630588192214,109531,339183,403669
1630588192224,109527,339164,403659
1630588192234,109508,339145,403655
1630588192244,109486,339199,403622
1630588192254,109503,339134,403684
1630588192264,109510,339169,403652
1630588192274,109544,339161,403678
1630588192284,109530,339137,403644
1630588192294,109530,339144,403669
1630588192304,109533,339162,403604
1630588192314,109543,339116,403635
1630588192324,109535,339142,403623
1630588192334,109542,339201,403620
1630588192344,109518,339169,403658
1630588192354,109520,339156,403580
1630588192364,109521,339131,403632
1630588192374,109488,339135,403622
1630588192384,109507,339118,403597
1630588192394,109472,339146,403585
1630588192404,109514,339146,403591
1630588192414,109506,339137,403600
1630588192424,109504,339165,403610
1630588192434,109504,339167,403628
1630588192444,109507,339169,403612
1630588192454,109480,339128,403638
1630588192464,109507,339135,403654
1630588192474,109507,339183,403650
1630588192484,109498,339162,403621
1630588192494,109500,339159,403623
1630588192504,109493,339181,403634
1630588192514,109513,339204,403666
1630588192524,109510,339165,403630
1630588192534,109535,339171,403636
1630588192544,109520,339211,403671
1630588192554,109545,339219,403653
1630588192564,109537,339198,403683
1630588192574,109556,339167,403609
1630588192584,109531,339165,403638
1630588192594,109533,339178,403631
1630588192604,109546,339252,403660
1630588192614,109564,339204,403619
1630588192624,109574,339224,403658
1630588192634,109565,339210,403640
1630588192644,109584,339264,403610
1630588192654,109592,339177,403655
1630588192664,109607,339228,403735
1630588192674,109588,339221,403627
1630588192684,109580,339236,403652
1630588192694,109569,339189,403644
1630588192704,109596,339223,403637
1630588192714,109610,339223,403679
1630588192724,109578,339227,403695
1630588192734,109630,339265,403681
1630588192744,109608,339253,403691
1630588192754,109604,339265,403671
1630588192764,109631,339274,403707
1630588192774,109646,339239,403703
1630588192784,109651,339243,403668
1630588192794,109636,339218,403708
1630588192804,109646,339278,403698
1630588192814,109647,339276,403705
1630588192824,109640,339266,403685
1630588192834,109661,339295,403686
1630588192844,109670,339282,403725
1630588192854,109669,339264,403676
1630588192864,109663,339283,403672
1630588192874,109656,339280,403650
1630588192884,109658,339268,403630
1630588192894,109616,339284,403555
1630588192904,109578,339300,403563
1630588192914,109546,339254,403533
1630588192924,109523,339225,403503
1630588192934,109518,339248,403447
1630588192944,109483,339237,403505
1630588192954,109449,339152,403473
1630588192964,109462,339222,403488
1630588192974,109437,339217,403469
1630588192984,109437,339198,403474
1630588192994,109424,339205,403463
1630588193004,109425,339126,403482
1630588193014,109430,339171,403484
1630588193024,109385,339162,403496
1630588193034,109410,339133,403469
1630588193044,109379,339135,403473
1630588193054,109370,339157,403460
1630588193064,109347,339146,403465
1630588193074,109352,339149,403431
1630588193084,109355,339147,403463
1630588193094,109365,339142,403518
1630588193104,109381,339146,403472
1630588193114,109362,339178,403435
1630588193124,109360,339142,403510
1630588193134,109350,339115,403524
1630588193144,109356,339138,403499
1630588193154,109361,339140,403502
1630588193164,109355,339126,403546
1630588193174,109353,339133,403469
1630588193184,109361,339116,403547
1630588193194,109356,339189,403492
1630588193204,109351,339126,403515
1630588193214,109340,339117,403513
1630588193224,109317,339145,403544
1630588193234,109337,339178,403525
1630588193244,109343,339117,403490
1630588193254,109343,339143,403483
1630588193264,109317,339120,403485
1630588193274,109315,339136,403489
1630588193284,109341,339156,403509
1630588193294,109341,339132,403506
1630588193304,109322,339129,403507
1630588193314,109331,339110,403525
1630588193324,109329,339166,403519
1630588193334,109357,339119,403555
1630588193344,109352,339151,403539
1630588193354,109370,339099,403534
1630588193364,109369,339130,403556
1630588193374,109377,339146,403606
1630588193384,109385,339118,403554
1630588193394,109366,339111,403585
1630588193404,109382,339129,403597
1630588193414,109402,339153,403602
1630588193424,109410,339066,403578
1630588193434,109424,339140,403612
1630588193444,109385,339139,403598
1630588193454,109423,339115,403663
1630588193464,109405,339142,403640
1630588193474,109405,339085,403649
1630588193484,109410,339134,403669
1630588193494,109423,339122,403656
1630588193504,109413,339179,403644
1630588193514,109456,339097,403676
1630588193524,109451,339147,403623
1630588193534,109427,339152,403715
1630588193544,109454,339178,403652
1630588193554,109457,339188,403676
1630588193564,109449,339140,403656
1630588193574,109474,339189,403638
1630588193584,109496,339207,403683
1630588193594,109482,339173,403632
1630588193604,109490,339213,403652
1630588193614,109487,339204,403642
1630588193624,109487,339251,403650
1630588193634,109483,339242,403642
1630588193644,109505,339226,403632
1630588193654,109507,339248,403630
1630588193664,109528,339263,403698
1630588193674,109517,339252,403640
1630588193684,109521,339233,403658
1630588193694,109523,339259,403657
1630588193704,109505,339249,403617
1630588193714,109477,339295,403621
1630588193724,109456,339236,403535
1630588193734,109446,339204,403531
1630588193744,109412,339291,403482
1630588193754,109392,339211,403438
1630588193764,109360,339218,403430
1630588193774,109337,339214,403443
1630588193784,109300,339174,403382
1630588193794,109273,339180,403377
1630588193804,109268,339164,403353
1630588193814,109235,339188,403349
1630588193824,109234,339180,403385
1630588193834,109191,339205,403358
1630588193844,109205,339133,403358
1630588193854,109189,339144,403361
1630588193864,109173,339164,403293
1630588193874,109164,339179,403354
1630588193884,109137,339183,403320
1630588193894,109124,339145,403343
1630588193904,109148,339159,403325
1630588193914,109128,339147,403315
1630588193924,109124,339099,403342
1630588193934,109131,339074,403293
1630588193944,109108,339144,403292
1630588193954,109103,339081,403375
1630588193964,109124,339083,403371
1630588193974,109118,339089,403359
1630588193984,109109,339086,403307
1630588193994,109142,339070,403375
1630588194004,109136,339066,403340
1630588194014,109109,339000,403333
1630588194024,109108,339019,403357
1630588194034,109124,339049,403412
1630588194044,109119,339091,403355
1630588194054,109134,339013,403334
1630588194064,109112,339016,403351
1630588194074,109121,338998,403346
1630588194084,109117,339017,403338
1630588194094,109127,338974,403345
1630588194104,109109,338997,403411
1630588194114,109120,339043,403420
1630588194124,109136,338999,403421
1630588194134,109125,338966,403425
1630588194144,109140,338977,403437
1630588194154,109158,338987,403424
1630588194164,109184,338966,403464
1630588194174,109178,338966,403531
1630588194184,109192,338971,403494
1630588194194,109193,338942,403548
1630588194204,109199,338926,403566
1630588194214,109186,338917,403546
1630588194224,109223,338932,403566
1630588194234,109190,338964,403571
1630588194244,109231,338933,403626
1630588194254,109230,338900,403608
1630588194264,109229,338964,403630
1630588194274,109233,338946,403632
1630588194284,109237,338968,403674
1630588194294,109242,338943,403645
1630588194304,109245,338917,403636
1630588194314,109266,338956,403680
1630588194324,109262,338936,403686
1630588194334,109283,338987,403647
1630588194344,109284,338963,403672
1630588194354,109280,338967,403683
1630588194364,109299,339011,403689
1630588194374,109296,338993,403683
1630588194384,109310,339013,403673
1630588194394,109297,339017,403669
1630588194404,109318,339042,403676
1630588194414,109312,339023,403717
1630588194424,109325,339056,403754
1630588194434,109313,339074,403727
1630588194444,109319,339058,403733
1630588194454,109324,339081,403714
1630588194464,109342,339086,403747
1630588194474,109350,339076,403785
1630588194484,109373,339050,403750
1630588194494,109366,339107,403795
1630588194504,109379,339114,403744
1630588194514,109371,339086,403791
1630588194524,109386,339096,403734
1630588194534,109375,339119,403767
1630588194544,109383,339117,403742
1630588194554,109367,339160,403761
1630588194564,109327,339148,403695
1630588194574,109334,339135,403643
1630588194584,109290,339092,403624
1630588194594,109255,339104,403591
1630588194604,109243,339156,403577
1630588194614,109233,339122,403575
1630588194624,109218,339077,403588
1630588194634,109178,339098,403586
1630588194644,109193,339096,403602
1630588194654,109172,339096,403607
1630588194664,109166,339026,403580
1630588194674,109123,339104,403611
1630588194684,109151,339063,403586
1630588194694,109141,339074,403563
1630588194704,109132,339050,403609
1630588194714,109145,339036,403633
1630588194724,109129,339092,403606
1630588194734,109134,339078,403591
1630588194744,109096,339060,403628
1630588194754,109107,339062,403624
1630588194764,109112,339025,403626
1630588194774,109132,339046,403623
1630588194784,109116,339034,403666
1630588194794,109136,339071,403693
1630588194804,109160,339068,403680
1630588194814,109154,339092,403705
1630588194824,109153,339042,403695
1630588194834,109154,339106,403703
1630588194844,109132,339054,403642
1630588194854,109129,339051,403710
1630588194864,109140,339069,403703
1630588194874,109143,339049,403675
1630588194884,109134,339032,403657
1630588194894,109140,339074,403699
1630588194904,109131,339101,403685
1630588194914,109113,339097,403693
1630588194924,109119,339057,403710
1630588194934,109132,339100,403719
1630588194944,109125,339091,403702
1630588194954,109140,339027,403717
1630588194964,109160,339044,403748
1630588194974,109153,339076,403794
1630588194984,109169,339081,403742
1630588194994,109144,339117,403727
1630588195004,109172,339147,403757
1630588195014,109163,339072,403740
1630588195024,109176,339075,403727
1630588195034,109162,339132,403763
1630588195044,109191,339117,403750
1630588195054,109185,339128,403765
1630588195064,109207,339094,403812
1630588195074,109182,339181,403777
1630588195084,109189,339204,403765
1630588195094,109205,339121,403762
1630588195104,109190,339134,403740
1630588195114,109227,339145,403761
1630588195124,109234,339162,403797
1630588195134,109236,339186,403761
1630588195144,109235,339212,403750
1630588195154,109239,339176,403853
1630588195164,109254,339172,403794
1630588195174,109241,339170,403802
1630588195184,109263,339195,403815
1630588195194,109293,339160,403855
1630588195204,109292,339162,403868
1630588195214,109289,339190,403874
1630588195224,109289,339192,403864
1630588195234,109303,339183,403870
1630588195244,109308,339175,403890
1630588195254,109315,339172,403862
1630588195264,109322,339178,403890
1630588195274,109306,339200,403877
1630588195284,109325,339168,403916
1630588195294,109351,339180,403881
1630588195304,109348,339215,403916
1630588195314,109355,339236,403889
1630588195324,109362,339211,403938
1630588195334,109361,339243,403920
1630588195344,109366,339254,403869
1630588195354,109373,339199,403870
1630588195364,109360,339215,403841
1630588195374,109350,339211,403802
1630588195384,109334,339219,403757
1630588195394,109297,339240,403729
1630588195404,109260,339204,403696
1630588195414,109258,339221,403717
1630588195424,109225,339165,403686
1630588195434,109198,339177,403697
1630588195444,109196,339202,403690
1630588195454,109196,339178,403656
1630588195464,109187,339169,403695
1630588195474,109163,339158,403732
1630588195484,109152,339134,403678
1630588195494,109144,339138,403704
1630588195504,109155,339164,403700
1630588195514,109152,339175,403713
1630588195524,109151,339128,403678
1630588195534,109157,339156,403683
1630588195544,109139,339157,403674
1630588195554,109146,339154,403651
1630588195564,109151,339131,403710
1630588195574,109140,339163,403686
1630588195584,109126,339119,403719
1630588195594,109154,339134,403723
1630588195604,109155,339149,403724
1630588195614,109174,339122,403719
1630588195624,109170,339156,403754
1630588195634,109135,339132,403712
1630588195644,109168,339124,403698
1630588195654,109156,339098,403713
1630588195664,109154,339156,403687
1630588195674,109156,339157,403722
1630588195684,109169,339162,403697
1630588195694,109154,339138,403674
1630588195704,109157,339124,403702
1630588195714,109139,339133,403686
1630588195724,109148,339120,403671
1630588195734,109145,339153,403681
1630588195744,109139,339165,403659
1630588195754,109142,339140,403676
1630588195764,109155,339177,403653
1630588195774,109177,339150,403690
1630588195784,109193,339120,403724
1630588195794,109182,339128,403718
1630588195804,109198,339185,403732
1630588195814,109210,339104,403727
1630588195824,109201,339151,403714
1630588195834,109218,339126,403741
1630588195844,109184,339168,403723
1630588195854,109226,339141,403758
1630588195864,109229,339129,403759
1630588195874,109239,339155,403749
1630588195884,109220,339145,403726
1630588195894,109245,339140,403751
1630588195904,109257,339184,403772
1630588195914,109259,339161,403725
1630588195924,109260,339168,403769
1630588195934,109269,339186,403727
1630588195944,109298,339123,403767
1630588195954,109297,339177,403769
1630588195964,109314,339199,403790
1630588195974,109307,339179,403806
1630588195984,109299,339224,403798
1630588195994,109326,339227,403795
1630588196004,109319,339202,403835
1630588196014,109322,339214,403825
1630588196024,109305,339186,403822
1630588196034,109358,339237,403833
1630588196044,109347,339221,403776
1630588196054,109362,339209,403823
1630588196064,109358,339210,403852
1630588196074,109373,339243,403873
1630588196084,109371,339230,403856
1630588196094,109385,339287,403821
1630588196104,109397,339253,403882
1630588196114,109403,339238,403886
1630588196124,109416,339260,403891
1630588196134,109434,339291,403865
1630588196144,109439,339272,403880
1630588196154,109442,339235,403871
1630588196164,109440,339269,403893
1630588196174,109464,339272,403888
1630588196184,109433,339274,403879
1630588196194,109419,339271,403853
1630588196204,109422,339220,403826
1630588196214,109387,339266,403800
1630588196224,109374,339229,403783
1630588196234,109342,339246,403744
1630588196244,109316,339208,403742
1630588196254,109321,339226,403756
1630588196264,109328,339179,403700
1630588196274,109307,339176,403705
1630588196284,109304,339170,403698
1630588196294,109262,339163,403705
1630588196304,109265,339146,403710
1630588196314,109264,339195,403735
1630588196324,109257,339135,403752
1630588196334,109271,339143,403708
1630588196344,109222,339170,403682
1630588196354,109244,339160,403709
1630588196364,109255,339129,403676
1630588196374,109243,339167,403709
1630588196384,109234,339129,403683
1630588196394,109237,339093,403710
1630588196404,109220,339100,403675
1630588196414,109227,339084,403715
1630588196424,109241,339102,403720
1630588196434,109252,339101,403728
1630588196444,109253,339149,403685
1630588196454,109267,339154,403690
1630588196464,109245,339127,403709
1630588196474,109243,339131,403718
1630588196484,109253,339139,403672
1630588196494,109248,339134,403700
1630588196504,109260,339142,403741
1630588196514,109249,339167,403672
1630588196524,109250,339173,403667
1630588196534,109226,339109,403659
1630588196544,109236,339111,403683
1630588196554,109241,339129,403708
1630588196564,109242,339128,403688
1630588196574,109239,339115,403673
1630588196584,109263,339159,403688
1630588196594,109274,339134,403668
1630588196604,109276,339128,403691
1630588196614,109270,339130,403653
1630588196624,109263,339143,403671
1630588196634,109274,339156,403709
1630588196644,109289,339157,403672
1630588196654,109302,339155,403676
1630588196664,109304,339134,403750
1630588196674,109310,339135,403697
1630588196684,109301,339134,403671
1630588196694,109305,339198,403657
1630588196704,109310,339159,403718
1630588196714,109309,339165,403724
1630588196724,109322,339198,403663
1630588196734,109320,339174,403700
1630588196744,109350,339165,403751
1630588196754,109366,339182,403733
1630588196764,109377,339161,403744
1630588196774,109362,339183,403695
1630588196784,109378,339184,403749
1630588196794,109378,339149,403706
1630588196804,109386,339208,403732
1630588196814,109371,339214,403756
1630588196824,109384,339181,403742
1630588196834,109395,339179,403719
1630588196844,109419,339194,403770
1630588196854,109430,339158,403728
1630588196864,109430,339236,403696
1630588196874,109430,339240,403698
1630588196884,109426,339232,403733
1630588196894,109432,339217,403739
1630588196904,109453,339222,403799
1630588196914,109449,339200,403748
1630588196924,109465,339231,403734
1630588196934,109478,339274,403788
1630588196944,109475,339263,403771
1630588196954,109479,339274,403782
1630588196964,109511,339281,403734
1630588196974,109518,339296,403778
1630588196984,109492,339253,403720
1630588196994,109511,339252,403796
1630588197004,109532,339285,403750
1630588197014,109531,339248,403771
1630588197024,109503,339268,403766
1630588197034,109499,339273,403664
1630588197044,109474,339295,403658
1630588197054,109458,339292,403643
1630588197064,109446,339268,403576
1630588197074,109431,339281,403578
1630588197084,109396,339290,403596
1630588197094,109383,339188,403544
1630588197104,109389,339242,403558
1630588197114,109373,339196,403548
1630588197124,109353,339218,403563
1630588197134,109350,339211,403579
1630588197144,109368,339203,403546
1630588197154,109348,339250,403546
1630588197164,109326,339210,403546
1630588197174,109340,339171,403516
1630588197184,109325,339207,403583
1630588197194,109342,339250,403494
1630588197204,109327,339175,403569
1630588197214,109306,339204,403500
1630588197224,109327,339198,403535
1630588197234,109313,339194,403546
1630588197244,109349,339169,403583
1630588197254,109341,339193,403584
1630588197264,109350,339180,403581
1630588197274,109344,339162,403576
1630588197284,109343,339189,403592
1630588197294,109343,339180,403612
1630588197304,109354,339130,403614
1630588197314,109354,339158,403576
1630588197324,109357,339187,403583
1630588197334,109375,339218,403587
1630588197344,109358,339142,403584
1630588197354,109375,339204,403589
1630588197364,109367,339162,403591
1630588197374,109355,339194,403569
1630588197384,109367,339138,403600
1630588197394,109382,339164,403589
1630588197404,109380,339208,403623
1630588197414,109390,339153,403626
1630588197424,109403,339203,403623
1630588197434,109394,339172,403607
1630588197444,109382,339141,403584
1630588197454,109425,339199,403612
1630588197464,109428,339195,403612
1630588197474,109422,339164,403622
1630588197484,109423,339183,403617
1630588197494,109428,339207,403645
1630588197504,109443,339162,403626
1630588197514,109438,339205,403649
1630588197524,109437,339180,403649
1630588197534,109426,339206,403640
1630588197544,109447,339206,403658
1630588197554,109485,339157,403680
1630588197564,109491,339217,403640
1630588197574,109491,339155,403718
1630588197584,109493,339190,403680
1630588197594,109492,339206,403687
1630588197604,109512,339205,403692
1630588197614,109532,339184,403660
1630588197624,109510,339219,403703
1630588197634,109528,339213,403665
1630588197644,109530,339206,403678
1630588197654,109549,339208,403688
1630588197664,109529,339227,403708
1630588197674,109544,339238,403695
1630588197684,109548,339206,403687
1630588197694,109546,339191,403697
1630588197704,109549,339231,403702
1630588197714,109585,339263,403711
1630588197724,109598,339261,403756
1630588197734,109620,339266,403720
1630588197744,109615,339248,403704
1630588197754,109621,339236,403732
1630588197764,109624,339245,403724
1630588197774,109635,339249,403672
1630588197784,109622,339272,403694
1630588197794,109635,339267,403694
1630588197804,109625,339207,403746
1630588197814,109651,339258,403708
1630588197824,109649,339286,403719
1630588197834,109652,339254,403681
1630588197844,109638,339287,403732
1630588197854,109655,339260,403688
1630588197864,109655,339251,403674
1630588197874,109625,339237,403656
1630588197884,109594,339216,403644
1630588197894,109605,339225,403617
1630588197904,109580,339192,403554
1630588197914,109591,339224,403573
1630588197924,109554,339195,403596
1630588197934,109522,339214,403590
1630588197944,109549,339175,403615
1630588197954,109509,339162,403557
1630588197964,109539,339163,403576
1630588197974,109518,339196,403548
1630588197984,109516,339197,403551
1630588197994,109519,339156,403586
1630588198004,109505,339192,403564
1630588198014,109526,339129,403506
1630588198024,109514,339130,403510
1630588198034,109504,339110,403566
1630588198044,109503,339088,403578
1630588198054,109502,339125,403545
1630588198064,109516,339122,403557
1630588198074,109501,339098,403587
1630588198084,109486,339087,403573
1630588198094,109491,339131,403565
1630588198104,109518,339103,403576
1630588198114,109525,339111,403571
1630588198124,109511,339104,403537
1630588198134,109505,339128,403516
1630588198144,109524,339106,403543
1630588198154,109497,339120,403567
1630588198164,109505,339080,403506
1630588198174,109529,339054,403527
1630588198184,109491,339092,403477
1630588198194,109526,339094,403534
1630588198204,109523,339074,403531
1630588198214,109517,339084,403529
1630588198224,109521,339044,403536
1630588198234,109494,339092,403574
1630588198244,109512,339070,403562
1630588198254,109512,339089,403514
1630588198264,109501,338985,403547
1630588198274,109537,339050,403516
1630588198284,109540,339020,403553
1630588198294,109562,339050,403549
1630588198304,109530,339014,403546
1630588198314,109540,339109,403535
1630588198324,109545,339052,403538
1630588198334,109537,339031,403539
1630588198344,109549,339010,403572
1630588198354,109566,338997,403566
1630588198364,109578,339009,403541
1630588198374,109577,339026,403605
1630588198384,109563,338991,403543
1630588198394,109586,339021,403559
1630588198404,109592,339032,403509
1630588198414,109579,339067,403532
1630588198424,109602,339035,403548
1630588198434,109607,339053,403562
1630588198444,109614,339003,403533
1630588198454,109617,339049,403511
1630588198464,109619,339037,403576
1630588198474,109596,339042,403480
1630588198484,109612,339049,403561
1630588198494,109618,339035,403522
1630588198504,109623,339080,403535
1630588198514,109627,339018,403548
1630588198524,109671,339047,403502
1630588198534,109664,339057,403587
1630588198544,109682,339066,403563
1630588198554,109656,339030,403517
1630588198564,109695,339044,403554
1630588198574,109692,339069,403589
1630588198584,109678,339083,403579
1630588198594,109698,339027,403562
1630588198604,109714,339048,403586
1630588198614,109711,339060,403589
1630588198624,109702,339063,403583
1630588198634,109722,339075,403617
1630588198644,109721,339061,403581
1630588198654,109714,339066,403600
1630588198664,109705,339050,403528
1630588198674,109682,339085,403488
1630588198684,109660,339061,403510
1630588198694,109654,338972,403415
1630588198704,109654,339000,403425
1630588198714,109609,338982,403397
1630588198724,109591,338990,403425
1630588198734,109577,338966,403415
1630588198744,109569,338983,403395
1630588198754,109570,338988,403405
1630588198764,109573,338957,403433
1630588198774,109547,338941,403415
1630588198784,109534,338938,403403
1630588198794,109540,338941,403332
1630588198804,109525,338919,403382
1630588198814,109508,338911,403413
1630588198824,109496,338914,403359
1630588198834,109490,338945,403346
1630588198844,109512,338866,403395
1630588198854,109508,338906,403351
1630588198864,109482,338879,403357
1630588198874,109501,338862,403363
1630588198884,109512,338881,403406
1630588198894,109487,338851,403387
1630588198904,109491,338852,403364
1630588198914,109517,338905,403426
1630588198924,109504,338863,403411
1630588198934,109518,338806,403428
1630588198944,109524,338846,403372
1630588198954,109526,338882,403453
1630588198964,109536,338903,403437
1630588198974,109540,338866,403459
1630588198984,109505,338837,403452
1630588198994,109524,338852,403421
1630588199004,109527,338808,403421
1630588199014,109525,338813,403460
1630588199024,109527,338819,403434
1630588199034,109530,338791,403481
1630588199044,109529,338847,403455
1630588199054,109509,338821,403424
1630588199064,109517,338783,403463
1630588199074,109523,338824,403468
1630588199084,109539,338820,403436
1630588199094,109544,338808,403437
1630588199104,109551,338817,403481
1630588199114,109555,338841,403461
1630588199124,109565,338797,403480
1630588199134,109561,338794,403523
1630588199144,109592,338806,403486
1630588199154,109561,338787,403517
1630588199164,109563,338784,403542
1630588199174,109600,338835,403512
1630588199184,109595,338785,403527
1630588199194,109597,338807,403578
1630588199204,109633,338766,403550
1630588199214,109630,338824,403582
1630588199224,109647,338815,403564
1630588199234,109618,338790,403615
1630588199244,109643,338778,403628
1630588199254,109641,338805,403607
1630588199264,109665,338757,403608
1630588199274,109666,338760,403618
1630588199284,109655,338795,403587
1630588199294,109679,338804,403643
1630588199304,109685,338749,403628
1630588199314,109693,338789,403651
1630588199324,109721,338790,403643
1630588199334,109725,338840,403651
1630588199344,109732,338794,403662
1630588199354,109739,338811,403689
1630588199364,109755,338818,403703
1630588199374,109741,338833,403656
1630588199384,109751,338842,403758
1630588199394,109754,338823,403707
1630588199404,109765,338859,403753
1630588199414,109787,338871,403721
1630588199424,109790,338845,403738
1630588199434,109773,338868,403763
1630588199444,109809,338896,403753
1630588199454,109799,338868,403770
1630588199464,109808,338872,403733
1630588199474,109817,338898,403747
1630588199484,109791,338875,403738
1630588199494,109769,338848,403733
1630588199504,109775,338849,403695
1630588199514,109753,338863,403675
1630588199524,109747,338851,403653
1630588199534,109736,338837,403686
1630588199544,109689,338855,403671
1630588199554,109693,338824,403674
1630588199564,109722,338790,403640
1630588199574,109702,338798,403690
1630588199584,109696,338823,403744
1630588199594,109719,338740,403789
1630588199604,109714,338753,403832
1630588199614,109729,338730,403860
1630588199624,109713,338713,403900
1630588199634,109738,338730,403988
1630588199644,109761,338689,404024
1630588199654,109753,338694,404048
1630588199664,109760,338636,404091
1630588199674,109760,338636,404092
1630588199684,109766,338629,404159
1630588199694,109782,338542,404154
1630588199704,109757,338554,404136
1630588199714,109763,338539,404183
1630588199724,109790,338594,404211
1630588199734,109790,338542,404234
1630588199744,109810,338537,404230
1630588199754,109794,338545,404276
1630588199764,109772,338530,404244
1630588199774,109789,338590,404211
1630588199784,109791,338568,404215
1630588199794,109787,338504,404181
1630588199804,109779,338499,404185
1630588199814,109804,338501,404183
1630588199824,109773,338525,404175
1630588199834,109798,338518,404192
1630588199844,109798,338526,404169
1630588199854,109794,338527,404127
1630588199864,109784,338516,404141
1630588199874,109771,338515,404135
1630588199884,109789,338523,404124
1630588199894,109807,338567,404125
1630588199904,109791,338547,404121
1630588199914,109793,338541,404098
1630588199924,109800,338544,404105
1630588199934,109779,338555,404133
1630588199944,109784,338572,404123
1630588199954,109786,338604,404154
1630588199964,109788,338598,404136
1630588199974,109795,338588,404160
1630588199984,109820,338618,404171
1630588199994,109832,338595,404128
1630588200004,109830,338606,404124
1630588200014,109817,338633,404107
1630588200024,109834,338640,404131
1630588200034,109845,338693,404140
1630588200044,109828,338648,404154
1630588200054,109861,338619,404168
1630588200064,109859,338670,404138
1630588200074,109861,338649,404134
1630588200084,109876,338690,404123
1630588200094,109847,338686,404129
1630588200104,109889,338715,404174
1630588200114,109881,338707,404138
1630588200124,109863,338714,404108
1630588200134,109885,338736,404106
1630588200144,109890,338739,404128
1630588200154,109876,338788,404148
1630588200164,109901,338753,404145
1630588200174,109914,338757,404150
1630588200184,109903,338746,404139
1630588200194,109903,338736,404153
1630588200204,109900,338805,404210
1630588200214,109924,338809,404196
1630588200224,109945,338790,404189
1630588200234,109959,338824,404214
1630588200244,109941,338830,404191
1630588200254,109971,338783,404184
1630588200264,109960,338826,404223
1630588200274,109963,338817,404232
1630588200284,109966,338815,404179
1630588200294,109987,338811,404214
1630588200304,109999,338775,404216
1630588200314,109951,338797,404180
1630588200324,109915,338814,404150
1630588200334,109918,338819,404148
1630588200344,109910,338823,404083
1630588200354,109883,338785,404091
1630588200364,109871,338862,404100
1630588200374,109824,338771,404079
1630588200384,109845,338763,404123
1630588200394,109834,338794,404088
1630588200404,109841,338786,404077
1630588200414,109838,338808,404124
1630588200424,109812,338756,404083
1630588200434,109812,338762,404097
1630588200444,109805,338783,404084
1630588200454,109786,338771,404106
1630588200464,109804,338764,404120
1630588200474,109766,338769,404089
1630588200484,109783,338721,404117
1630588200494,109802,338817,404122
1630588200504,109796,338780,404114
1630588200514,109776,338801,404103
1630588200524,109798,338713,404110
1630588200534,109811,338758,404155
1630588200544,109801,338796,404149
1630588200554,109784,338797,404178
1630588200564,109811,338805,404150
1630588200574,109799,338758,404139
1630588200584,109793,338778,404174
1630588200594,109808,338758,404136
1630588200604,109808,338748,404150
1630588200614,109811,338775,404163
1630588200624,109813,338763,404181
1630588200634,109807,338739,404139
1630588200644,109814,338810,404160
1630588200654,109813,338785,404108
1630588200664,109820,338791,404144
1630588200674,109803,338786,404140
1630588200684,109808,338792,404181
1630588200694,109822,338791,404219
1630588200704,109795,338800,404199
1630588200714,109818,338825,404169
1630588200724,109835,338754,404196
1630588200734,109842,338827,404242
1630588200744,109821,338799,404230
1630588200754,109812,338838,404174
1630588200764,109833,338866,404202
1630588200774,109828,338810,404249
1630588200784,109850,338828,404229
1630588200794,109877,338821,404204
1630588200804,109870,338867,404225
1630588200814,109878,338884,404231
1630588200824,109858,338867,404191
1630588200834,109869,338840,404223
1630588200844,109885,338817,404223
1630588200854,109891,338852,404217
1630588200864,109898,338874,404206
1630588200874,109892,338862,404237
1630588200884,109881,338909,404201
1630588200894,109903,338884,404239
1630588200904,109894,338846,404209
1630588200914,109898,338870,404238
1630588200924,109904,338909,404221
1630588200934,109912,338888,404242
1630588200944,109929,338903,404207
1630588200954,109910,338908,404217
1630588200964,109931,338861,404274
1630588200974,109943,338840,404252
1630588200984,109950,338891,404253
1630588200994,109947,338875,404207
1630588201004,109952,338919,404268
1630588201014,109969,338954,404233
1630588201024,109982,338894,404232
1630588201034,109975,338897,404285
1630588201044,110012,338904,404244
1630588201054,109973,338874,404238
1630588201064,109971,338929,404270
1630588201074,109982,338902,404301
1630588201084,109974,338912,404222
1630588201094,109989,338915,404273
1630588201104,109988,338937,404183
1630588201114,109970,338889,404197
1630588201124,109947,338893,404101
1630588201134,109925,338881,404111
1630588201144,109909,338857,404079
1630588201154,109882,338851,404035
1630588201164,109851,338918,404029
1630588201174,109839,338801,404050
1630588201184,109853,338818,404091
1630588201194,109839,338796,404046
1630588201204,109820,338862,403989
1630588201214,109781,338804,404003
1630588201224,109797,338799,403998
1630588201234,109772,338801,404008
1630588201244,109774,338793,403998
1630588201254,109765,338789,403954
1630588201264,109741,338790,404006
1630588201274,109752,338783,403992
1630588201284,109741,338755,403965
1630588201294,109743,338777,403951
1630588201304,109720,338810,403917
1630588201314,109739,338788,403947
1630588201324,109721,338848,403947
1630588201334,109724,338825,403945
1630588201344,109748,338828,403941
1630588201354,109737,338821,403973
1630588201364,109725,338853,403988
1630588201374,109731,338857,403930
1630588201384,109713,338874,403916
1630588201394,109734,338819,403948
1630588201404,109715,338831,403927
1630588201414,109698,338890,403871
1630588201424,109706,338843,403905
1630588201434,109722,338859,403889
1630588201444,109705,338891,403900
1630588201454,109688,338906,403883
1630588201464,109710,338896,403879
1630588201474,109696,338888,403874
1630588201484,109696,338888,403905
1630588201494,109699,338912,403883
1630588201504,109712,338871,403890
1630588201514,109718,338919,403880
1630588201524,109689,338935,403866
1630588201534,109720,338920,403883
1630588201544,109687,338932,403849
1630588201554,109687,338971,403870
1630588201564,109699,338938,403819
1630588201574,109699,338945,403855
1630588201584,109710,338912,403863
1630588201594,109717,338957,403841
1630588201604,109705,339000,403857
1630588201614,109730,338974,403818
1630588201624,109711,338959,403856
1630588201634,109739,339020,403801
1630588201644,109728,339005,403878
1630588201654,109732,338965,403908
1630588201664,109727,338965,403869
1630588201674,109740,338997,403925
1630588201684,109762,339028,403913
1630588201694,109761,339013,403906
1630588201704,109779,339052,403908
1630588201714,109770,339028,403909
1630588201724,109781,339040,403931
1630588201734,109790,339023,403882
1630588201744,109774,339043,403932
1630588201754,109793,339034,403931
1630588201764,109814,339023,403947
1630588201774,109825,339058,403919
1630588201784,109822,339048,403958
1630588201794,109818,339029,403974
1630588201804,109825,339052,403996
1630588201814,109828,339075,403950
1630588201824,109828,339039,403947
1630588201834,109864,339058,403988
1630588201844,109872,339064,403995
1630588201854,109866,339121,404002
1630588201864,109880,339054,404008
1630588201874,109854,339088,404008
1630588201884,109868,339084,403994
1630588201894,109872,339101,403983
1630588201904,109855,339119,403936
1630588201914,109870,339081,404009
1630588201924,109861,339115,403926
1630588201934,109794,339026,403914
1630588201944,109808,339150,403848
1630588201954,109773,339079,403819
1630588201964,109773,339075,403830
1630588201974,109721,339035,403800
1630588201984,109759,339031,403794
1630588201994,109708,339040,403847
1630588202004,109693,339009,403793
1630588202014,109693,338997,403832
1630588202024,109686,338999,403837
1630588202034,109663,339014,403817
1630588202044,109643,338954,403854
1630588202054,109639,339020,403792
1630588202064,109635,338991,403798
1630588202074,109631,339014,403791
1630588202084,109649,338970,403759
1630588202094,109635,338967,403788
1630588202104,109623,338964,403811
1630588202114,109616,338942,403834
1630588202124,109612,338966,403821
1630588202134,109614,338982,403817
1630588202144,109610,338961,403807
1630588202154,109602,338892,403834
1630588202164,109620,338984,403869
1630588202174,109598,338925,403870
1630588202184,109608,338897,403827
1630588202194,109623,338925,403826
1630588202204,109608,338961,403852
1630588202214,109629,338954,403853
1630588202224,109600,338955,403853
1630588202234,109586,338930,403822
1630588202244,109615,338890,403860
1630588202254,109613,338918,403873
1630588202264,109570,338900,403851
1630588202274,109613,338921,403895
1630588202284,109609,338951,403926
1630588202294,109607,338897,403876
1630588202304,109601,338938,403901
1630588202314,109626,338922,403913
1630588202324,109634,338878,403899
1630588202334,109608,338878,403892
1630588202344,109648,338900,403917
1630588202354,109647,338921,403911
1630588202364,109623,338893,403931
1630588202374,109624,338909,403938
1630588202384,109641,338919,403954
1630588202394,109639,338913,403954
1630588202404,109669,338884,403986
1630588202414,109642,338900,403971
1630588202424,109669,338946,403959
1630588202434,109672,338888,404007
1630588202444,109716,338927,403938
1630588202454,109669,338914,403946
1630588202464,109674,338901,403963
1630588202474,109706,338957,403950
1630588202484,109685,338899,403966
1630588202494,109706,338932,403950
1630588202504,109725,338900,403986
1630588202514,109694,338950,403992
1630588202524,109705,338947,403944
1630588202534,109698,338931,403980
1630588202544,109745,338921,403991
1630588202554,109735,338909,403992
1630588202564,109764,338968,403962
1630588202574,109751,338918,403974
1630588202584,109757,338946,404000
1630588202594,109754,338956,403963
1630588202604,109768,338955,403992
1630588202614,109757,338920,404017
1630588202624,109768,338927,404023
1630588202634,109777,338925,404034
1630588202644,109745,338931,404024
1630588202654,109799,338933,404047
1630588202664,109802,338920,404012
1630588202674,109825,338909,404022
1630588202684,109793,338919,403976
1630588202694,109796,338926,404011
1630588202704,109811,338901,403982
1630588202714,109801,338969,404014
1630588202724,109807,338972,403996
1630588202734,109820,338948,404006
1630588202744,109770,338889,403953
1630588202754,109767,338949,403923
1630588202764,109756,338927,403888
1630588202774,109730,338944,403878
1630588202784,109669,338891,403846
1630588202794,109686,338901,403842
1630588202804,109679,338850,403872
1630588202814,109664,338867,403890
1630588202824,109635,338831,403895
1630588202834,109653,338844,403899
1630588202844,109640,338836,403924
1630588202854,109642,338831,403871
1630588202864,109618,338848,403850
1630588202874,109627,338811,403825
1630588202884,109609,338826,403855
1630588202894,109608,338839,403909
1630588202904,109613,338796,403899
1630588202914,109602,338781,403871
1630588202924,109561,338818,403927
1630588202934,109598,338776,403912
1630588202944,109596,338802,403880
1630588202954,109617,338750,403919
1630588202964,109607,338782,403943
1630588202974,109594,338773,403976
1630588202984,109608,338813,403921
1630588202994,109631,338789,403948
1630588203004,109629,338760,403965
1630588203014,109605,338750,403966
1630588203024,109602,338787,404009
1630588203034,109601,338803,403953
1630588203044,109613,338767,403968
1630588203054,109611,338787,403955
1630588203064,109607,338769,403953
1630588203074,109571,338778,403954
1630588203084,109603,338806,403937
1630588203094,109601,338813,403957
1630588203104,109609,338770,403957
1630588203114,109626,338812,403969
1630588203124,109606,338762,403949
1630588203134,109610,338796,403986
1630588203144,109604,338789,403967
1630588203154,109621,338840,403996
1630588203164,109601,338823,403956
1630588203174,109595,338820,403996
1630588203184,109618,338799,403978
1630588203194,109616,338836,403970
1630588203204,109597,338820,403975
1630588203214,109644,338843,404030
1630588203224,109607,338825,404027
1630588203234,109642,338844,404010
1630588203244,109647,338874,404000
1630588203254,109648,338839,404057
1630588203264,109627,338867,404021
