timestamp,ecg_waveform
1631632613003,2049
1631632613007,2049
1631632613011,2048
1631632613015,2047
1631632613019,2045
1631632613023,2043
1631632613027,2041
1631632613031,2040
1631632613035,2040
1631632613039,2040
1631632613043,2039
1631632613047,2039
1631632613051,2039
1631632613055,2040
1631632613059,2042
1631632613063,2043
1631632613067,2044
1631632613071,2043
1631632613075,2042
1631632613079,2040
1631632613083,2036
1631632613087,2036
1631632613091,2044
1631632613095,2059
1631632613099,2080
1631632613103,2098
1631632613107,2103
1631632613111,2092
1631632613115,2069
1631632613119,2046
1631632613123,2030
1631632613127,2026
1631632613131,2030
1631632613135,2036
1631632613139,2040
1631632613143,2040
1631632613147,2041
1631632613151,2044
1631632613155,2047
1631632613159,2049
1631632613163,2051
1631632613167,2052
1631632613171,2052
1631632613175,2051
1631632613179,2051
1631632613183,2051
1631632613187,2053
1631632613191,2056
1631632613195,2060
1631632613199,2063
1631632613203,2063
1631632613207,2061
1631632613211,2058
1631632613215,2057
1631632613219,2057
1631632613223,2059
1631632613227,2061
1631632613231,2063
1631632613235,2064
1631632613239,2065
1631632613243,2066
1631632613247,2066
1631632613251,2067
1631632613255,2068
1631632613259,2068
1631632613263,2068
1631632613267,2068
1631632613271,2068
1631632613275,2069
1631632613279,2071
1631632613283,2074
1631632613287,2076
1631632613291,2076
1631632613295,2076
1631632613299,2074
1631632613303,2073
1631632613307,2072
1631632613311,2074
1631632613315,2077
1631632613319,2078
1631632613323,2079
1631632613327,2079
1631632613331,2078
1631632613335,2078
1631632613339,2079
1631632613343,2081
1631632613347,2082
1631632613351,2082
1631632613355,2081
1631632613359,2079
1631632613363,2077
1631632613367,2077
1631632613371,2077
1631632613375,2076
1631632613379,2075
1631632613383,2072
1631632613387,2069
1631632613391,2066
1631632613395,2065
1631632613399,2065
1631632613403,2065
1631632613407,2066
1631632613411,2065
1631632613415,2063
1631632613419,2061
1631632613423,2059
1631632613427,2059
1631632613431,2059
1631632613435,2059
1631632613439,2058
1631632613443,2057
1631632613447,2055
1631632613451,2054
1631632613455,2053
1631632613459,2052
1631632613463,2052
1631632613467,2051
1631632613471,2050
1631632613475,2050
1631632613479,2049
1631632613483,2049
1631632613487,2050
1631632613491,2050
1631632613495,2049
1631632613499,2048
1631632613503,2046
1631632613507,2045
1631632613511,2045
1631632613515,2045
1631632613519,2046
1631632613523,2045
1631632613527,2043
1631632613531,2042
1631632613535,2040
1631632613539,2039
1631632613543,2038
1631632613547,2036
1631632613551,2032
1631632613555,2029
1631632613559,2025
1631632613563,2023
1631632613567,2023
1631632613571,2022
1631632613575,2021
1631632613579,2018
1631632613583,2016
1631632613587,2015
1631632613591,2015
1631632613595,2016
1631632613599,2016
1631632613603,2014
1631632613607,2013
1631632613611,2011
1631632613615,2009
1631632613619,2007
1631632613623,2006
1631632613627,2004
1631632613631,2003
1631632613635,2004
1631632613639,2005
1631632613643,2006
1631632613647,2007
1631632613651,2005
1631632613655,2004
1631632613659,2002
1631632613663,2001
1631632613667,2001
1631632613671,2002
1631632613675,2002
1631632613679,2002
1631632613683,2002
1631632613687,2002
1631632613691,2003
1631632613695,2003
1631632613699,2003
1631632613703,2003
1631632613707,2004
1631632613711,2006
1631632613715,2009
1631632613719,2012
1631632613723,2015
1631632613727,2017
1631632613731,2018
1631632613735,2017
1631632613739,2016
1631632613743,2016
1631632613747,2015
1631632613751,2014
1631632613755,2014
1631632613759,2014
1631632613763,2014
1631632613767,2013
1631632613771,2012
1631632613775,2010
1631632613779,2008
1631632613783,2007
1631632613787,2008
1631632613791,2010
1631632613795,2013
1631632613799,2014
1631632613803,2014
1631632613807,2014
1631632613811,2012
1631632613815,2012
1631632613819,2012
1631632613823,2013
1631632613827,2014
1631632613831,2013
1631632613835,2011
1631632613839,2008
1631632613843,2008
1631632613847,2016
1631632613851,2032
1631632613855,2051
1631632613859,2067
1631632613863,2071
1631632613867,2062
1631632613871,2042
1631632613875,2020
1631632613879,2004
1631632613883,1996
1631632613887,1996
1631632613891,2002
1631632613895,2008
1631632613899,2014
1631632613903,2019
1631632613907,2023
1631632613911,2024
1631632613915,2024
1631632613919,2023
1631632613923,2023
1631632613927,2023
1631632613931,2024
1631632613935,2024
1631632613939,2023
1631632613943,2021
1631632613947,2020
1631632613951,2021
1631632613955,2023
1631632613959,2027
1631632613963,2030
1631632613967,2031
1631632613971,2030
1631632613975,2028
1631632613979,2026
1631632613983,2026
1631632613987,2026
1631632613991,2027
1631632613995,2028
1631632613999,2028
1631632614003,2028
1631632614007,2027
1631632614011,2026
1631632614015,2025
1631632614019,2026
1631632614023,2028
1631632614027,2030
1631632614031,2031
1631632614035,2031
1631632614039,2031
1631632614043,2031
1631632614047,2032
1631632614051,2034
1631632614055,2036
1631632614059,2037
1631632614063,2037
1631632614067,2036
1631632614071,2036
1631632614075,2036
1631632614079,2036
1631632614083,2036
1631632614087,2037
1631632614091,2036
1631632614095,2036
1631632614099,2035
1631632614103,2034
1631632614107,2032
1631632614111,2030
1631632614115,2029
1631632614119,2028
1631632614123,2027
1631632614127,2026
1631632614131,2025
1631632614135,2023
1631632614139,2022
1631632614143,2020
1631632614147,2019
1631632614151,2018
1631632614155,2017
1631632614159,2016
1631632614163,2014
1631632614167,2014
1631632614171,2014
1631632614175,2013
1631632614179,2013
1631632614183,2012
1631632614187,2011
1631632614191,2010
1631632614195,2011
1631632614199,2012
1631632614203,2012
1631632614207,2012
1631632614211,2011
1631632614215,2010
1631632614219,2009
1631632614223,2009
1631632614227,2011
1631632614231,2012
1631632614235,2014
1631632614239,2015
1631632614243,2016
1631632614247,2016
1631632614251,2016
1631632614255,2017
1631632614259,2017
1631632614263,2018
1631632614267,2019
1631632614271,2020
1631632614275,2022
1631632614279,2022
1631632614283,2023
1631632614287,2024
1631632614291,2025
1631632614295,2025
1631632614299,2025
1631632614303,2026
1631632614307,2026
1631632614311,2026
1631632614315,2027
1631632614319,2028
1631632614323,2029
1631632614327,2031
1631632614331,2031
1631632614335,2032
1631632614339,2033
1631632614343,2034
1631632614347,2034
1631632614351,2034
1631632614355,2034
1631632614359,2034
1631632614363,2033
1631632614367,2034
1631632614371,2035
1631632614375,2037
1631632614379,2038
1631632614383,2039
1631632614387,2039
1631632614391,2039
1631632614395,2040
1631632614399,2042
1631632614403,2043
1631632614407,2044
1631632614411,2045
1631632614415,2046
1631632614419,2046
1631632614423,2045
1631632614427,2045
1631632614431,2045
1631632614435,2045
1631632614439,2046
1631632614443,2048
1631632614447,2049
1631632614451,2051
1631632614455,2054
1631632614459,2056
1631632614463,2056
1631632614467,2056
1631632614471,2055
1631632614475,2054
1631632614479,2054
1631632614483,2054
1631632614487,2053
1631632614491,2053
1631632614495,2052
1631632614499,2050
1631632614503,2049
1631632614507,2049
1631632614511,2049
1631632614515,2050
1631632614519,2051
1631632614523,2050
1631632614527,2048
1631632614531,2046
1631632614535,2045
1631632614539,2045
1631632614543,2046
1631632614547,2048
1631632614551,2048
1631632614555,2048
1631632614559,2047
1631632614563,2047
1631632614567,2045
1631632614571,2042
1631632614575,2043
1631632614579,2048
1631632614583,2062
1631632614587,2080
1631632614591,2095
1631632614595,2099
1631632614599,2090
1631632614603,2071
1631632614607,2051
1631632614611,2035
1631632614615,2026
1631632614619,2024
1631632614623,2026
1631632614627,2031
1631632614631,2037
1631632614635,2044
1631632614639,2048
1631632614643,2049
1631632614647,2048
1631632614651,2047
1631632614655,2045
1631632614659,2044
1631632614663,2044
1631632614667,2045
1631632614671,2046
1631632614675,2048
1631632614679,2050
1631632614683,2052
1631632614687,2054
1631632614691,2054
1631632614695,2052
1631632614699,2049
1631632614703,2048
1631632614707,2048
1631632614711,2049
1631632614715,2051
1631632614719,2053
1631632614723,2054
1631632614727,2054
1631632614731,2053
1631632614735,2053
1631632614739,2052
1631632614743,2050
1631632614747,2050
1631632614751,2050
1631632614755,2051
1631632614759,2054
1631632614763,2055
1631632614767,2057
1631632614771,2057
1631632614775,2057
1631632614779,2057
1631632614783,2057
1631632614787,2059
1631632614791,2061
1631632614795,2064
1631632614799,2066
1631632614803,2067
1631632614807,2067
1631632614811,2066
1631632614815,2064
1631632614819,2062
1631632614823,2062
1631632614827,2062
1631632614831,2063
1631632614835,2064
1631632614839,2064
1631632614843,2064
1631632614847,2063
1631632614851,2063
1631632614855,2064
1631632614859,2065
1631632614863,2064
1631632614867,2061
1631632614871,2056
1631632614875,2052
1631632614879,2049
1631632614883,2050
1631632614887,2051
1631632614891,2052
1631632614895,2052
1631632614899,2050
1631632614903,2049
1631632614907,2048
1631632614911,2048
1631632614915,2049
1631632614919,2050
1631632614923,2049
1631632614927,2048
1631632614931,2047
1631632614935,2046
1631632614939,2045
1631632614943,2046
1631632614947,2047
1631632614951,2048
1631632614955,2048
1631632614959,2048
1631632614963,2047
1631632614967,2046
1631632614971,2045
1631632614975,2044
1631632614979,2042
1631632614983,2039
1631632614987,2037
1631632614991,2037
1631632614995,2038
1631632614999,2041
1631632615003,2043
1631632615007,2045
1631632615011,2045
1631632615015,2043
1631632615019,2041
1631632615023,2040
1631632615027,2039
1631632615031,2039
1631632615035,2039
1631632615039,2040
1631632615043,2040
1631632615047,2040
1631632615051,2039
1631632615055,2038
1631632615059,2036
1631632615063,2033
1631632615067,2030
1631632615071,2030
1631632615075,2031
1631632615079,2034
1631632615083,2036
1631632615087,2036
1631632615091,2034
1631632615095,2031
1631632615099,2029
1631632615103,2027
1631632615107,2028
1631632615111,2029
1631632615115,2031
1631632615119,2032
1631632615123,2032
1631632615127,2032
1631632615131,2032
1631632615135,2032
1631632615139,2031
1631632615143,2031
1631632615147,2031
1631632615151,2032
1631632615155,2034
1631632615159,2036
1631632615163,2038
1631632615167,2039
1631632615171,2039
1631632615175,2039
1631632615179,2037
1631632615183,2036
1631632615187,2035
1631632615191,2033
1631632615195,2032
1631632615199,2032
1631632615203,2031
1631632615207,2031
1631632615211,2031
1631632615215,2032
1631632615219,2031
1631632615223,2030
1631632615227,2029
1631632615231,2027
1631632615235,2026
1631632615239,2025
1631632615243,2026
1631632615247,2027
1631632615251,2029
1631632615255,2030
1631632615259,2030
1631632615263,2029
1631632615267,2027
1631632615271,2025
1631632615275,2024
1631632615279,2022
1631632615283,2019
1631632615287,2021
1631632615291,2031
1631632615295,2048
1631632615299,2067
1631632615303,2081
1631632615307,2082
1631632615311,2068
1631632615315,2047
1631632615319,2025
1631632615323,2011
1631632615327,2007
1631632615331,2011
1631632615335,2018
1631632615339,2024
1631632615343,2028
1631632615347,2031
1631632615351,2031
1631632615355,2030
1631632615359,2029
1631632615363,2029
1631632615367,2029
1631632615371,2029
1631632615375,2029
1631632615379,2029
1631632615383,2030
1631632615387,2031
1631632615391,2032
1631632615395,2032
1631632615399,2032
1631632615403,2033
1631632615407,2034
1631632615411,2034
1631632615415,2034
1631632615419,2033
1631632615423,2032
1631632615427,2032
1631632615431,2033
1631632615435,2035
1631632615439,2038
1631632615443,2040
1631632615447,2042
1631632615451,2042
1631632615455,2042
1631632615459,2042
1631632615463,2041
1631632615467,2040
1631632615471,2039
1631632615475,2038
1631632615479,2038
1631632615483,2039
1631632615487,2040
1631632615491,2042
1631632615495,2044
1631632615499,2047
1631632615503,2048
1631632615507,2049
1631632615511,2049
1631632615515,2049
1631632615519,2048
1631632615523,2048
1631632615527,2049
1631632615531,2049
1631632615535,2048
1631632615539,2046
1631632615543,2044
1631632615547,2045
1631632615551,2047
1631632615555,2049
1631632615559,2051
1631632615563,2051
1631632615567,2050
1631632615571,2048
1631632615575,2045
1631632615579,2043
1631632615583,2042
1631632615587,2042
1631632615591,2042
1631632615595,2041
1631632615599,2041
1631632615603,2041
1631632615607,2040
1631632615611,2039
1631632615615,2039
1631632615619,2039
1631632615623,2039
1631632615627,2039
1631632615631,2039
1631632615635,2040
1631632615639,2041
1631632615643,2041
1631632615647,2042
1631632615651,2041
1631632615655,2042
1631632615659,2043
1631632615663,2044
1631632615667,2044
1631632615671,2044
1631632615675,2044
1631632615679,2044
1631632615683,2045
1631632615687,2046
1631632615691,2047
1631632615695,2048
1631632615699,2047
1631632615703,2046
1631632615707,2045
1631632615711,2044
1631632615715,2044
1631632615719,2045
1631632615723,2046
1631632615727,2047
1631632615731,2047
1631632615735,2047
1631632615739,2047
1631632615743,2046
1631632615747,2046
1631632615751,2045
1631632615755,2046
1631632615759,2046
1631632615763,2047
1631632615767,2048
1631632615771,2048
1631632615775,2047
1631632615779,2045
1631632615783,2044
1631632615787,2044
1631632615791,2045
1631632615795,2047
1631632615799,2048
1631632615803,2048
1631632615807,2048
1631632615811,2048
1631632615815,2048
1631632615819,2049
1631632615823,2050
1631632615827,2051
1631632615831,2051
1631632615835,2051
1631632615839,2051
1631632615843,2051
1631632615847,2052
1631632615851,2053
1631632615855,2054
1631632615859,2055
1631632615863,2055
1631632615867,2054
1631632615871,2053
1631632615875,2052
1631632615879,2052
1631632615883,2053
1631632615887,2055
1631632615891,2056
1631632615895,2056
1631632615899,2054
1631632615903,2051
1631632615907,2049
1631632615911,2048
1631632615915,2048
1631632615919,2048
1631632615923,2049
1631632615927,2049
1631632615931,2048
1631632615935,2048
1631632615939,2048
1631632615943,2048
1631632615947,2047
1631632615951,2046
1631632615955,2045
1631632615959,2045
1631632615963,2046
1631632615967,2047
1631632615971,2047
1631632615975,2046
1631632615979,2048
1631632615983,2055
1631632615987,2070
1631632615991,2088
1631632615995,2100
1631632615999,2099
1631632616003,2084
1631632616007,2063
1631632616011,2043
1631632616015,2030
1631632616019,2026
1631632616023,2028
1631632616027,2033
1631632616031,2035
1631632616035,2038
1631632616039,2041
1631632616043,2043
1631632616047,2045
1631632616051,2044
1631632616055,2042
1631632616059,2039
1631632616063,2037
1631632616067,2036
1631632616071,2037
1631632616075,2039
1631632616079,2040
1631632616083,2040
1631632616087,2039
1631632616091,2038
1631632616095,2037
1631632616099,2037
1631632616103,2036
1631632616107,2036
1631632616111,2034
1631632616115,2032
1631632616119,2030
1631632616123,2028
1631632616127,2027
1631632616131,2025
1631632616135,2024
1631632616139,2023
1631632616143,2023
1631632616147,2022
1631632616151,2021
1631632616155,2020
1631632616159,2020
1631632616163,2019
1631632616167,2017
1631632616171,2013
1631632616175,2008
1631632616179,2003
1631632616183,2001
1631632616187,2001
1631632616191,2002
1631632616195,2002
1631632616199,1999
1631632616203,1994
1631632616207,1988
1631632616211,1982
1631632616215,1979
1631632616219,1979
1631632616223,1979
1631632616227,1980
1631632616231,1978
1631632616235,1974
1631632616239,1968
1631632616243,1961
1631632616247,1956
1631632616251,1950
1631632616255,1945
1631632616259,1939
1631632616263,1932
1631632616267,1924
1631632616271,1915
1631632616275,1909
1631632616279,1903
1631632616283,1898
1631632616287,1894
1631632616291,1889
1631632616295,1884
1631632616299,1877
1631632616303,1871
1631632616307,1865
1631632616311,1859
1631632616315,1855
1631632616319,1851
1631632616323,1847
1631632616327,1841
1631632616331,1834
1631632616335,1829
1631632616339,1823
1631632616343,1820
1631632616347,1819
1631632616351,1819
1631632616355,1817
1631632616359,1815
1631632616363,1811
1631632616367,1807
1631632616371,1804
1631632616375,1803
1631632616379,1803
1631632616383,1801
1631632616387,1798
1631632616391,1793
1631632616395,1787
1631632616399,1783
1631632616403,1780
1631632616407,1779
1631632616411,1779
1631632616415,1778
1631632616419,1777
1631632616423,1774
1631632616427,1772
1631632616431,1769
1631632616435,1767
1631632616439,1765
1631632616443,1765
1631632616447,1766
1631632616451,1766
1631632616455,1767
1631632616459,1767
1631632616463,1766
1631632616467,1765
1631632616471,1764
1631632616475,1764
1631632616479,1766
1631632616483,1769
1631632616487,1772
1631632616491,1773
1631632616495,1773
1631632616499,1772
1631632616503,1772
1631632616507,1773
1631632616511,1776
1631632616515,1781
1631632616519,1785
1631632616523,1788
1631632616527,1789
1631632616531,1789
1631632616535,1789
1631632616539,1792
1631632616543,1797
1631632616547,1803
1631632616551,1809
1631632616555,1812
1631632616559,1815
1631632616563,1816
1631632616567,1818
1631632616571,1820
1631632616575,1823
1631632616579,1824
1631632616583,1825
1631632616587,1826
1631632616591,1828
1631632616595,1831
1631632616599,1834
1631632616603,1836
1631632616607,1838
1631632616611,1839
1631632616615,1839
1631632616619,1838
1631632616623,1839
1631632616627,1842
1631632616631,1845
1631632616635,1848
1631632616639,1850
1631632616643,1852
1631632616647,1855
1631632616651,1858
1631632616655,1862
1631632616659,1866
1631632616663,1869
1631632616667,1870
1631632616671,1872
1631632616675,1879
1631632616679,1893
1631632616683,1913
1631632616687,1933
1631632616691,1945
1631632616695,1942
1631632616699,1926
1631632616703,1906
1631632616707,1889
1631632616711,1881
1631632616715,1884
1631632616719,1891
1631632616723,1898
1631632616727,1903
1631632616731,1907
1631632616735,1910
1631632616739,1913
1631632616743,1916
1631632616747,1918
1631632616751,1920
1631632616755,1922
1631632616759,1924
1631632616763,1925
1631632616767,1927
1631632616771,1928
1631632616775,1929
1631632616779,1930
1631632616783,1932
1631632616787,1934
1631632616791,1936
1631632616795,1938
1631632616799,1940
1631632616803,1942
1631632616807,1944
1631632616811,1945
1631632616815,1947
1631632616819,1948
1631632616823,1950
1631632616827,1954
1631632616831,1959
1631632616835,1963
1631632616839,1967
1631632616843,1969
1631632616847,1972
1631632616851,1974
1631632616855,1978
1631632616859,1983
1631632616863,1988
1631632616867,1992
1631632616871,1996
1631632616875,2000
1631632616879,2003
1631632616883,2006
1631632616887,2009
1631632616891,2011
1631632616895,2013
1631632616899,2014
1631632616903,2016
1631632616907,2018
1631632616911,2020
1631632616915,2023
1631632616919,2026
1631632616923,2028
1631632616927,2030
1631632616931,2031
1631632616935,2031
1631632616939,2031
1631632616943,2031
1631632616947,2032
1631632616951,2033
1631632616955,2034
1631632616959,2034
1631632616963,2034
1631632616967,2034
1631632616971,2035
1631632616975,2036
1631632616979,2037
1631632616983,2036
1631632616987,2035
1631632616991,2034
1631632616995,2033
1631632616999,2033
1631632617003,2034
1631632617007,2035
1631632617011,2035
1631632617015,2036
1631632617019,2036
1631632617023,2037
1631632617027,2037
1631632617031,2038
1631632617035,2039
1631632617039,2040
1631632617043,2041
1631632617047,2043
1631632617051,2043
1631632617055,2044
1631632617059,2044
1631632617063,2045
1631632617067,2046
1631632617071,2048
1631632617075,2048
1631632617079,2049
1631632617083,2051
1631632617087,2052
1631632617091,2053
1631632617095,2055
1631632617099,2057
1631632617103,2058
1631632617107,2059
1631632617111,2061
1631632617115,2063
1631632617119,2064
1631632617123,2065
1631632617127,2066
1631632617131,2067
1631632617135,2069
1631632617139,2072
1631632617143,2076
1631632617147,2080
1631632617151,2083
1631632617155,2085
1631632617159,2086
1631632617163,2086
1631632617167,2085
1631632617171,2084
1631632617175,2084
1631632617179,2085
1631632617183,2086
1631632617187,2088
1631632617191,2089
1631632617195,2090
1631632617199,2092
1631632617203,2094
1631632617207,2096
1631632617211,2098
1631632617215,2099
1631632617219,2100
1631632617223,2100
1631632617227,2100
1631632617231,2101
1631632617235,2102
1631632617239,2103
1631632617243,2104
1631632617247,2105
1631632617251,2105
1631632617255,2106
1631632617259,2107
1631632617263,2108
1631632617267,2109
1631632617271,2111
1631632617275,2111
1631632617279,2111
1631632617283,2110
1631632617287,2109
1631632617291,2109
1631632617295,2108
1631632617299,2107
1631632617303,2106
1631632617307,2105
1631632617311,2104
1631632617315,2103
1631632617319,2101
1631632617323,2101
1631632617327,2101
1631632617331,2101
1631632617335,2101
1631632617339,2100
1631632617343,2100
1631632617347,2100
1631632617351,2100
1631632617355,2100
1631632617359,2100
1631632617363,2100
1631632617367,2099
1631632617371,2096
1631632617375,2094
1631632617379,2098
1631632617383,2110
1631632617387,2127
1631632617391,2143
1631632617395,2151
1631632617399,2146
1631632617403,2129
1631632617407,2107
1631632617411,2089
1631632617415,2080
1631632617419,2080
1631632617423,2087
1631632617427,2093
1631632617431,2097
1631632617435,2100
1631632617439,2102
1631632617443,2102
1631632617447,2102
1631632617451,2102
1631632617455,2103
1631632617459,2103
1631632617463,2103
1631632617467,2104
1631632617471,2105
1631632617475,2107
1631632617479,2109
1631632617483,2112
1631632617487,2114
1631632617491,2115
1631632617495,2115
1631632617499,2115
1631632617503,2115
1631632617507,2115
1631632617511,2115
1631632617515,2116
1631632617519,2117
1631632617523,2118
1631632617527,2119
1631632617531,2120
1631632617535,2121
1631632617539,2121
1631632617543,2122
1631632617547,2123
1631632617551,2123
1631632617555,2124
1631632617559,2125
1631632617563,2126
1631632617567,2128
1631632617571,2129
1631632617575,2130
1631632617579,2131
1631632617583,2132
1631632617587,2134
1631632617591,2134
1631632617595,2135
1631632617599,2136
1631632617603,2137
1631632617607,2138
1631632617611,2138
1631632617615,2140
1631632617619,2141
1631632617623,2143
1631632617627,2144
1631632617631,2143
1631632617635,2143
1631632617639,2142
1631632617643,2141
1631632617647,2142
1631632617651,2143
1631632617655,2143
1631632617659,2141
1631632617663,2139
1631632617667,2136
1631632617671,2134
1631632617675,2134
1631632617679,2134
1631632617683,2135
1631632617687,2135
1631632617691,2135
1631632617695,2134
1631632617699,2132
1631632617703,2130
1631632617707,2129
1631632617711,2128
1631632617715,2128
1631632617719,2129
1631632617723,2130
1631632617727,2130
1631632617731,2130
1631632617735,2129
1631632617739,2128
1631632617743,2127
1631632617747,2125
1631632617751,2124
1631632617755,2123
1631632617759,2123
1631632617763,2125
1631632617767,2126
1631632617771,2127
1631632617775,2126
1631632617779,2125
1631632617783,2124
1631632617787,2124
1631632617791,2125
1631632617795,2125
1631632617799,2125
1631632617803,2123
1631632617807,2122
1631632617811,2121
1631632617815,2122
1631632617819,2122
1631632617823,2122
1631632617827,2121
1631632617831,2119
1631632617835,2118
1631632617839,2117
1631632617843,2117
1631632617847,2118
1631632617851,2119
1631632617855,2119
1631632617859,2118
1631632617863,2117
1631632617867,2116
1631632617871,2116
1631632617875,2116
1631632617879,2116
1631632617883,2116
1631632617887,2115
1631632617891,2114
1631632617895,2113
1631632617899,2112
1631632617903,2112
1631632617907,2112
1631632617911,2112
1631632617915,2112
1631632617919,2111
1631632617923,2111
1631632617927,2110
1631632617931,2110
1631632617935,2110
1631632617939,2109
1631632617943,2110
1631632617947,2111
1631632617951,2113
1631632617955,2114
1631632617959,2115
1631632617963,2115
1631632617967,2114
1631632617971,2113
1631632617975,2112
1631632617979,2111
1631632617983,2111
1631632617987,2110
1631632617991,2109
1631632617995,2108
1631632617999,2107
1631632618003,2104
1631632618007,2103
1631632618011,2101
1631632618015,2101
1631632618019,2100
1631632618023,2101
1631632618027,2101
1631632618031,2101
1631632618035,2101
1631632618039,2101
1631632618043,2100
1631632618047,2100
1631632618051,2100
1631632618055,2099
1631632618059,2098
1631632618063,2096
1631632618067,2093
1631632618071,2092
1631632618075,2097
1631632618079,2111
1631632618083,2130
1631632618087,2148
1631632618091,2156
1631632618095,2150
1631632618099,2130
1631632618103,2105
1631632618107,2085
1631632618111,2074
1631632618115,2074
1631632618119,2081
1631632618123,2088
1631632618127,2094
1631632618131,2098
1631632618135,2099
1631632618139,2099
1631632618143,2097
1631632618147,2096
1631632618151,2096
1631632618155,2098
1631632618159,2100
1631632618163,2101
1631632618167,2101
1631632618171,2100
1631632618175,2099
1631632618179,2098
1631632618183,2097
1631632618187,2097
1631632618191,2097
1631632618195,2098
1631632618199,2099
1631632618203,2100
1631632618207,2100
1631632618211,2099
1631632618215,2098
1631632618219,2096
1631632618223,2095
1631632618227,2094
1631632618231,2094
1631632618235,2094
1631632618239,2095
1631632618243,2097
1631632618247,2098
1631632618251,2098
1631632618255,2098
1631632618259,2097
1631632618263,2097
1631632618267,2097
1631632618271,2098
1631632618275,2100
1631632618279,2101
1631632618283,2102
1631632618287,2102
1631632618291,2102
1631632618295,2102
1631632618299,2101
1631632618303,2101
1631632618307,2100
1631632618311,2099
1631632618315,2100
1631632618319,2100
1631632618323,2100
1631632618327,2100
1631632618331,2099
1631632618335,2097
1631632618339,2094
1631632618343,2093
1631632618347,2092
1631632618351,2093
1631632618355,2093
1631632618359,2093
1631632618363,2091
1631632618367,2088
1631632618371,2085
1631632618375,2084
1631632618379,2084
1631632618383,2085
1631632618387,2086
1631632618391,2086
1631632618395,2085
1631632618399,2084
1631632618403,2083
1631632618407,2082
1631632618411,2081
1631632618415,2080
1631632618419,2079
1631632618423,2079
1631632618427,2079
1631632618431,2079
1631632618435,2080
1631632618439,2080
1631632618443,2080
1631632618447,2080
1631632618451,2080
1631632618455,2080
1631632618459,2079
1631632618463,2078
1631632618467,2077
1631632618471,2076
1631632618475,2077
1631632618479,2078
1631632618483,2080
1631632618487,2081
1631632618491,2082
1631632618495,2082
1631632618499,2081
1631632618503,2080
1631632618507,2078
1631632618511,2077
1631632618515,2076
1631632618519,2075
1631632618523,2076
1631632618527,2076
1631632618531,2076
1631632618535,2076
1631632618539,2075
1631632618543,2075
1631632618547,2075
1631632618551,2076
1631632618555,2076
1631632618559,2076
1631632618563,2075
1631632618567,2073
1631632618571,2072
1631632618575,2071
1631632618579,2072
1631632618583,2072
1631632618587,2072
1631632618591,2071
1631632618595,2069
1631632618599,2068
1631632618603,2067
1631632618607,2068
1631632618611,2070
1631632618615,2071
1631632618619,2072
1631632618623,2071
1631632618627,2071
1631632618631,2071
1631632618635,2072
1631632618639,2073
1631632618643,2073
1631632618647,2074
1631632618651,2073
1631632618655,2072
1631632618659,2071
1631632618663,2071
1631632618667,2070
1631632618671,2069
1631632618675,2069
1631632618679,2068
1631632618683,2067
1631632618687,2065
1631632618691,2063
1631632618695,2061
1631632618699,2059
1631632618703,2057
1631632618707,2057
1631632618711,2058
1631632618715,2059
1631632618719,2060
1631632618723,2060
1631632618727,2059
1631632618731,2057
1631632618735,2056
1631632618739,2055
1631632618743,2054
1631632618747,2053
1631632618751,2051
1631632618755,2049
1631632618759,2048
1631632618763,2049
1631632618767,2057
1631632618771,2073
1631632618775,2092
1631632618779,2106
1631632618783,2107
1631632618787,2093
1631632618791,2069
1631632618795,2046
1631632618799,2031
1631632618803,2026
1631632618807,2030
1631632618811,2037
1631632618815,2043
1631632618819,2046
1631632618823,2048
1631632618827,2048
1631632618831,2048
1631632618835,2048
1631632618839,2048
1631632618843,2048
1631632618847,2048
1631632618851,2048
1631632618855,2047
1631632618859,2046
1631632618863,2045
1631632618867,2044
1631632618871,2045
1631632618875,2046
1631632618879,2047
1631632618883,2047
1631632618887,2046
1631632618891,2045
1631632618895,2043
1631632618899,2042
1631632618903,2041
1631632618907,2041
1631632618911,2042
1631632618915,2043
1631632618919,2044
1631632618923,2044
1631632618927,2043
1631632618931,2042
1631632618935,2041
1631632618939,2040
1631632618943,2040
1631632618947,2041
1631632618951,2042
1631632618955,2043
1631632618959,2044
1631632618963,2045
1631632618967,2046
1631632618971,2045
1631632618975,2045
1631632618979,2045
1631632618983,2045
1631632618987,2045
1631632618991,2046
1631632618995,2048
1631632618999,2048
1631632619003,2048
1631632619007,2048
1631632619011,2046
1631632619015,2044
1631632619019,2044
1631632619023,2043
1631632619027,2044
1631632619031,2043
1631632619035,2042
1631632619039,2040
1631632619043,2038
1631632619047,2038
1631632619051,2037
1631632619055,2038
1631632619059,2037
1631632619063,2035
1631632619067,2034
1631632619071,2032
1631632619075,2031
1631632619079,2031
1631632619083,2031
1631632619087,2030
1631632619091,2029
1631632619095,2028
1631632619099,2027
1631632619103,2027
1631632619107,2026
1631632619111,2026
1631632619115,2025
1631632619119,2024
1631632619123,2023
1631632619127,2023
1631632619131,2023
1631632619135,2023
1631632619139,2023
1631632619143,2023
1631632619147,2023
1631632619151,2023
1631632619155,2023
1631632619159,2022
1631632619163,2022
1631632619167,2022
1631632619171,2022
1631632619175,2022
1631632619179,2023
1631632619183,2022
1631632619187,2022
1631632619191,2022
1631632619195,2022
1631632619199,2022
1631632619203,2022
1631632619207,2022
1631632619211,2021
1631632619215,2021
1631632619219,2021
1631632619223,2023
1631632619227,2023
1631632619231,2023
1631632619235,2022
1631632619239,2020
1631632619243,2018
1631632619247,2018
1631632619251,2018
1631632619255,2018
1631632619259,2018
1631632619263,2017
1631632619267,2017
1631632619271,2016
1631632619275,2017
1631632619279,2017
1631632619283,2018
1631632619287,2019
1631632619291,2018
1631632619295,2017
1631632619299,2015
1631632619303,2014
1631632619307,2014
1631632619311,2014
1631632619315,2016
1631632619319,2017
1631632619323,2018
1631632619327,2017
1631632619331,2015
1631632619335,2015
1631632619339,2015
1631632619343,2017
1631632619347,2020
1631632619351,2022
1631632619355,2022
1631632619359,2022
1631632619363,2020
1631632619367,2019
1631632619371,2020
1631632619375,2020
1631632619379,2021
1631632619383,2020
1631632619387,2019
1631632619391,2018
1631632619395,2017
1631632619399,2016
1631632619403,2015
1631632619407,2013
1631632619411,2012
1631632619415,2011
1631632619419,2012
1631632619423,2013
1631632619427,2014
1631632619431,2014
1631632619435,2012
1631632619439,2011
1631632619443,2010
1631632619447,2011
1631632619451,2013
1631632619455,2015
1631632619459,2016
1631632619463,2015
1631632619467,2012
1631632619471,2008
1631632619475,2011
1631632619479,2022
1631632619483,2040
1631632619487,2059
1631632619491,2068
1631632619495,2063
1631632619499,2045
1631632619503,2019
1631632619507,1999
1631632619511,1988
1631632619515,1990
1631632619519,1997
1631632619523,2006
1631632619527,2012
1631632619531,2016
1631632619535,2018
1631632619539,2018
1631632619543,2018
1631632619547,2018
1631632619551,2018
1631632619555,2018
1631632619559,2019
1631632619563,2019
1631632619567,2019
1631632619571,2019
1631632619575,2020
1631632619579,2020
1631632619583,2020
1631632619587,2021
1631632619591,2021
1631632619595,2022
1631632619599,2024
1631632619603,2025
1631632619607,2025
1631632619611,2026
1631632619615,2026
1631632619619,2027
1631632619623,2027
1631632619627,2028
1631632619631,2028
1631632619635,2029
1631632619639,2030
1631632619643,2031
1631632619647,2033
1631632619651,2034
1631632619655,2035
1631632619659,2036
1631632619663,2036
1631632619667,2036
1631632619671,2036
1631632619675,2038
1631632619679,2039
1631632619683,2041
1631632619687,2043
1631632619691,2045
1631632619695,2046
1631632619699,2047
1631632619703,2048
1631632619707,2048
1631632619711,2050
1631632619715,2052
1631632619719,2054
1631632619723,2054
1631632619727,2054
1631632619731,2053
1631632619735,2052
1631632619739,2052
1631632619743,2052
1631632619747,2054
1631632619751,2054
1631632619755,2055
1631632619759,2054
1631632619763,2054
1631632619767,2054
1631632619771,2054
1631632619775,2053
1631632619779,2053
1631632619783,2053
1631632619787,2052
1631632619791,2052
1631632619795,2053
1631632619799,2052
1631632619803,2052
1631632619807,2052
1631632619811,2052
1631632619815,2053
1631632619819,2054
1631632619823,2055
1631632619827,2056
1631632619831,2056
1631632619835,2057
1631632619839,2057
1631632619843,2058
1631632619847,2059
1631632619851,2059
1631632619855,2060
1631632619859,2061
1631632619863,2061
1631632619867,2062
1631632619871,2062
1631632619875,2062
1631632619879,2062
1631632619883,2062
1631632619887,2062
1631632619891,2062
1631632619895,2062
1631632619899,2063
1631632619903,2063
1631632619907,2063
1631632619911,2063
1631632619915,2063
1631632619919,2062
1631632619923,2061
1631632619927,2060
1631632619931,2061
1631632619935,2062
1631632619939,2064
1631632619943,2064
1631632619947,2064
1631632619951,2062
1631632619955,2061
1631632619959,2060
1631632619963,2061
1631632619967,2062
1631632619971,2062
1631632619975,2063
1631632619979,2062
1631632619983,2062
1631632619987,2062
1631632619991,2062
1631632619995,2062
1631632619999,2063
1631632620003,2063
1631632620007,2063
1631632620011,2062
1631632620015,2061
1631632620019,2059
1631632620023,2059
1631632620027,2060
1631632620031,2062
1631632620035,2065
1631632620039,2068
1631632620043,2069
1631632620047,2068
1631632620051,2068
1631632620055,2068
1631632620059,2068
1631632620063,2070
1631632620067,2072
1631632620071,2073
1631632620075,2074
1631632620079,2074
1631632620083,2074
1631632620087,2073
1631632620091,2072
1631632620095,2071
1631632620099,2070
1631632620103,2069
1631632620107,2067
1631632620111,2066
1631632620115,2065
1631632620119,2065
1631632620123,2065
1631632620127,2066
1631632620131,2066
1631632620135,2066
1631632620139,2066
1631632620143,2066
1631632620147,2066
1631632620151,2066
1631632620155,2066
1631632620159,2067
1631632620163,2067
1631632620167,2067
1631632620171,2066
1631632620175,2065
1631632620179,2062
1631632620183,2061
1631632620187,2068
1631632620191,2081
1631632620195,2100
1631632620199,2116
1631632620203,2121
1631632620207,2113
1631632620211,2093
1631632620215,2071
1631632620219,2053
1631632620223,2046
1631632620227,2048
1631632620231,2053
1631632620235,2061
1631632620239,2066
1631632620243,2070
1631632620247,2072
1631632620251,2073
1631632620255,2074
1631632620259,2074
1631632620263,2075
1631632620267,2075
1631632620271,2074
1631632620275,2074
1631632620279,2074
1631632620283,2073
1631632620287,2072
1631632620291,2071
1631632620295,2070
1631632620299,2070
1631632620303,2072
1631632620307,2075
1631632620311,2078
1631632620315,2080
1631632620319,2082
1631632620323,2084
1631632620327,2085
1631632620331,2086
1631632620335,2085
1631632620339,2083
1631632620343,2081
1631632620347,2079
1631632620351,2078
1631632620355,2079
1631632620359,2080
1631632620363,2081
1631632620367,2080
1631632620371,2077
1631632620375,2075
1631632620379,2073
1631632620383,2073
1631632620387,2073
1631632620391,2074
1631632620395,2075
1631632620399,2077
1631632620403,2078
1631632620407,2078
1631632620411,2077
1631632620415,2076
1631632620419,2076
1631632620423,2076
1631632620427,2076
1631632620431,2077
1631632620435,2077
1631632620439,2076
1631632620443,2075
1631632620447,2074
1631632620451,2072
1631632620455,2071
1631632620459,2070
1631632620463,2069
1631632620467,2069
1631632620471,2069
1631632620475,2070
1631632620479,2070
1631632620483,2070
1631632620487,2070
1631632620491,2070
1631632620495,2069
1631632620499,2067
1631632620503,2066
1631632620507,2065
1631632620511,2065
1631632620515,2066
1631632620519,2067
1631632620523,2068
1631632620527,2067
1631632620531,2064
1631632620535,2062
1631632620539,2061
1631632620543,2061
1631632620547,2063
1631632620551,2066
1631632620555,2068
1631632620559,2069
1631632620563,2070
1631632620567,2071
1631632620571,2071
1631632620575,2070
1631632620579,2069
1631632620583,2069
1631632620587,2069
1631632620591,2069
1631632620595,2070
1631632620599,2069
1631632620603,2069
1631632620607,2067
1631632620611,2066
1631632620615,2067
1631632620619,2068
1631632620623,2068
1631632620627,2068
1631632620631,2065
1631632620635,2063
1631632620639,2062
1631632620643,2064
1631632620647,2068
1631632620651,2071
1631632620655,2071
1631632620659,2069
1631632620663,2065
1631632620667,2063
1631632620671,2063
1631632620675,2065
1631632620679,2068
1631632620683,2068
1631632620687,2067
1631632620691,2064
1631632620695,2062
1631632620699,2062
1631632620703,2064
1631632620707,2066
1631632620711,2069
1631632620715,2069
1631632620719,2068
1631632620723,2065
1631632620727,2063
1631632620731,2063
1631632620735,2064
1631632620739,2068
1631632620743,2071
1631632620747,2074
1631632620751,2076
1631632620755,2076
1631632620759,2074
1631632620763,2071
1631632620767,2069
1631632620771,2068
1631632620775,2069
1631632620779,2070
1631632620783,2070
1631632620787,2068
1631632620791,2065
1631632620795,2062
1631632620799,2060
1631632620803,2059
1631632620807,2060
1631632620811,2061
1631632620815,2062
1631632620819,2061
1631632620823,2060
1631632620827,2059
1631632620831,2058
1631632620835,2057
1631632620839,2058
1631632620843,2059
1631632620847,2061
1631632620851,2061
1631632620855,2060
1631632620859,2055
1631632620863,2052
1631632620867,2056
1631632620871,2068
1631632620875,2087
1631632620879,2104
1631632620883,2112
1631632620887,2106
1631632620891,2086
1631632620895,2062
1631632620899,2043
1631632620903,2033
1631632620907,2034
1631632620911,2040
1631632620915,2048
1631632620919,2052
1631632620923,2055
1631632620927,2056
1631632620931,2056
1631632620935,2056
1631632620939,2055
1631632620943,2054
1631632620947,2052
1631632620951,2052
1631632620955,2052
1631632620959,2054
1631632620963,2056
1631632620967,2057
1631632620971,2057
1631632620975,2056
1631632620979,2055
1631632620983,2053
1631632620987,2053
1631632620991,2054
1631632620995,2055
1631632620999,2057
1631632621003,2058
1631632621007,2058
1631632621011,2056
1631632621015,2055
1631632621019,2054
1631632621023,2053
1631632621027,2054
1631632621031,2055
1631632621035,2056
1631632621039,2057
1631632621043,2057
1631632621047,2057
1631632621051,2058
1631632621055,2058
1631632621059,2058
1631632621063,2059
1631632621067,2058
1631632621071,2058
1631632621075,2058
1631632621079,2058
1631632621083,2058
1631632621087,2058
1631632621091,2059
1631632621095,2060
1631632621099,2061
1631632621103,2060
1631632621107,2058
1631632621111,2056
1631632621115,2054
1631632621119,2054
1631632621123,2054
1631632621127,2055
1631632621131,2055
1631632621135,2055
1631632621139,2054
1631632621143,2052
1631632621147,2050
1631632621151,2049
1631632621155,2049
1631632621159,2049
1631632621163,2049
1631632621167,2049
1631632621171,2049
1631632621175,2048
1631632621179,2047
1631632621183,2045
1631632621187,2044
1631632621191,2043
1631632621195,2043
1631632621199,2043
1631632621203,2043
1631632621207,2043
1631632621211,2043
1631632621215,2042
1631632621219,2041
1631632621223,2041
1631632621227,2041
1631632621231,2041
1631632621235,2041
1631632621239,2041
1631632621243,2040
1631632621247,2041
1631632621251,2041
1631632621255,2043
1631632621259,2044
1631632621263,2045
1631632621267,2045
1631632621271,2044
1631632621275,2043
1631632621279,2043
1631632621283,2043
1631632621287,2042
1631632621291,2042
1631632621295,2041
1631632621299,2040
1631632621303,2039
1631632621307,2038
1631632621311,2038
1631632621315,2038
1631632621319,2038
1631632621323,2038
1631632621327,2039
1631632621331,2039
1631632621335,2040
1631632621339,2039
1631632621343,2038
1631632621347,2038
1631632621351,2037
1631632621355,2037
1631632621359,2037
1631632621363,2037
1631632621367,2037
1631632621371,2038
1631632621375,2038
1631632621379,2038
1631632621383,2038
1631632621387,2037
1631632621391,2037
1631632621395,2038
1631632621399,2040
1631632621403,2042
1631632621407,2044
1631632621411,2045
1631632621415,2044
1631632621419,2044
1631632621423,2042
1631632621427,2041
1631632621431,2040
1631632621435,2039
1631632621439,2039
1631632621443,2038
1631632621447,2037
1631632621451,2036
1631632621455,2035
1631632621459,2033
1631632621463,2032
1631632621467,2032
1631632621471,2031
1631632621475,2032
1631632621479,2031
1631632621483,2031
1631632621487,2030
1631632621491,2029
1631632621495,2029
1631632621499,2029
1631632621503,2029
1631632621507,2028
1631632621511,2027
1631632621515,2025
1631632621519,2023
1631632621523,2022
1631632621527,2027
1631632621531,2039
1631632621535,2056
1631632621539,2074
1631632621543,2082
1631632621547,2076
1631632621551,2056
1631632621555,2031
1631632621559,2010
1631632621563,2000
1631632621567,2001
1631632621571,2008
1631632621575,2017
1631632621579,2022
1631632621583,2024
1631632621587,2026
1631632621591,2026
1631632621595,2026
1631632621599,2026
1631632621603,2024
1631632621607,2023
1631632621611,2022
1631632621615,2023
1631632621619,2023
1631632621623,2024
1631632621627,2024
1631632621631,2024
1631632621635,2023
1631632621639,2023
1631632621643,2023
1631632621647,2023
1631632621651,2022
1631632621655,2021
1631632621659,2020
1631632621663,2019
1631632621667,2019
1631632621671,2019
1631632621675,2020
1631632621679,2021
1631632621683,2021
1631632621687,2020
1631632621691,2018
1631632621695,2018
1631632621699,2018
1631632621703,2019
1631632621707,2020
1631632621711,2020
1631632621715,2021
1631632621719,2021
1631632621723,2021
1631632621727,2021
1631632621731,2020
1631632621735,2020
1631632621739,2020
1631632621743,2020
1631632621747,2021
1631632621751,2022
1631632621755,2023
1631632621759,2024
1631632621763,2024
1631632621767,2024
1631632621771,2023
1631632621775,2022
1631632621779,2021
1631632621783,2020
1631632621787,2020
1631632621791,2019
1631632621795,2019
1631632621799,2018
1631632621803,2017
1631632621807,2016
1631632621811,2014
1631632621815,2013
1631632621819,2011
1631632621823,2009
1631632621827,2007
1631632621831,2006
1631632621835,2006
1631632621839,2006
1631632621843,2007
1631632621847,2007
1631632621851,2006
1631632621855,2004
1631632621859,2002
1631632621863,2001
1631632621867,2000
1631632621871,1999
1631632621875,2000
1631632621879,2000
1631632621883,2001
1631632621887,2002
1631632621891,2003
1631632621895,2002
1631632621899,2002
1631632621903,2001
1631632621907,2000
1631632621911,2000
1631632621915,2001
1631632621919,2002
1631632621923,2003
1631632621927,2003
1631632621931,2003
1631632621935,2003
1631632621939,2002
1631632621943,2002
1631632621947,2002
1631632621951,2002
1631632621955,2002
1631632621959,2002
1631632621963,2002
1631632621967,2002
1631632621971,2002
1631632621975,2002
1631632621979,2002
1631632621983,2002
1631632621987,2002
1631632621991,2002
1631632621995,2003
1631632621999,2003
1631632622003,2003
1631632622007,2002
1631632622011,2002
1631632622015,2002
1631632622019,2003
1631632622023,2004
1631632622027,2005
1631632622031,2005
1631632622035,2006
1631632622039,2006
1631632622043,2006
1631632622047,2006
1631632622051,2006
1631632622055,2006
1631632622059,2008
1631632622063,2010
1631632622067,2012
1631632622071,2015
1631632622075,2016
1631632622079,2016
1631632622083,2015
1631632622087,2014
1631632622091,2012
1631632622095,2011
1631632622099,2010
1631632622103,2011
1631632622107,2011
1631632622111,2011
1631632622115,2011
1631632622119,2011
1631632622123,2010
1631632622127,2009
1631632622131,2009
1631632622135,2009
1631632622139,2009
1631632622143,2010
1631632622147,2010
1631632622151,2010
1631632622155,2010
1631632622159,2009
1631632622163,2009
1631632622167,2009
1631632622171,2010
1631632622175,2010
1631632622179,2010
1631632622183,2008
1631632622187,2006
1631632622191,2009
1631632622195,2019
1631632622199,2036
1631632622203,2053
1631632622207,2065
1631632622211,2061
1631632622215,2046
1631632622219,2023
1631632622223,2003
1631632622227,1993
1631632622231,1994
1631632622235,2003
1631632622239,2012
1631632622243,2019
1631632622247,2023
1631632622251,2026
1631632622255,2027
1631632622259,2027
1631632622263,2027
1631632622267,2028
1631632622271,2029
1631632622275,2030
1631632622279,2031
1631632622283,2032
1631632622287,2032
1631632622291,2033
1631632622295,2034
1631632622299,2034
1631632622303,2035
1631632622307,2036
1631632622311,2036
1631632622315,2037
1631632622319,2038
1631632622323,2039
1631632622327,2040
1631632622331,2043
1631632622335,2046
1631632622339,2047
1631632622343,2048
1631632622347,2047
1631632622351,2046
1631632622355,2047
1631632622359,2049
1631632622363,2052
1631632622367,2056
1631632622371,2057
1631632622375,2057
1631632622379,2056
1631632622383,2055
1631632622387,2054
1631632622391,2055
1631632622395,2057
1631632622399,2059
1631632622403,2060
1631632622407,2063
1631632622411,2064
1631632622415,2065
1631632622419,2065
1631632622423,2065
1631632622427,2064
1631632622431,2063
1631632622435,2064
1631632622439,2064
1631632622443,2065
1631632622447,2065
1631632622451,2065
1631632622455,2064
1631632622459,2063
1631632622463,2063
1631632622467,2064
1631632622471,2066
1631632622475,2067
1631632622479,2068
1631632622483,2068
1631632622487,2066
1631632622491,2064
1631632622495,2062
1631632622499,2061
1631632622503,2059
1631632622507,2059
1631632622511,2060
1631632622515,2062
1631632622519,2063
1631632622523,2063
1631632622527,2064
1631632622531,2064
1631632622535,2064
1631632622539,2065
1631632622543,2066
1631632622547,2066
1631632622551,2066
1631632622555,2065
1631632622559,2066
1631632622563,2067
1631632622567,2069
1631632622571,2071
1631632622575,2071
1631632622579,2071
1631632622583,2070
1631632622587,2069
1631632622591,2069
1631632622595,2070
1631632622599,2072
1631632622603,2074
1631632622607,2077
1631632622611,2078
1631632622615,2078
1631632622619,2076
1631632622623,2074
1631632622627,2073
1631632622631,2072
1631632622635,2073
1631632622639,2075
1631632622643,2077
1631632622647,2078
1631632622651,2078
1631632622655,2077
1631632622659,2076
1631632622663,2076
1631632622667,2076
1631632622671,2076
1631632622675,2077
1631632622679,2078
1631632622683,2078
1631632622687,2078
1631632622691,2078
1631632622695,2078
1631632622699,2078
1631632622703,2078
1631632622707,2079
1631632622711,2081
1631632622715,2084
1631632622719,2087
1631632622723,2089
1631632622727,2090
1631632622731,2091
1631632622735,2090
1631632622739,2089
1631632622743,2088
1631632622747,2087
1631632622751,2088
1631632622755,2089
1631632622759,2089
1631632622763,2089
1631632622767,2088
1631632622771,2087
1631632622775,2085
1631632622779,2084
1631632622783,2085
1631632622787,2085
1631632622791,2085
1631632622795,2085
1631632622799,2085
1631632622803,2083
1631632622807,2083
1631632622811,2082
1631632622815,2083
1631632622819,2084
1631632622823,2085
1631632622827,2086
1631632622831,2086
1631632622835,2085
1631632622839,2082
1631632622843,2079
1631632622847,2079
1631632622851,2087
1631632622855,2102
1631632622859,2120
1631632622863,2132
1631632622867,2132
1631632622871,2118
1631632622875,2097
1631632622879,2078
1631632622883,2066
1631632622887,2064
1631632622891,2067
1631632622895,2073
1631632622899,2077
1631632622903,2080
1631632622907,2083
1631632622911,2085
1631632622915,2086
1631632622919,2086
1631632622923,2085
1631632622927,2083
1631632622931,2082
1631632622935,2082
1631632622939,2082
1631632622943,2084
1631632622947,2085
1631632622951,2085
1631632622955,2085
1631632622959,2086
1631632622963,2087
1631632622967,2088
1631632622971,2088
1631632622975,2088
1631632622979,2087
1631632622983,2087
1631632622987,2087
1631632622991,2088
1631632622995,2089
1631632622999,2090
1631632623003,2090
1631632623007,2089
1631632623011,2089
1631632623015,2089
1631632623019,2089
1631632623023,2089
1631632623027,2089
1631632623031,2088
1631632623035,2087
1631632623039,2087
1631632623043,2088
1631632623047,2090
1631632623051,2092
1631632623055,2094
1631632623059,2095
1631632623063,2095
1631632623067,2095
1631632623071,2094
1631632623075,2093
1631632623079,2093
1631632623083,2093
1631632623087,2094
1631632623091,2095
1631632623095,2095
1631632623099,2095
1631632623103,2094
1631632623107,2093
1631632623111,2091
1631632623115,2090
1631632623119,2089
1631632623123,2090
1631632623127,2091
1631632623131,2092
1631632623135,2091
1631632623139,2088
1631632623143,2085
1631632623147,2083
1631632623151,2082
1631632623155,2083
1631632623159,2085
1631632623163,2086
1631632623167,2087
1631632623171,2086
1631632623175,2085
1631632623179,2084
1631632623183,2083
1631632623187,2083
1631632623191,2083
1631632623195,2083
1631632623199,2084
1631632623203,2084
1631632623207,2084
1631632623211,2083
1631632623215,2083
1631632623219,2082
1631632623223,2083
1631632623227,2083
1631632623231,2083
1631632623235,2084
1631632623239,2083
1631632623243,2083
1631632623247,2084
1631632623251,2084
1631632623255,2084
1631632623259,2083
1631632623263,2081
1631632623267,2080
1631632623271,2080
1631632623275,2080
1631632623279,2081
1631632623283,2082
1631632623287,2083
1631632623291,2083
1631632623295,2082
1631632623299,2081
1631632623303,2080
1631632623307,2079
1631632623311,2078
1631632623315,2078
1631632623319,2078
1631632623323,2079
1631632623327,2080
1631632623331,2080
1631632623335,2079
1631632623339,2077
1631632623343,2075
1631632623347,2074
1631632623351,2075
1631632623355,2076
1631632623359,2077
1631632623363,2077
1631632623367,2077
1631632623371,2077
1631632623375,2078
1631632623379,2079
1631632623383,2082
1631632623387,2083
1631632623391,2083
1631632623395,2082
1631632623399,2082
1631632623403,2081
1631632623407,2080
1631632623411,2080
1631632623415,2080
1631632623419,2079
1631632623423,2078
1631632623427,2077
1631632623431,2074
1631632623435,2073
1631632623439,2072
1631632623443,2071
1631632623447,2072
1631632623451,2072
1631632623455,2072
1631632623459,2072
1631632623463,2070
1631632623467,2069
1631632623471,2068
1631632623475,2070
1631632623479,2071
1631632623483,2072
1631632623487,2071
1631632623491,2068
1631632623495,2063
1631632623499,2063
1631632623503,2071
1631632623507,2088
1631632623511,2108
1631632623515,2121
1631632623519,2121
1631632623523,2106
1631632623527,2083
1631632623531,2061
1631632623535,2048
1631632623539,2045
1631632623543,2048
1631632623547,2054
1631632623551,2058
1631632623555,2061
1631632623559,2064
1631632623563,2067
1631632623567,2070
1631632623571,2070
1631632623575,2071
1631632623579,2070
1631632623583,2069
1631632623587,2069
1631632623591,2069
1631632623595,2069
1631632623599,2068
1631632623603,2067
1631632623607,2066
1631632623611,2066
1631632623615,2067
1631632623619,2067
1631632623623,2067
1631632623627,2067
1631632623631,2067
1631632623635,2067
1631632623639,2068
1631632623643,2069
1631632623647,2070
1631632623651,2069
1631632623655,2067
1631632623659,2066
1631632623663,2065
1631632623667,2067
1631632623671,2070
1631632623675,2073
1631632623679,2075
1631632623683,2075
1631632623687,2074
1631632623691,2073
1631632623695,2072
1631632623699,2073
1631632623703,2075
1631632623707,2077
1631632623711,2079
1631632623715,2079
1631632623719,2077
1631632623723,2076
1631632623727,2075
1631632623731,2075
1631632623735,2076
1631632623739,2076
1631632623743,2075
1631632623747,2073
1631632623751,2072
1631632623755,2072
1631632623759,2072
1631632623763,2072
1631632623767,2072
1631632623771,2071
1631632623775,2070
1631632623779,2070
1631632623783,2070
1631632623787,2070
1631632623791,2069
1631632623795,2068
1631632623799,2067
1631632623803,2067
1631632623807,2067
1631632623811,2067
1631632623815,2066
1631632623819,2065
1631632623823,2064
1631632623827,2063
1631632623831,2063
1631632623835,2065
1631632623839,2066
1631632623843,2066
1631632623847,2066
1631632623851,2065
1631632623855,2064
1631632623859,2064
1631632623863,2064
1631632623867,2063
1631632623871,2062
1631632623875,2062
1631632623879,2062
1631632623883,2062
1631632623887,2064
1631632623891,2065
1631632623895,2067
1631632623899,2067
1631632623903,2066
1631632623907,2066
1631632623911,2065
1631632623915,2065
1631632623919,2065
1631632623923,2065
1631632623927,2065
1631632623931,2065
1631632623935,2065
1631632623939,2065
1631632623943,2064
1631632623947,2063
1631632623951,2062
1631632623955,2062
1631632623959,2062
1631632623963,2062
1631632623967,2062
1631632623971,2062
1631632623975,2062
1631632623979,2062
1631632623983,2061
1631632623987,2060
1631632623991,2060
1631632623995,2060
1631632623999,2061
1631632624003,2063
1631632624007,2065
1631632624011,2066
1631632624015,2066
1631632624019,2066
1631632624023,2066
1631632624027,2067
1631632624031,2068
1631632624035,2069
1631632624039,2070
1631632624043,2069
1631632624047,2068
1631632624051,2066
1631632624055,2065
1631632624059,2063
1631632624063,2061
1631632624067,2060
1631632624071,2059
1631632624075,2060
1631632624079,2060
1631632624083,2061
1631632624087,2061
1631632624091,2060
1631632624095,2059
1631632624099,2057
1631632624103,2056
1631632624107,2055
1631632624111,2055
1631632624115,2056
1631632624119,2057
1631632624123,2057
1631632624127,2056
1631632624131,2053
1631632624135,2049
1631632624139,2045
1631632624143,2047
1631632624147,2057
1631632624151,2076
1631632624155,2096
1631632624159,2108
1631632624163,2105
1631632624167,2087
1631632624171,2062
1631632624175,2040
1631632624179,2027
1631632624183,2026
1631632624187,2032
1631632624191,2041
1631632624195,2047
1631632624199,2051
1631632624203,2053
1631632624207,2054
1631632624211,2052
1631632624215,2051
1631632624219,2049
1631632624223,2048
1631632624227,2047
1631632624231,2046
1631632624235,2046
1631632624239,2045
1631632624243,2045
1631632624247,2044
1631632624251,2043
1631632624255,2043
1631632624259,2042
1631632624263,2040
1631632624267,2039
1631632624271,2037
1631632624275,2038
1631632624279,2039
1631632624283,2039
1631632624287,2039
1631632624291,2038
1631632624295,2036
1631632624299,2034
1631632624303,2033
1631632624307,2033
1631632624311,2033
1631632624315,2033
1631632624319,2032
1631632624323,2032
1631632624327,2031
1631632624331,2030
1631632624335,2031
1631632624339,2031
1631632624343,2032
1631632624347,2031
1631632624351,2030
1631632624355,2029
1631632624359,2029
1631632624363,2029
1631632624367,2029
1631632624371,2029
1631632624375,2029
1631632624379,2027
1631632624383,2025
1631632624387,2024
1631632624391,2024
1631632624395,2025
1631632624399,2027
1631632624403,2027
1631632624407,2025
1631632624411,2023
1631632624415,2020
1631632624419,2018
1631632624423,2017
1631632624427,2016
1631632624431,2015
1631632624435,2013
1631632624439,2011
1631632624443,2010
1631632624447,2009
1631632624451,2008
1631632624455,2008
1631632624459,2007
1631632624463,2006
1631632624467,2005
1631632624471,2004
1631632624475,2005
1631632624479,2007
1631632624483,2008
1631632624487,2007
1631632624491,2006
1631632624495,2004
1631632624499,2002
1631632624503,2002
1631632624507,2003
1631632624511,2004
1631632624515,2006
1631632624519,2007
1631632624523,2006
1631632624527,2005
1631632624531,2003
1631632624535,2001
1631632624539,2001
1631632624543,2001
1631632624547,2002
1631632624551,2003
1631632624555,2004
1631632624559,2004
1631632624563,2004
1631632624567,2004
1631632624571,2003
1631632624575,2002
1631632624579,2002
1631632624583,2002
1631632624587,2002
1631632624591,2002
1631632624595,2002
1631632624599,2002
1631632624603,2002
1631632624607,2003
1631632624611,2003
1631632624615,2004
1631632624619,2003
1631632624623,2003
1631632624627,2002
1631632624631,2001
1631632624635,2001
1631632624639,2001
1631632624643,2001
1631632624647,2003
1631632624651,2004
1631632624655,2005
1631632624659,2005
1631632624663,2004
1631632624667,2004
1631632624671,2005
1631632624675,2007
1631632624679,2010
1631632624683,2013
1631632624687,2014
1631632624691,2013
1631632624695,2012
1631632624699,2012
1631632624703,2011
1631632624707,2011
1631632624711,2010
1631632624715,2009
1631632624719,2008
1631632624723,2008
1631632624727,2007
1631632624731,2006
1631632624735,2005
1631632624739,2004
1631632624743,2004
1631632624747,2004
1631632624751,2005
1631632624755,2007
1631632624759,2009
1631632624763,2009
1631632624767,2008
1631632624771,2007
1631632624775,2006
1631632624779,2005
1631632624783,2005
1631632624787,2005
1631632624791,2004
1631632624795,2002
1631632624799,2002
1631632624803,2007
1631632624807,2019
1631632624811,2036
1631632624815,2051
1631632624819,2056
1631632624823,2047
1631632624827,2027
1631632624831,2003
1631632624835,1987
1631632624839,1982
1631632624843,1986
1631632624847,1995
1631632624851,2003
1631632624855,2007
1631632624859,2010
1631632624863,2011
1631632624867,2013
1631632624871,2013
1631632624875,2013
1631632624879,2013
1631632624883,2012
1631632624887,2012
1631632624891,2013
1631632624895,2015
1631632624899,2016
1631632624903,2017
1631632624907,2017
1631632624911,2017
1631632624915,2017
1631632624919,2019
1631632624923,2021
1631632624927,2022
1631632624931,2021
1631632624935,2021
1631632624939,2020
1631632624943,2021
1631632624947,2022
1631632624951,2025
1631632624955,2027
1631632624959,2030
1631632624963,2031
1631632624967,2033
1631632624971,2034
1631632624975,2035
1631632624979,2037
1631632624983,2038
1631632624987,2040
1631632624991,2041
1631632624995,2042
1631632624999,2043
1631632625003,2044
1631632625007,2046
1631632625011,2048
1631632625015,2050
1631632625019,2052
1631632625023,2054
1631632625027,2055
1631632625031,2056
1631632625035,2057
1631632625039,2058
1631632625043,2058
1631632625047,2058
1631632625051,2058
1631632625055,2058
1631632625059,2059
1631632625063,2060
1631632625067,2060
1631632625071,2061
1631632625075,2062
1631632625079,2063
1631632625083,2065
1631632625087,2065
1631632625091,2065
1631632625095,2065
1631632625099,2064
1631632625103,2064
1631632625107,2063
1631632625111,2063
1631632625115,2064
1631632625119,2065
1631632625123,2066
1631632625127,2067
1631632625131,2067
1631632625135,2067
1631632625139,2067
1631632625143,2068
1631632625147,2068
1631632625151,2069
1631632625155,2069
1631632625159,2069
1631632625163,2069
1631632625167,2070
1631632625171,2071
1631632625175,2072
1631632625179,2073
1631632625183,2073
1631632625187,2072
1631632625191,2071
1631632625195,2071
1631632625199,2073
1631632625203,2075
1631632625207,2078
1631632625211,2080
1631632625215,2080
1631632625219,2079
1631632625223,2076
1631632625227,2074
1631632625231,2073
1631632625235,2075
1631632625239,2077
1631632625243,2080
1631632625247,2082
1631632625251,2083
1631632625255,2082
1631632625259,2080
1631632625263,2079
1631632625267,2078
1631632625271,2078
1631632625275,2079
1631632625279,2079
1631632625283,2079
1631632625287,2079
1631632625291,2079
1631632625295,2079
1631632625299,2079
1631632625303,2079
1631632625307,2078
1631632625311,2078
1631632625315,2079
1631632625319,2080
1631632625323,2082
1631632625327,2082
1631632625331,2082
1631632625335,2081
1631632625339,2080
1631632625343,2080
1631632625347,2081
1631632625351,2082
1631632625355,2083
1631632625359,2085
1631632625363,2087
1631632625367,2088
1631632625371,2089
1631632625375,2090
1631632625379,2090
1631632625383,2089
1631632625387,2088
1631632625391,2087
1631632625395,2087
1631632625399,2088
1631632625403,2088
1631632625407,2088
1631632625411,2086
1631632625415,2085
1631632625419,2083
1631632625423,2083
1631632625427,2083
1631632625431,2083
1631632625435,2083
1631632625439,2082
1631632625443,2081
1631632625447,2079
1631632625451,2079
1631632625455,2078
1631632625459,2079
1631632625463,2080
1631632625467,2081
1631632625471,2082
1631632625475,2081
1631632625479,2080
1631632625483,2078
1631632625487,2075
1631632625491,2072
1631632625495,2075
1631632625499,2086
1631632625503,2102
1631632625507,2118
1631632625511,2126
1631632625515,2120
1631632625519,2102
1631632625523,2078
1631632625527,2059
1631632625531,2050
1631632625535,2050
1631632625539,2058
1631632625543,2066
1631632625547,2071
1631632625551,2075
1631632625555,2077
1631632625559,2078
1631632625563,2078
1631632625567,2078
1631632625571,2078
1631632625575,2077
1631632625579,2075
1631632625583,2074
1631632625587,2073
1631632625591,2072
1631632625595,2072
1631632625599,2072
1631632625603,2073
1631632625607,2073
1631632625611,2074
1631632625615,2074
1631632625619,2073
1631632625623,2073
1631632625627,2072
1631632625631,2072
1631632625635,2072
1631632625639,2073
1631632625643,2074
1631632625647,2075
1631632625651,2074
1631632625655,2074
1631632625659,2074
1631632625663,2074
1631632625667,2075
1631632625671,2076
1631632625675,2077
1631632625679,2078
1631632625683,2078
1631632625687,2079
1631632625691,2078
1631632625695,2077
1631632625699,2076
1631632625703,2076
1631632625707,2076
1631632625711,2077
1631632625715,2079
1631632625719,2080
1631632625723,2081
1631632625727,2081
1631632625731,2081
1631632625735,2080
1631632625739,2078
1631632625743,2077
1631632625747,2075
1631632625751,2075
1631632625755,2076
1631632625759,2077
1631632625763,2078
1631632625767,2078
1631632625771,2077
1631632625775,2077
1631632625779,2076
1631632625783,2076
1631632625787,2076
1631632625791,2076
1631632625795,2076
1631632625799,2075
1631632625803,2073
1631632625807,2071
1631632625811,2070
1631632625815,2071
1631632625819,2071
1631632625823,2072
1631632625827,2072
1631632625831,2072
1631632625835,2072
1631632625839,2071
1631632625843,2070
1631632625847,2070
1631632625851,2070
1631632625855,2073
1631632625859,2076
1631632625863,2078
1631632625867,2079
1631632625871,2078
1631632625875,2078
1631632625879,2077
1631632625883,2077
1631632625887,2077
1631632625891,2077
1631632625895,2077
1631632625899,2077
1631632625903,2077
1631632625907,2077
1631632625911,2075
1631632625915,2074
1631632625919,2074
1631632625923,2075
1631632625927,2077
1631632625931,2079
1631632625935,2079
1631632625939,2079
1631632625943,2077
1631632625947,2074
1631632625951,2073
1631632625955,2072
1631632625959,2073
1631632625963,2073
1631632625967,2073
1631632625971,2073
1631632625975,2072
1631632625979,2072
1631632625983,2072
1631632625987,2073
1631632625991,2073
1631632625995,2073
1631632625999,2072
1631632626003,2071
1631632626007,2070
1631632626011,2070
1631632626015,2071
1631632626019,2071
1631632626023,2070
1631632626027,2070
1631632626031,2069
1631632626035,2068
1631632626039,2067
1631632626043,2067
1631632626047,2067
1631632626051,2067
1631632626055,2067
1631632626059,2067
1631632626063,2067
1631632626067,2068
1631632626071,2069
1631632626075,2070
1631632626079,2070
1631632626083,2070
1631632626087,2070
1631632626091,2071
1631632626095,2072
1631632626099,2074
1631632626103,2074
1631632626107,2073
1631632626111,2072
1631632626115,2071
1631632626119,2069
1631632626123,2069
1631632626127,2068
1631632626131,2067
1631632626135,2065
1631632626139,2062
1631632626143,2061
1631632626147,2060
1631632626151,2061
1631632626155,2062
1631632626159,2064
1631632626163,2065
1631632626167,2065
1631632626171,2063
1631632626175,2060
1631632626179,2058
1631632626183,2056
1631632626187,2057
1631632626191,2060
1631632626195,2062
1631632626199,2061
1631632626203,2057
1631632626207,2055
1631632626211,2060
1631632626215,2073
1631632626219,2092
1631632626223,2108
1631632626227,2112
1631632626231,2100
1631632626235,2078
1631632626239,2053
1631632626243,2037
1631632626247,2030
1631632626251,2032
1631632626255,2040
1631632626259,2047
1631632626263,2052
1631632626267,2056
1631632626271,2057
1631632626275,2057
1631632626279,2056
1631632626283,2055
1631632626287,2055
1631632626291,2055
1631632626295,2055
1631632626299,2055
1631632626303,2054
1631632626307,2054
1631632626311,2054
1631632626315,2055
1631632626319,2055
1631632626323,2056
1631632626327,2055
1631632626331,2055
1631632626335,2055
1631632626339,2056
1631632626343,2057
1631632626347,2057
1631632626351,2056
1631632626355,2054
1631632626359,2052
1631632626363,2052
1631632626367,2052
1631632626371,2054
1631632626375,2057
1631632626379,2058
1631632626383,2059
1631632626387,2058
1631632626391,2057
1631632626395,2057
1631632626399,2057
1631632626403,2057
1631632626407,2058
1631632626411,2057
1631632626415,2057
1631632626419,2057
1631632626423,2058
1631632626427,2060
1631632626431,2061
1631632626435,2062
1631632626439,2062
1631632626443,2060
1631632626447,2059
1631632626451,2057
1631632626455,2057
1631632626459,2056
1631632626463,2056
1631632626467,2055
1631632626471,2055
1631632626475,2056
1631632626479,2057
1631632626483,2057
1631632626487,2055
1631632626491,2053
1631632626495,2051
1631632626499,2051
1631632626503,2053
1631632626507,2053
1631632626511,2052
1631632626515,2050
1631632626519,2048
1631632626523,2047
1631632626527,2047
1631632626531,2048
1631632626535,2048
1631632626539,2047
1631632626543,2046
1631632626547,2047
1631632626551,2048
1631632626555,2050
1631632626559,2051
1631632626563,2050
1631632626567,2049
1631632626571,2047
1631632626575,2046
1631632626579,2045
1631632626583,2046
1631632626587,2047
1631632626591,2048
1631632626595,2048
1631632626599,2048
1631632626603,2048
1631632626607,2048
1631632626611,2048
1631632626615,2048
1631632626619,2047
1631632626623,2046
1631632626627,2045
1631632626631,2045
1631632626635,2044
1631632626639,2044
1631632626643,2044
1631632626647,2044
1631632626651,2044
1631632626655,2044
1631632626659,2044
1631632626663,2044
1631632626667,2044
1631632626671,2044
1631632626675,2044
1631632626679,2044
1631632626683,2043
1631632626687,2042
1631632626691,2041
1631632626695,2040
1631632626699,2040
1631632626703,2039
1631632626707,2039
1631632626711,2039
1631632626715,2040
1631632626719,2042
1631632626723,2043
1631632626727,2043
1631632626731,2041
1631632626735,2039
1631632626739,2036
1631632626743,2034
1631632626747,2034
1631632626751,2035
1631632626755,2036
1631632626759,2037
1631632626763,2037
1631632626767,2037
1631632626771,2038
1631632626775,2040
1631632626779,2041
1631632626783,2043
1631632626787,2044
1631632626791,2044
1631632626795,2044
1631632626799,2044
1631632626803,2044
1631632626807,2044
1631632626811,2043
1631632626815,2043
1631632626819,2042
1631632626823,2041
1631632626827,2039
1631632626831,2037
1631632626835,2035
1631632626839,2033
1631632626843,2034
1631632626847,2035
1631632626851,2036
1631632626855,2036
1631632626859,2036
1631632626863,2034
1631632626867,2034
1631632626871,2033
1631632626875,2033
1631632626879,2034
1631632626883,2034
1631632626887,2034
1631632626891,2033
1631632626895,2032
1631632626899,2030
1631632626903,2028
1631632626907,2025
1631632626911,2027
1631632626915,2036
1631632626919,2052
1631632626923,2072
1631632626927,2085
1631632626931,2084
1631632626935,2068
1631632626939,2043
1631632626943,2018
1631632626947,2003
1631632626951,2001
1631632626955,2007
1631632626959,2017
1631632626963,2024
1631632626967,2029
1631632626971,2031
1631632626975,2031
1631632626979,2031
1631632626983,2031
1631632626987,2031
1631632626991,2031
1631632626995,2029
1631632626999,2028
1631632627003,2027
1631632627007,2027
1631632627011,2028
1631632627015,2029
1631632627019,2029
1631632627023,2029
1631632627027,2029
1631632627031,2028
1631632627035,2027
1631632627039,2027
1631632627043,2027
1631632627047,2028
1631632627051,2029
1631632627055,2029
1631632627059,2028
1631632627063,2026
1631632627067,2025
1631632627071,2026
1631632627075,2027
1631632627079,2029
1631632627083,2030
1631632627087,2031
1631632627091,2032
1631632627095,2031
1631632627099,2030
1631632627103,2028
1631632627107,2027
1631632627111,2027
1631632627115,2028
1631632627119,2030
1631632627123,2032
1631632627127,2034
1631632627131,2034
1631632627135,2034
1631632627139,2033
1631632627143,2032
1631632627147,2031
1631632627151,2030
1631632627155,2030
1631632627159,2031
1631632627163,2033
1631632627167,2034
1631632627171,2034
1631632627175,2033
1631632627179,2031
1631632627183,2029
1631632627187,2027
1631632627191,2026
1631632627195,2027
1631632627199,2027
1631632627203,2027
1631632627207,2026
1631632627211,2025
1631632627215,2024
1631632627219,2023
1631632627223,2023
1631632627227,2023
1631632627231,2023
1631632627235,2023
1631632627239,2023
1631632627243,2022
1631632627247,2021
1631632627251,2019
1631632627255,2018
1631632627259,2018
1631632627263,2019
1631632627267,2020
1631632627271,2020
1631632627275,2021
1631632627279,2020
1631632627283,2020
1631632627287,2019
1631632627291,2019
1631632627295,2020
1631632627299,2020
1631632627303,2022
1631632627307,2022
1631632627311,2021
1631632627315,2021
1631632627319,2021
1631632627323,2022
1631632627327,2023
1631632627331,2024
1631632627335,2023
1631632627339,2021
1631632627343,2019
1631632627347,2017
1631632627351,2018
1631632627355,2019
1631632627359,2021
1631632627363,2023
1631632627367,2024
1631632627371,2023
1631632627375,2022
1631632627379,2020
1631632627383,2019
1631632627387,2019
1631632627391,2019
1631632627395,2020
1631632627399,2022
1631632627403,2022
1631632627407,2021
1631632627411,2021
1631632627415,2020
1631632627419,2020
1631632627423,2019
1631632627427,2018
1631632627431,2016
1631632627435,2015
1631632627439,2017
1631632627443,2019
1631632627447,2021
1631632627451,2022
1631632627455,2021
1631632627459,2020
1631632627463,2018
1631632627467,2018
1631632627471,2018
1631632627475,2018
1631632627479,2019
1631632627483,2019
1631632627487,2020
1631632627491,2020
1631632627495,2020
1631632627499,2019
1631632627503,2018
1631632627507,2018
1631632627511,2019
1631632627515,2021
1631632627519,2023
1631632627523,2023
1631632627527,2023
1631632627531,2023
1631632627535,2024
1631632627539,2026
1631632627543,2027
1631632627547,2028
1631632627551,2029
1631632627555,2029
1631632627559,2030
1631632627563,2031
1631632627567,2031
1631632627571,2030
1631632627575,2029
1631632627579,2027
1631632627583,2025
1631632627587,2024
1631632627591,2024
1631632627595,2023
1631632627599,2023
1631632627603,2022
1631632627607,2023
1631632627611,2023
1631632627615,2024
1631632627619,2024
1631632627623,2024
1631632627627,2025
1631632627631,2025
1631632627635,2026
1631632627639,2027
1631632627643,2027
1631632627647,2026
1631632627651,2024
1631632627655,2022
1631632627659,2020
1631632627663,2022
1631632627667,2033
1631632627671,2049
1631632627675,2067
1631632627679,2078
1631632627683,2075
1631632627687,2059
1631632627691,2036
1631632627695,2014
1631632627699,2002
1631632627703,2001
1631632627707,2008
1631632627711,2016
1631632627715,2023
1631632627719,2027
1631632627723,2030
1631632627727,2030
1631632627731,2031
1631632627735,2031
1631632627739,2032
1631632627743,2033
1631632627747,2033
1631632627751,2033
1631632627755,2033
1631632627759,2033
1631632627763,2035
1631632627767,2038
1631632627771,2040
1631632627775,2040
1631632627779,2040
1631632627783,2039
1631632627787,2038
1631632627791,2038
1631632627795,2039
1631632627799,2040
1631632627803,2041
1631632627807,2042
1631632627811,2044
1631632627815,2045
1631632627819,2046
1631632627823,2045
1631632627827,2046
1631632627831,2046
1631632627835,2048
1631632627839,2049
1631632627843,2051
1631632627847,2053
1631632627851,2054
1631632627855,2054
1631632627859,2055
1631632627863,2056
1631632627867,2056
1631632627871,2057
1631632627875,2059
1631632627879,2061
1631632627883,2064
1631632627887,2066
1631632627891,2067
1631632627895,2066
1631632627899,2065
1631632627903,2064
1631632627907,2063
1631632627911,2064
1631632627915,2066
1631632627919,2067
1631632627923,2068
1631632627927,2069
1631632627931,2068
1631632627935,2067
1631632627939,2066
1631632627943,2066
1631632627947,2066
1631632627951,2066
1631632627955,2066
1631632627959,2066
1631632627963,2066
1631632627967,2067
1631632627971,2068
1631632627975,2068
1631632627979,2067
1631632627983,2066
1631632627987,2066
1631632627991,2066
1631632627995,2066
1631632627999,2067
1631632628003,2067
1631632628007,2067
1631632628011,2067
1631632628015,2067
1631632628019,2067
1631632628023,2067
1631632628027,2066
1631632628031,2066
1631632628035,2067
1631632628039,2068
1631632628043,2069
1631632628047,2069
1631632628051,2068
1631632628055,2068
1631632628059,2068
1631632628063,2070
1631632628067,2072
1631632628071,2073
1631632628075,2073
1631632628079,2073
1631632628083,2072
1631632628087,2072
1631632628091,2073
1631632628095,2074
1631632628099,2073
1631632628103,2073
1631632628107,2072
1631632628111,2073
1631632628115,2074
1631632628119,2075
1631632628123,2075
1631632628127,2075
1631632628131,2073
1631632628135,2073
1631632628139,2073
1631632628143,2074
1631632628147,2075
1631632628151,2075
1631632628155,2074
1631632628159,2073
1631632628163,2072
1631632628167,2071
1631632628171,2071
1631632628175,2071
1631632628179,2072
1631632628183,2072
1631632628187,2073
1631632628191,2074
1631632628195,2075
1631632628199,2076
1631632628203,2077
1631632628207,2076
1631632628211,2076
1631632628215,2075
1631632628219,2075
1631632628223,2074
1631632628227,2074
1631632628231,2074
1631632628235,2076
1631632628239,2077
1631632628243,2078
1631632628247,2079
1631632628251,2079
1631632628255,2079
1631632628259,2078
1631632628263,2077
1631632628267,2076
1631632628271,2075
1631632628275,2075
1631632628279,2076
1631632628283,2076
1631632628287,2078
1631632628291,2079
1631632628295,2081
1631632628299,2081
1631632628303,2081
1631632628307,2080
1631632628311,2078
1631632628315,2077
1631632628319,2077
1631632628323,2078
1631632628327,2079
1631632628331,2081
1631632628335,2083
1631632628339,2083
1631632628343,2084
1631632628347,2085
1631632628351,2086
1631632628355,2088
1631632628359,2090
1631632628363,2091
1631632628367,2091
1631632628371,2090
1631632628375,2089
1631632628379,2087
1631632628383,2086
1631632628387,2086
1631632628391,2086
1631632628395,2086
1631632628399,2086
1631632628403,2085
1631632628407,2084
1631632628411,2082
1631632628415,2081
1631632628419,2080
1631632628423,2080
1631632628427,2080
1631632628431,2080
1631632628435,2081
1631632628439,2082
1631632628443,2083
1631632628447,2083
1631632628451,2082
1631632628455,2080
1631632628459,2079
1631632628463,2079
1631632628467,2078
1631632628471,2077
1631632628475,2081
1631632628479,2090
1631632628483,2105
1631632628487,2121
1631632628491,2131
1631632628495,2128
1631632628499,2112
1631632628503,2090
1631632628507,2069
1631632628511,2057
1631632628515,2054
1631632628519,2059
1631632628523,2067
1631632628527,2075
1631632628531,2081
1631632628535,2084
1631632628539,2084
1631632628543,2082
1631632628547,2080
1631632628551,2079
1631632628555,2079
1631632628559,2080
1631632628563,2082
1631632628567,2082
1631632628571,2083
1631632628575,2082
1631632628579,2081
1631632628583,2081
1631632628587,2081
1631632628591,2081
1631632628595,2082
1631632628599,2083
1631632628603,2083
1631632628607,2084
1631632628611,2085
1631632628615,2085
1631632628619,2085
1631632628623,2085
1631632628627,2085
1631632628631,2086
1631632628635,2087
1631632628639,2089
1631632628643,2089
1631632628647,2088
1631632628651,2087
1631632628655,2086
1631632628659,2087
1631632628663,2088
1631632628667,2089
1631632628671,2089
1631632628675,2090
1631632628679,2091
1631632628683,2092
1631632628687,2093
1631632628691,2093
1631632628695,2093
1631632628699,2092
1631632628703,2091
1631632628707,2092
1631632628711,2092
1631632628715,2093
1631632628719,2093
1631632628723,2094
1631632628727,2093
1631632628731,2093
1631632628735,2092
1631632628739,2091
1631632628743,2091
1631632628747,2090
1631632628751,2090
1631632628755,2090
1631632628759,2090
1631632628763,2089
1631632628767,2089
1631632628771,2089
1631632628775,2089
1631632628779,2090
1631632628783,2089
1631632628787,2087
1631632628791,2085
1631632628795,2083
1631632628799,2082
1631632628803,2082
1631632628807,2083
1631632628811,2084
1631632628815,2084
1631632628819,2084
1631632628823,2083
1631632628827,2083
1631632628831,2083
1631632628835,2084
1631632628839,2084
1631632628843,2084
1631632628847,2085
1631632628851,2085
1631632628855,2086
1631632628859,2086
1631632628863,2086
1631632628867,2085
1631632628871,2085
1631632628875,2085
1631632628879,2086
1631632628883,2087
1631632628887,2087
1631632628891,2086
1631632628895,2085
1631632628899,2084
1631632628903,2084
1631632628907,2084
1631632628911,2084
1631632628915,2084
1631632628919,2083
1631632628923,2083
1631632628927,2083
1631632628931,2083
1631632628935,2083
1631632628939,2082
1631632628943,2081
1631632628947,2080
1631632628951,2080
1631632628955,2081
1631632628959,2081
1631632628963,2081
1631632628967,2081
1631632628971,2080
1631632628975,2080
1631632628979,2080
1631632628983,2080
1631632628987,2080
1631632628991,2078
1631632628995,2077
1631632628999,2076
1631632629003,2076
1631632629007,2076
1631632629011,2077
1631632629015,2077
1631632629019,2077
1631632629023,2076
1631632629027,2075
1631632629031,2073
1631632629035,2073
1631632629039,2073
1631632629043,2074
1631632629047,2074
1631632629051,2074
1631632629055,2074
1631632629059,2074
1631632629063,2074
1631632629067,2074
1631632629071,2074
1631632629075,2074
1631632629079,2074
1631632629083,2073
1631632629087,2073
1631632629091,2074
1631632629095,2074
1631632629099,2073
1631632629103,2072
1631632629107,2071
1631632629111,2070
1631632629115,2072
1631632629119,2073
1631632629123,2074
1631632629127,2074
1631632629131,2073
1631632629135,2071
1631632629139,2071
1631632629143,2072
1631632629147,2074
1631632629151,2077
1631632629155,2078
1631632629159,2079
1631632629163,2078
1631632629167,2077
1631632629171,2075
1631632629175,2074
1631632629179,2074
1631632629183,2073
1631632629187,2072
1631632629191,2071
1631632629195,2070
1631632629199,2069
1631632629203,2069
1631632629207,2068
1631632629211,2067
1631632629215,2066
1631632629219,2064
1631632629223,2063
1631632629227,2063
1631632629231,2064
1631632629235,2065
1631632629239,2066
1631632629243,2066
1631632629247,2066
1631632629251,2064
1631632629255,2062
1631632629259,2057
1631632629263,2055
1631632629267,2058
1631632629271,2069
1631632629275,2087
1631632629279,2105
1631632629283,2115
1631632629287,2110
1631632629291,2092
1631632629295,2068
1631632629299,2048
1631632629303,2037
1631632629307,2036
1631632629311,2042
1631632629315,2049
1631632629319,2053
1631632629323,2057
1631632629327,2059
1631632629331,2059
1631632629335,2059
1631632629339,2058
1631632629343,2058
1631632629347,2058
1631632629351,2058
1631632629355,2059
1631632629359,2059
1631632629363,2060
1631632629367,2059
1631632629371,2059
1631632629375,2059
1631632629379,2058
1631632629383,2058
1631632629387,2058
1631632629391,2058
1631632629395,2058
1631632629399,2059
1631632629403,2059
1631632629407,2059
1631632629411,2058
1631632629415,2058
1631632629419,2058
1631632629423,2057
1631632629427,2058
1631632629431,2059
1631632629435,2061
1631632629439,2063
1631632629443,2065
1631632629447,2066
1631632629451,2065
1631632629455,2064
1631632629459,2063
1631632629463,2063
1631632629467,2064
1631632629471,2065
1631632629475,2067
1631632629479,2068
1631632629483,2069
1631632629487,2068
1631632629491,2068
1631632629495,2068
1631632629499,2068
1631632629503,2069
1631632629507,2070
1631632629511,2069
1631632629515,2069
1631632629519,2068
1631632629523,2067
1631632629527,2067
1631632629531,2067
1631632629535,2066
1631632629539,2065
1631632629543,2064
1631632629547,2064
1631632629551,2065
1631632629555,2065
1631632629559,2065
1631632629563,2063
1631632629567,2062
1631632629571,2060
1631632629575,2060
1631632629579,2060
1631632629583,2059
1631632629587,2059
1631632629591,2057
1631632629595,2057
1631632629599,2056
1631632629603,2057
1631632629607,2058
1631632629611,2057
1631632629615,2056
1631632629619,2055
1631632629623,2053
1631632629627,2053
1631632629631,2055
1631632629635,2058
1631632629639,2060
1631632629643,2061
1631632629647,2060
1631632629651,2059
1631632629655,2058
1631632629659,2058
1631632629663,2058
1631632629667,2058
1631632629671,2058
1631632629675,2058
1631632629679,2059
1631632629683,2060
1631632629687,2061
1631632629691,2061
1631632629695,2061
1631632629699,2060
1631632629703,2059
1631632629707,2058
1631632629711,2058
1631632629715,2058
1631632629719,2058
1631632629723,2058
1631632629727,2059
1631632629731,2059
1631632629735,2058
1631632629739,2058
1631632629743,2057
1631632629747,2056
1631632629751,2056
1631632629755,2056
1631632629759,2057
1631632629763,2058
1631632629767,2058
1631632629771,2058
1631632629775,2057
1631632629779,2056
1631632629783,2055
1631632629787,2054
1631632629791,2052
1631632629795,2052
1631632629799,2052
1631632629803,2052
1631632629807,2052
1631632629811,2053
1631632629815,2053
1631632629819,2054
1631632629823,2054
1631632629827,2053
1631632629831,2052
1631632629835,2052
1631632629839,2052
1631632629843,2053
1631632629847,2054
1631632629851,2054
1631632629855,2053
1631632629859,2051
1631632629863,2049
1631632629867,2049
1631632629871,2049
1631632629875,2051
1631632629879,2052
1631632629883,2051
1631632629887,2050
1631632629891,2048
1631632629895,2048
1631632629899,2048
1631632629903,2048
1631632629907,2049
1631632629911,2049
1631632629915,2049
1631632629919,2049
1631632629923,2050
1631632629927,2052
1631632629931,2054
1631632629935,2055
1631632629939,2054
1631632629943,2052
1631632629947,2049
1631632629951,2048
1631632629955,2048
1631632629959,2048
1631632629963,2048
1631632629967,2048
1631632629971,2046
1631632629975,2044
1631632629979,2041
1631632629983,2039
1631632629987,2037
1631632629991,2037
1631632629995,2038
1631632629999,2040
1631632630003,2041
1631632630007,2040
1631632630011,2038
1631632630015,2037
1631632630019,2035
1631632630023,2033
1631632630027,2032
1631632630031,2032
1631632630035,2032
1631632630039,2032
1631632630043,2031
1631632630047,2030
1631632630051,2034
1631632630055,2045
1631632630059,2061
1631632630063,2077
1631632630067,2085
1631632630071,2078
1631632630075,2058
1631632630079,2034
1631632630083,2013
1631632630087,2004
1631632630091,2005
1631632630095,2013
1631632630099,2021
1631632630103,2027
1631632630107,2030
1631632630111,2031
1631632630115,2031
1631632630119,2029
1631632630123,2028
1631632630127,2027
1631632630131,2027
1631632630135,2027
1631632630139,2027
1631632630143,2027
1631632630147,2027
1631632630151,2027
1631632630155,2026
1631632630159,2027
1631632630163,2027
1631632630167,2028
1631632630171,2028
1631632630175,2028
1631632630179,2028
1631632630183,2027
1631632630187,2027
1631632630191,2027
1631632630195,2028
1631632630199,2028
1631632630203,2027
1631632630207,2027
1631632630211,2027
1631632630215,2027
1631632630219,2028
1631632630223,2029
1631632630227,2030
1631632630231,2031
1631632630235,2032
1631632630239,2032
1631632630243,2033
1631632630247,2033
1631632630251,2032
1631632630255,2031
1631632630259,2030
1631632630263,2030
1631632630267,2032
1631632630271,2034
1631632630275,2036
1631632630279,2038
1631632630283,2039
1631632630287,2039
1631632630291,2038
1631632630295,2039
1631632630299,2038
1631632630303,2039
1631632630307,2039
1631632630311,2038
1631632630315,2037
1631632630319,2037
1631632630323,2036
1631632630327,2037
1631632630331,2037
1631632630335,2036
1631632630339,2035
1631632630343,2034
1631632630347,2032
1631632630351,2031
1631632630355,2032
1631632630359,2032
1631632630363,2033
1631632630367,2032
1631632630371,2031
1631632630375,2030
1631632630379,2029
1631632630383,2028
1631632630387,2028
1631632630391,2028
1631632630395,2029
1631632630399,2030
1631632630403,2031
1631632630407,2032
1631632630411,2032
1631632630415,2032
1631632630419,2032
1631632630423,2033
1631632630427,2033
1631632630431,2033
1631632630435,2032
1631632630439,2032
1631632630443,2031
1631632630447,2032
1631632630451,2034
1631632630455,2036
1631632630459,2038
1631632630463,2038
1631632630467,2038
1631632630471,2037
1631632630475,2036
1631632630479,2036
1631632630483,2037
1631632630487,2038
1631632630491,2039
1631632630495,2040
1631632630499,2040
1631632630503,2039
1631632630507,2038
1631632630511,2036
1631632630515,2036
1631632630519,2037
1631632630523,2039
1631632630527,2041
1631632630531,2043
1631632630535,2043
1631632630539,2042
1631632630543,2041
1631632630547,2040
1631632630551,2039
1631632630555,2040
1631632630559,2042
1631632630563,2043
1631632630567,2043
1631632630571,2043
1631632630575,2043
1631632630579,2042
1631632630583,2041
1631632630587,2041
1631632630591,2041
1631632630595,2043
1631632630599,2044
1631632630603,2046
1631632630607,2047
1631632630611,2047
1631632630615,2047
1631632630619,2046
1631632630623,2045
1631632630627,2045
1631632630631,2045
1631632630635,2045
1631632630639,2045
1631632630643,2046
1631632630647,2047
1631632630651,2048
1631632630655,2049
1631632630659,2050
1631632630663,2049
1631632630667,2049
1631632630671,2048
1631632630675,2049
1631632630679,2050
1631632630683,2051
1631632630687,2051
1631632630691,2050
1631632630695,2049
1631632630699,2049
1631632630703,2049
1631632630707,2051
1631632630711,2053
1631632630715,2056
1631632630719,2058
1631632630723,2059
1631632630727,2060
1631632630731,2061
1631632630735,2062
1631632630739,2062
1631632630743,2062
1631632630747,2061
1631632630751,2060
1631632630755,2060
1631632630759,2061
1631632630763,2061
1631632630767,2062
1631632630771,2061
1631632630775,2059
1631632630779,2057
1631632630783,2056
1631632630787,2056
1631632630791,2057
1631632630795,2058
1631632630799,2058
1631632630803,2058
1631632630807,2057
1631632630811,2057
1631632630815,2057
1631632630819,2057
1631632630823,2057
1631632630827,2057
1631632630831,2056
1631632630835,2056
1631632630839,2056
1631632630843,2054
1631632630847,2053
1631632630851,2058
1631632630855,2070
1631632630859,2087
1631632630863,2103
1631632630867,2109
1631632630871,2101
1631632630875,2083
1631632630879,2061
1631632630883,2046
1631632630887,2038
1631632630891,2040
1631632630895,2047
1631632630899,2052
1631632630903,2057
1631632630907,2060
1631632630911,2062
1631632630915,2062
1631632630919,2062
1631632630923,2063
1631632630927,2063
1631632630931,2063
1631632630935,2063
1631632630939,2063
1631632630943,2063
1631632630947,2064
1631632630951,2065
1631632630955,2066
1631632630959,2068
1631632630963,2069
1631632630967,2070
1631632630971,2070
1631632630975,2069
1631632630979,2068
1631632630983,2068
1631632630987,2069
1631632630991,2071
1631632630995,2072
1631632630999,2073
1631632631003,2073
1631632631007,2074
1631632631011,2075
1631632631015,2076
1631632631019,2076
1631632631023,2076
1631632631027,2076
1631632631031,2076
1631632631035,2078
1631632631039,2080
1631632631043,2081
1631632631047,2083
1631632631051,2084
1631632631055,2084
1631632631059,2084
1631632631063,2084
1631632631067,2083
1631632631071,2083
1631632631075,2084
1631632631079,2085
1631632631083,2086
1631632631087,2086
1631632631091,2086
1631632631095,2085
1631632631099,2085
1631632631103,2086
1631632631107,2087
1631632631111,2088
1631632631115,2089
1631632631119,2089
1631632631123,2088
1631632631127,2086
1631632631131,2084
1631632631135,2083
1631632631139,2083
1631632631143,2083
1631632631147,2084
1631632631151,2084
1631632631155,2084
1631632631159,2084
1631632631163,2082
1631632631167,2080
1631632631171,2078
1631632631175,2076
1631632631179,2075
1631632631183,2076
1631632631187,2077
1631632631191,2077
1631632631195,2078
1631632631199,2078
1631632631203,2077
1631632631207,2078
1631632631211,2078
1631632631215,2078
1631632631219,2078
1631632631223,2077
1631632631227,2077
1631632631231,2078
1631632631235,2080
1631632631239,2082
1631632631243,2083
1631632631247,2083
1631632631251,2082
1631632631255,2081
1631632631259,2081
1631632631263,2081
1631632631267,2081
1631632631271,2081
1631632631275,2081
1631632631279,2080
1631632631283,2080
1631632631287,2079
1631632631291,2079
1631632631295,2080
1631632631299,2080
1631632631303,2081
1631632631307,2082
1631632631311,2082
1631632631315,2083
1631632631319,2081
1631632631323,2080
1631632631327,2078
1631632631331,2078
1631632631335,2079
1631632631339,2081
1631632631343,2082
1631632631347,2082
1631632631351,2081
1631632631355,2079
1631632631359,2077
1631632631363,2077
1631632631367,2077
1631632631371,2079
1631632631375,2079
1631632631379,2078
1631632631383,2077
1631632631387,2075
1631632631391,2074
1631632631395,2074
1631632631399,2077
1631632631403,2080
1631632631407,2081
1631632631411,2081
1631632631415,2079
1631632631419,2077
1631632631423,2075
1631632631427,2075
1631632631431,2075
1631632631435,2076
1631632631439,2077
1631632631443,2078
1631632631447,2078
1631632631451,2078
1631632631455,2078
1631632631459,2078
1631632631463,2079
1631632631467,2079
1631632631471,2080
1631632631475,2082
1631632631479,2084
1631632631483,2085
1631632631487,2086
1631632631491,2086
1631632631495,2085
1631632631499,2083
1631632631503,2081
1631632631507,2079
1631632631511,2078
1631632631515,2076
1631632631519,2075
1631632631523,2074
1631632631527,2074
1631632631531,2075
1631632631535,2075
1631632631539,2075
1631632631543,2075
1631632631547,2075
1631632631551,2074
1631632631555,2073
1631632631559,2073
1631632631563,2072
1631632631567,2071
1631632631571,2071
1631632631575,2071
1631632631579,2070
1631632631583,2068
1631632631587,2068
1631632631591,2074
1631632631595,2088
1631632631599,2106
1631632631603,2121
1631632631607,2125
1631632631611,2114
1631632631615,2093
1631632631619,2069
1631632631623,2050
1631632631627,2043
1631632631631,2044
1631632631635,2050
1631632631639,2057
1631632631643,2063
1631632631647,2067
1631632631651,2069
1631632631655,2070
1631632631659,2069
1631632631663,2067
1631632631667,2067
1631632631671,2067
1631632631675,2068
1631632631679,2069
1631632631683,2070
1631632631687,2071
1631632631691,2070
1631632631695,2070
1631632631699,2069
1631632631703,2069
1631632631707,2070
1631632631711,2070
1631632631715,2070
1631632631719,2069
1631632631723,2068
1631632631727,2069
1631632631731,2069
1631632631735,2071
1631632631739,2072
1631632631743,2073
1631632631747,2072
1631632631751,2070
1631632631755,2070
1631632631759,2071
1631632631763,2073
1631632631767,2074
1631632631771,2073
1631632631775,2073
1631632631779,2072
1631632631783,2073
1631632631787,2074
1631632631791,2076
1631632631795,2077
1631632631799,2077
1631632631803,2077
1631632631807,2077
1631632631811,2079
1631632631815,2080
1631632631819,2081
1631632631823,2081
1631632631827,2081
1631632631831,2080
1631632631835,2078
1631632631839,2076
1631632631843,2075
1631632631847,2075
1631632631851,2076
1631632631855,2077
1631632631859,2078
1631632631863,2078
1631632631867,2077
1631632631871,2075
1631632631875,2073
1631632631879,2072
1631632631883,2071
1631632631887,2071
1631632631891,2070
1631632631895,2069
1631632631899,2068
1631632631903,2067
1631632631907,2067
1631632631911,2067
1631632631915,2067
1631632631919,2067
1631632631923,2067
1631632631927,2067
1631632631931,2066
1631632631935,2066
1631632631939,2066
1631632631943,2065
1631632631947,2065
1631632631951,2064
1631632631955,2064
1631632631959,2064
1631632631963,2064
1631632631967,2065
1631632631971,2065
1631632631975,2066
1631632631979,2066
1631632631983,2066
1631632631987,2066
1631632631991,2065
1631632631995,2066
1631632631999,2066
1631632632003,2066
1631632632007,2066
1631632632011,2065
1631632632015,2064
1631632632019,2064
1631632632023,2064
1631632632027,2065
1631632632031,2066
1631632632035,2066
1631632632039,2067
1631632632043,2067
1631632632047,2066
1631632632051,2065
1631632632055,2065
1631632632059,2065
1631632632063,2065
1631632632067,2065
1631632632071,2064
1631632632075,2064
1631632632079,2063
1631632632083,2063
1631632632087,2063
1631632632091,2063
1631632632095,2063
1631632632099,2061
1631632632103,2060
1631632632107,2059
1631632632111,2060
1631632632115,2061
1631632632119,2061
1631632632123,2062
1631632632127,2061
1631632632131,2060
1631632632135,2059
1631632632139,2058
1631632632143,2057
1631632632147,2057
1631632632151,2058
1631632632155,2059
1631632632159,2060
1631632632163,2062
1631632632167,2062
1631632632171,2062
1631632632175,2061
1631632632179,2061
1631632632183,2061
1631632632187,2062
1631632632191,2063
1631632632195,2064
1631632632199,2065
1631632632203,2066
1631632632207,2067
1631632632211,2067
1631632632215,2066
1631632632219,2064
1631632632223,2062
1631632632227,2061
1631632632231,2060
1631632632235,2060
1631632632239,2060
1631632632243,2059
1631632632247,2056
1631632632251,2054
1631632632255,2053
1631632632259,2052
1631632632263,2052
1631632632267,2053
1631632632271,2053
1631632632275,2053
1631632632279,2053
1631632632283,2053
1631632632287,2053
1631632632291,2052
1631632632295,2052
1631632632299,2051
1631632632303,2050
1631632632307,2048
1631632632311,2045
1631632632315,2047
1631632632319,2053
1631632632323,2069
1631632632327,2089
1631632632331,2104
1631632632335,2105
1631632632339,2090
1631632632343,2065
1631632632347,2040
1631632632351,2024
1631632632355,2020
1631632632359,2025
1631632632363,2035
1631632632367,2041
1631632632371,2045
1631632632375,2047
1631632632379,2047
1631632632383,2046
1631632632387,2046
1631632632391,2046
1631632632395,2046
1631632632399,2047
1631632632403,2046
1631632632407,2046
1631632632411,2045
1631632632415,2044
1631632632419,2044
1631632632423,2044
1631632632427,2044
1631632632431,2044
1631632632435,2044
1631632632439,2043
1631632632443,2043
1631632632447,2043
1631632632451,2043
1631632632455,2044
1631632632459,2043
1631632632463,2043
1631632632467,2042
1631632632471,2042
1631632632475,2042
1631632632479,2042
1631632632483,2043
1631632632487,2043
1631632632491,2043
1631632632495,2043
1631632632499,2043
1631632632503,2044
1631632632507,2044
1631632632511,2045
1631632632515,2046
1631632632519,2047
1631632632523,2047
1631632632527,2047
1631632632531,2046
1631632632535,2046
1631632632539,2046
1631632632543,2047
1631632632547,2048
1631632632551,2050
1631632632555,2050
1631632632559,2049
1631632632563,2048
1631632632567,2048
1631632632571,2048
1631632632575,2049
1631632632579,2050
1631632632583,2050
1631632632587,2049
1631632632591,2048
1631632632595,2046
1631632632599,2045
1631632632603,2044
1631632632607,2044
1631632632611,2044
1631632632615,2043
1631632632619,2042
1631632632623,2041
1631632632627,2039
1631632632631,2037
1631632632635,2036
1631632632639,2036
1631632632643,2036
1631632632647,2037
1631632632651,2036
1631632632655,2035
1631632632659,2034
1631632632663,2034
1631632632667,2033
1631632632671,2033
1631632632675,2034
1631632632679,2035
1631632632683,2036
1631632632687,2037
1631632632691,2037
1631632632695,2038
1631632632699,2038
1631632632703,2037
1631632632707,2037
1631632632711,2036
1631632632715,2036
1631632632719,2036
1631632632723,2037
1631632632727,2038
1631632632731,2038
1631632632735,2039
1631632632739,2039
1631632632743,2039
1631632632747,2038
1631632632751,2038
1631632632755,2038
1631632632759,2038
1631632632763,2038
1631632632767,2039
1631632632771,2039
1631632632775,2040
1631632632779,2039
1631632632783,2039
1631632632787,2039
1631632632791,2039
1631632632795,2039
1631632632799,2039
1631632632803,2039
1631632632807,2039
1631632632811,2040
1631632632815,2040
1631632632819,2040
1631632632823,2040
1631632632827,2039
1631632632831,2039
1631632632835,2039
1631632632839,2039
1631632632843,2040
1631632632847,2041
1631632632851,2040
1631632632855,2040
1631632632859,2039
1631632632863,2039
1631632632867,2039
1631632632871,2039
1631632632875,2040
1631632632879,2040
1631632632883,2040
1631632632887,2042
1631632632891,2043
1631632632895,2044
1631632632899,2045
1631632632903,2045
1631632632907,2045
1631632632911,2046
1631632632915,2048
1631632632919,2049
1631632632923,2051
1631632632927,2051
1631632632931,2052
1631632632935,2052
1631632632939,2052
1631632632943,2053
1631632632947,2053
1631632632951,2052
1631632632955,2051
1631632632959,2050
1631632632963,2050
1631632632967,2049
1631632632971,2048
1631632632975,2046
1631632632979,2045
1631632632983,2044
1631632632987,2045
1631632632991,2046
1631632632995,2047
1631632632999,2047
1631632633003,2046
1631632633007,2046
1631632633011,2046
1631632633015,2047
1631632633019,2048
1631632633023,2048
1631632633027,2048
1631632633031,2047
1631632633035,2045
1631632633039,2046
1631632633043,2053
1631632633047,2069
1631632633051,2088
1631632633055,2101
1631632633059,2101
1631632633063,2086
1631632633067,2061
1631632633071,2038
1631632633075,2025
1631632633079,2023
1631632633083,2031
1631632633087,2041
1631632633091,2048
1631632633095,2050
1631632633099,2050
1631632633103,2050
1631632633107,2050
1631632633111,2051
1631632633115,2052
1631632633119,2053
1631632633123,2053
1631632633127,2054
1631632633131,2053
1631632633135,2053
1631632633139,2051
1631632633143,2050
1631632633147,2049
1631632633151,2049
1631632633155,2049
1631632633159,2051
1631632633163,2053
1631632633167,2055
1631632633171,2056
1631632633175,2057
1631632633179,2057
1631632633183,2057
1631632633187,2057
1631632633191,2056
1631632633195,2056
1631632633199,2057
1631632633203,2058
1631632633207,2060
1631632633211,2061
1631632633215,2062
1631632633219,2062
1631632633223,2063
1631632633227,2064
1631632633231,2064
1631632633235,2065
1631632633239,2065
1631632633243,2065
1631632633247,2065
1631632633251,2066
1631632633255,2066
1631632633259,2067
1631632633263,2068
1631632633267,2069
1631632633271,2069
1631632633275,2069
1631632633279,2069
1631632633283,2070
1631632633287,2071
1631632633291,2073
1631632633295,2074
1631632633299,2075
1631632633303,2074
1631632633307,2073
1631632633311,2072
1631632633315,2072
1631632633319,2071
1631632633323,2071
1631632633327,2070
1631632633331,2069
1631632633335,2067
1631632633339,2065
1631632633343,2064
1631632633347,2063
1631632633351,2063
1631632633355,2064
1631632633359,2065
1631632633363,2066
1631632633367,2065
1631632633371,2063
1631632633375,2062
1631632633379,2061
1631632633383,2061
1631632633387,2063
1631632633391,2064
1631632633395,2063
1631632633399,2062
1631632633403,2060
1631632633407,2060
1631632633411,2061
1631632633415,2064
1631632633419,2067
1631632633423,2069
1631632633427,2068
1631632633431,2067
1631632633435,2065
1631632633439,2065
1631632633443,2066
1631632633447,2067
1631632633451,2068
1631632633455,2068
1631632633459,2068
1631632633463,2068
1631632633467,2069
1631632633471,2069
1631632633475,2069
1631632633479,2068
1631632633483,2067
1631632633487,2066
1631632633491,2065
1631632633495,2064
1631632633499,2064
1631632633503,2065
1631632633507,2065
1631632633511,2066
1631632633515,2067
1631632633519,2068
1631632633523,2068
1631632633527,2067
1631632633531,2066
1631632633535,2065
1631632633539,2064
1631632633543,2064
1631632633547,2065
1631632633551,2065
1631632633555,2065
1631632633559,2064
1631632633563,2063
1631632633567,2063
1631632633571,2064
1631632633575,2066
1631632633579,2068
1631632633583,2067
1631632633587,2066
1631632633591,2064
1631632633595,2063
1631632633599,2063
1631632633603,2064
1631632633607,2065
1631632633611,2066
1631632633615,2066
1631632633619,2066
1631632633623,2066
1631632633627,2065
1631632633631,2065
1631632633635,2065
1631632633639,2066
1631632633643,2067
1631632633647,2068
1631632633651,2069
1631632633655,2069
1631632633659,2069
1631632633663,2068
1631632633667,2068
1631632633671,2069
1631632633675,2070
1631632633679,2071
1631632633683,2069
1631632633687,2067
1631632633691,2064
1631632633695,2061
1631632633699,2060
1631632633703,2061
1631632633707,2061
1631632633711,2061
1631632633715,2060
1631632633719,2059
1631632633723,2059
1631632633727,2060
1631632633731,2060
1631632633735,2060
1631632633739,2058
1631632633743,2056
1631632633747,2055
1631632633751,2055
1631632633755,2055
1631632633759,2053
1631632633763,2051
1631632633767,2054
1631632633771,2064
1631632633775,2080
1631632633779,2098
1631632633783,2109
1631632633787,2105
1631632633791,2086
1631632633795,2062
1631632633799,2042
1631632633803,2031
1631632633807,2031
1631632633811,2038
1631632633815,2045
1631632633819,2049
1631632633823,2052
1631632633827,2053
1631632633831,2053
1631632633835,2053
1631632633839,2053
1631632633843,2053
1631632633847,2054
1631632633851,2055
1631632633855,2056
1631632633859,2055
1631632633863,2054
1631632633867,2051
1631632633871,2050
1631632633875,2051
1631632633879,2053
1631632633883,2055
1631632633887,2057
1631632633891,2056
1631632633895,2055
1631632633899,2053
1631632633903,2052
1631632633907,2053
1631632633911,2055
1631632633915,2056
1631632633919,2057
1631632633923,2056
1631632633927,2055
1631632633931,2054
1631632633935,2053
1631632633939,2054
1631632633943,2055
1631632633947,2056
1631632633951,2056
1631632633955,2056
1631632633959,2056
1631632633963,2058
1631632633967,2059
1631632633971,2060
1631632633975,2060
1631632633979,2060
1631632633983,2060
1631632633987,2060
1631632633991,2061
1631632633995,2062
1631632633999,2063
1631632634003,2063
1631632634007,2062
1631632634011,2061
1631632634015,2060
1631632634019,2059
1631632634023,2059
1631632634027,2059
1631632634031,2060
1631632634035,2061
1631632634039,2062
1631632634043,2061
1631632634047,2059
1631632634051,2056
1631632634055,2054
1631632634059,2052
1631632634063,2052
1631632634067,2052
1631632634071,2053
1631632634075,2053
1631632634079,2053
1631632634083,2052
1631632634087,2052
1631632634091,2051
1631632634095,2050
1631632634099,2049
1631632634103,2048
1631632634107,2048
1631632634111,2047
1631632634115,2047
1631632634119,2048
1631632634123,2050
1631632634127,2052
1631632634131,2052
1631632634135,2050
1631632634139,2048
1631632634143,2047
1631632634147,2047
1631632634151,2048
1631632634155,2049
1631632634159,2051
1631632634163,2051
1631632634167,2051
1631632634171,2051
1631632634175,2051
1631632634179,2051
1631632634183,2051
1631632634187,2050
1631632634191,2049
1631632634195,2048
1631632634199,2048
1631632634203,2048
1631632634207,2048
1631632634211,2048
1631632634215,2049
1631632634219,2048
1631632634223,2048
1631632634227,2048
1631632634231,2049
1631632634235,2049
1631632634239,2050
1631632634243,2050
1631632634247,2049
1631632634251,2048
1631632634255,2047
1631632634259,2046
1631632634263,2046
1631632634267,2046
1631632634271,2047
1631632634275,2048
1631632634279,2048
1631632634283,2047
1631632634287,2045
1631632634291,2044
1631632634295,2043
1631632634299,2043
1631632634303,2045
1631632634307,2046
1631632634311,2047
1631632634315,2047
1631632634319,2046
1631632634323,2045
1631632634327,2044
1631632634331,2043
1631632634335,2044
1631632634339,2044
1631632634343,2044
1631632634347,2044
1631632634351,2043
1631632634355,2043
1631632634359,2043
1631632634363,2044
1631632634367,2044
1631632634371,2045
1631632634375,2045
1631632634379,2045
1631632634383,2045
1631632634387,2045
1631632634391,2046
1631632634395,2048
1631632634399,2048
1631632634403,2050
1631632634407,2050
1631632634411,2051
1631632634415,2051
1631632634419,2051
1631632634423,2050
1631632634427,2049
1631632634431,2048
1631632634435,2047
1631632634439,2046
1631632634443,2045
1631632634447,2044
1631632634451,2044
1631632634455,2043
1631632634459,2043
1631632634463,2042
1631632634467,2041
1631632634471,2041
1631632634475,2041
1631632634479,2041
1631632634483,2042
1631632634487,2042
1631632634491,2042
1631632634495,2041
1631632634499,2041
1631632634503,2040
1631632634507,2039
1631632634511,2037
1631632634515,2034
1631632634519,2031
1631632634523,2033
1631632634527,2044
1631632634531,2061
1631632634535,2081
1631632634539,2094
1631632634543,2092
1631632634547,2076
1631632634551,2052
1631632634555,2030
1631632634559,2015
1631632634563,2012
1631632634567,2017
1631632634571,2025
1631632634575,2031
1631632634579,2034
1631632634583,2037
1631632634587,2039
1631632634591,2039
1631632634595,2039
1631632634599,2039
1631632634603,2039
1631632634607,2038
1631632634611,2037
1631632634615,2037
1631632634619,2037
1631632634623,2037
1631632634627,2039
1631632634631,2040
1631632634635,2041
1631632634639,2042
1631632634643,2042
1631632634647,2041
1631632634651,2040
1631632634655,2039
1631632634659,2038
1631632634663,2039
1631632634667,2040
1631632634671,2040
1631632634675,2041
1631632634679,2041
1631632634683,2041
1631632634687,2041
1631632634691,2042
1631632634695,2043
1631632634699,2044
1631632634703,2044
1631632634707,2044
1631632634711,2043
1631632634715,2043
1631632634719,2044
1631632634723,2046
1631632634727,2048
1631632634731,2049
1631632634735,2050
1631632634739,2049
1631632634743,2048
1631632634747,2048
1631632634751,2048
1631632634755,2048
1631632634759,2051
1631632634763,2052
1631632634767,2053
1631632634771,2052
1631632634775,2050
1631632634779,2049
1631632634783,2048
1631632634787,2048
1631632634791,2049
1631632634795,2049
1631632634799,2049
1631632634803,2049
1631632634807,2048
1631632634811,2046
1631632634815,2044
1631632634819,2043
1631632634823,2041
1631632634827,2039
1631632634831,2039
1631632634835,2039
1631632634839,2040
1631632634843,2041
1631632634847,2042
1631632634851,2040
1631632634855,2038
1631632634859,2037
1631632634863,2036
1631632634867,2036
1631632634871,2036
1631632634875,2038
1631632634879,2038
1631632634883,2039
1631632634887,2039
1631632634891,2038
1631632634895,2038
1631632634899,2038
1631632634903,2038
1631632634907,2038
1631632634911,2038
1631632634915,2039
1631632634919,2039
1631632634923,2039
1631632634927,2039
1631632634931,2038
1631632634935,2038
1631632634939,2037
1631632634943,2038
1631632634947,2039
1631632634951,2039
1631632634955,2040
1631632634959,2041
1631632634963,2041
1631632634967,2041
1631632634971,2040
1631632634975,2039
1631632634979,2038
1631632634983,2037
1631632634987,2037
1631632634991,2038
1631632634995,2038
1631632634999,2039
1631632635003,2038
1631632635007,2037
1631632635011,2036
1631632635015,2035
1631632635019,2035
1631632635023,2035
1631632635027,2035
1631632635031,2034
1631632635035,2034
1631632635039,2034
1631632635043,2035
1631632635047,2035
1631632635051,2035
1631632635055,2034
1631632635059,2033
1631632635063,2033
1631632635067,2034
1631632635071,2035
1631632635075,2036
1631632635079,2035
1631632635083,2033
1631632635087,2032
1631632635091,2031
1631632635095,2033
1631632635099,2034
1631632635103,2035
1631632635107,2035
1631632635111,2033
1631632635115,2032
1631632635119,2031
1631632635123,2032
1631632635127,2032
1631632635131,2032
1631632635135,2031
1631632635139,2031
1631632635143,2031
1631632635147,2031
1631632635151,2031
1631632635155,2031
1631632635159,2032
1631632635163,2033
1631632635167,2035
1631632635171,2038
1631632635175,2040
1631632635179,2041
1631632635183,2040
1631632635187,2039
1631632635191,2037
1631632635195,2035
1631632635199,2034
1631632635203,2033
1631632635207,2032
1631632635211,2031
1631632635215,2029
1631632635219,2028
1631632635223,2027
1631632635227,2026
1631632635231,2026
1631632635235,2026
1631632635239,2025
1631632635243,2024
1631632635247,2022
1631632635251,2020
1631632635255,2019
1631632635259,2019
1631632635263,2019
1631632635267,2021
1631632635271,2021
1631632635275,2021
1631632635279,2021
1631632635283,2020
1631632635287,2019
1631632635291,2017
1631632635295,2015
1631632635299,2015
1631632635303,2024
1631632635307,2041
1631632635311,2059
1631632635315,2072
1631632635319,2070
1631632635323,2053
1631632635327,2029
1631632635331,2006
1631632635335,1993
1631632635339,1991
1631632635343,1998
1631632635347,2007
1631632635351,2014
1631632635355,2018
1631632635359,2020
1631632635363,2020
1631632635367,2019
1631632635371,2018
1631632635375,2018
1631632635379,2019
1631632635383,2021
1631632635387,2023
1631632635391,2024
1631632635395,2024
1631632635399,2023
1631632635403,2021
1631632635407,2021
1631632635411,2021
1631632635415,2022
1631632635419,2023
1631632635423,2024
1631632635427,2025
1631632635431,2025
1631632635435,2025
1631632635439,2026
1631632635443,2027
1631632635447,2028
1631632635451,2028
1631632635455,2028
1631632635459,2028
1631632635463,2028
1631632635467,2029
1631632635471,2029
1631632635475,2030
1631632635479,2032
1631632635483,2033
1631632635487,2034
1631632635491,2035
1631632635495,2035
1631632635499,2035
1631632635503,2036
1631632635507,2037
1631632635511,2039
1631632635515,2040
1631632635519,2042
1631632635523,2043
1631632635527,2045
1631632635531,2045
1631632635535,2045
1631632635539,2046
1631632635543,2046
1631632635547,2047
1631632635551,2048
1631632635555,2048
1631632635559,2048
1631632635563,2048
1631632635567,2048
1631632635571,2048
1631632635575,2047
1631632635579,2046
1631632635583,2045
1631632635587,2044
1631632635591,2044
1631632635595,2045
1631632635599,2047
1631632635603,2047
1631632635607,2046
1631632635611,2044
1631632635615,2042
1631632635619,2041
1631632635623,2042
1631632635627,2044
1631632635631,2045
1631632635635,2047
1631632635639,2046
1631632635643,2046
1631632635647,2045
1631632635651,2044
1631632635655,2044
1631632635659,2043
1631632635663,2044
1631632635667,2044
1631632635671,2046
1631632635675,2048
1631632635679,2049
1631632635683,2051
1631632635687,2051
1631632635691,2051
1631632635695,2050
1631632635699,2050
1631632635703,2051
1631632635707,2053
1631632635711,2054
1631632635715,2055
1631632635719,2055
1631632635723,2054
1631632635727,2054
1631632635731,2055
1631632635735,2056
1631632635739,2057
1631632635743,2058
1631632635747,2058
1631632635751,2058
1631632635755,2057
1631632635759,2057
1631632635763,2056
1631632635767,2055
1631632635771,2055
1631632635775,2055
1631632635779,2057
1631632635783,2058
1631632635787,2059
1631632635791,2060
1631632635795,2061
1631632635799,2061
1631632635803,2061
1631632635807,2060
1631632635811,2058
1631632635815,2058
1631632635819,2058
1631632635823,2059
1631632635827,2061
1631632635831,2062
1631632635835,2062
1631632635839,2062
1631632635843,2061
1631632635847,2061
1631632635851,2061
1631632635855,2061
1631632635859,2061
1631632635863,2061
1631632635867,2061
1631632635871,2061
1631632635875,2061
1631632635879,2062
1631632635883,2063
1631632635887,2064
1631632635891,2065
1631632635895,2065
1631632635899,2065
1631632635903,2064
1631632635907,2064
1631632635911,2065
1631632635915,2066
1631632635919,2066
1631632635923,2066
1631632635927,2066
1631632635931,2066
1631632635935,2067
1631632635939,2068
1631632635943,2069
1631632635947,2070
1631632635951,2070
1631632635955,2070
1631632635959,2071
1631632635963,2073
1631632635967,2076
1631632635971,2077
1631632635975,2076
1631632635979,2075
1631632635983,2073
1631632635987,2073
1631632635991,2074
1631632635995,2075
1631632635999,2075
1631632636003,2073
1631632636007,2071
1631632636011,2070
1631632636015,2070
1631632636019,2071
1631632636023,2071
1631632636027,2071
1631632636031,2069
1631632636035,2067
1631632636039,2066
1631632636043,2066
1631632636047,2067
1631632636051,2067
1631632636055,2068
1631632636059,2069
1631632636063,2070
1631632636067,2070
1631632636071,2071
1631632636075,2069
1631632636079,2066
1631632636083,2064
1631632636087,2068
1631632636091,2079
1631632636095,2096
1631632636099,2111
1631632636103,2117
1631632636107,2110
1631632636111,2092
1631632636115,2071
1631632636119,2056
1631632636123,2049
1631632636127,2050
1631632636131,2055
1631632636135,2060
1631632636139,2062
1631632636143,2065
1631632636147,2067
1631632636151,2069
1631632636155,2071
1631632636159,2072
1631632636163,2072
1631632636167,2072
1631632636171,2071
1631632636175,2070
1631632636179,2070
1631632636183,2071
1631632636187,2073
1631632636191,2074
1631632636195,2075
1631632636199,2075
1631632636203,2075
1631632636207,2075
1631632636211,2075
1631632636215,2076
1631632636219,2076
1631632636223,2077
1631632636227,2078
1631632636231,2078
1631632636235,2079
1631632636239,2080
1631632636243,2080
1631632636247,2079
1631632636251,2079
1631632636255,2078
1631632636259,2078
1631632636263,2079
1631632636267,2080
1631632636271,2082
1631632636275,2084
1631632636279,2085
1631632636283,2086
1631632636287,2086
1631632636291,2086
1631632636295,2086
1631632636299,2085
1631632636303,2086
1631632636307,2086
1631632636311,2087
1631632636315,2089
1631632636319,2091
1631632636323,2092
1631632636327,2092
1631632636331,2092
1631632636335,2092
1631632636339,2091
1631632636343,2090
1631632636347,2090
1631632636351,2089
1631632636355,2089
1631632636359,2088
1631632636363,2086
1631632636367,2086
1631632636371,2085
1631632636375,2087
1631632636379,2088
1631632636383,2089
1631632636387,2089
1631632636391,2088
1631632636395,2087
1631632636399,2084
1631632636403,2082
1631632636407,2080
1631632636411,2079
1631632636415,2079
1631632636419,2081
1631632636423,2083
1631632636427,2084
1631632636431,2084
1631632636435,2083
1631632636439,2082
1631632636443,2082
1631632636447,2081
1631632636451,2081
1631632636455,2080
1631632636459,2080
1631632636463,2080
1631632636467,2082
1631632636471,2082
1631632636475,2083
1631632636479,2083
1631632636483,2083
1631632636487,2083
1631632636491,2083
1631632636495,2083
1631632636499,2083
1631632636503,2083
1631632636507,2082
1631632636511,2082
1631632636515,2083
1631632636519,2084
1631632636523,2085
1631632636527,2085
1631632636531,2083
1631632636535,2082
1631632636539,2080
1631632636543,2080
1631632636547,2081
1631632636551,2083
1631632636555,2084
1631632636559,2083
1631632636563,2081
1631632636567,2079
1631632636571,2077
1631632636575,2077
1631632636579,2077
1631632636583,2078
1631632636587,2078
1631632636591,2077
1631632636595,2077
1631632636599,2076
1631632636603,2077
1631632636607,2078
1631632636611,2079
1631632636615,2080
1631632636619,2080
1631632636623,2079
1631632636627,2077
1631632636631,2075
1631632636635,2074
1631632636639,2073
1631632636643,2073
1631632636647,2074
1631632636651,2075
1631632636655,2076
1631632636659,2076
1631632636663,2076
1631632636667,2074
1631632636671,2073
1631632636675,2073
1631632636679,2073
1631632636683,2073
1631632636687,2074
1631632636691,2075
1631632636695,2075
1631632636699,2075
1631632636703,2075
1631632636707,2074
1631632636711,2074
1631632636715,2074
1631632636719,2074
1631632636723,2075
1631632636727,2076
1631632636731,2078
1631632636735,2079
1631632636739,2080
1631632636743,2081
1631632636747,2081
1631632636751,2081
1631632636755,2081
1631632636759,2080
1631632636763,2079
1631632636767,2078
1631632636771,2077
1631632636775,2076
1631632636779,2074
1631632636783,2072
1631632636787,2070
1631632636791,2070
1631632636795,2072
1631632636799,2073
1631632636803,2074
1631632636807,2073
1631632636811,2071
1631632636815,2068
1631632636819,2065
1631632636823,2064
1631632636827,2064
1631632636831,2065
1631632636835,2067
1631632636839,2069
1631632636843,2070
1631632636847,2070
1631632636851,2068
1631632636855,2065
1631632636859,2060
1631632636863,2061
1631632636867,2069
1631632636871,2085
1631632636875,2104
1631632636879,2118
1631632636883,2119
1631632636887,2104
1631632636891,2079
1631632636895,2055
1631632636899,2039
1631632636903,2035
1631632636907,2040
1631632636911,2048
1631632636915,2056
1631632636919,2062
1631632636923,2065
1631632636927,2066
1631632636931,2065
1631632636935,2063
1631632636939,2062
1631632636943,2062
1631632636947,2061
1631632636951,2060
1631632636955,2060
1631632636959,2060
1631632636963,2061
1631632636967,2062
1631632636971,2063
1631632636975,2064
1631632636979,2063
1631632636983,2062
1631632636987,2062
1631632636991,2062
1631632636995,2064
1631632636999,2065
1631632637003,2065
1631632637007,2065
1631632637011,2064
1631632637015,2064
1631632637019,2064
1631632637023,2064
1631632637027,2065
1631632637031,2065
1631632637035,2066
1631632637039,2067
1631632637043,2067
1631632637047,2067
1631632637051,2066
1631632637055,2066
1631632637059,2067
1631632637063,2067
1631632637067,2067
1631632637071,2067
1631632637075,2068
1631632637079,2069
1631632637083,2070
1631632637087,2071
1631632637091,2072
1631632637095,2072
1631632637099,2073
1631632637103,2073
1631632637107,2072
1631632637111,2072
1631632637115,2071
1631632637119,2070
1631632637123,2070
1631632637127,2070
1631632637131,2069
1631632637135,2069
1631632637139,2068
1631632637143,2067
1631632637147,2066
1631632637151,2064
1631632637155,2063
1631632637159,2062
1631632637163,2060
1631632637167,2060
1631632637171,2059
1631632637175,2059
1631632637179,2058
1631632637183,2057
1631632637187,2057
1631632637191,2057
1631632637195,2057
1631632637199,2058
1631632637203,2059
1631632637207,2058
1631632637211,2056
1631632637215,2055
1631632637219,2053
1631632637223,2053
1631632637227,2053
1631632637231,2053
1631632637235,2054
1631632637239,2054
1631632637243,2055
1631632637247,2055
1631632637251,2055
1631632637255,2055
1631632637259,2054
1631632637263,2054
1631632637267,2054
1631632637271,2054
1631632637275,2054
1631632637279,2054
1631632637283,2053
1631632637287,2053
1631632637291,2053
1631632637295,2054
1631632637299,2053
1631632637303,2054
1631632637307,2054
1631632637311,2054
1631632637315,2054
1631632637319,2053
1631632637323,2053
1631632637327,2052
1631632637331,2051
1631632637335,2050
1631632637339,2049
1631632637343,2049
1631632637347,2048
1631632637351,2048
1631632637355,2048
1631632637359,2048
1631632637363,2048
1631632637367,2047
1631632637371,2047
1631632637375,2047
1631632637379,2047
1631632637383,2047
1631632637387,2046
1631632637391,2046
1631632637395,2047
1631632637399,2047
1631632637403,2047
1631632637407,2046
1631632637411,2045
1631632637415,2044
1631632637419,2044
1631632637423,2044
1631632637427,2045
1631632637431,2045
1631632637435,2044
1631632637439,2043
1631632637443,2043
1631632637447,2042
1631632637451,2042
1631632637455,2042
1631632637459,2042
1631632637463,2042
1631632637467,2042
1631632637471,2041
1631632637475,2040
1631632637479,2040
1631632637483,2040
1631632637487,2040
1631632637491,2040
1631632637495,2041
1631632637499,2042
1631632637503,2042
1631632637507,2041
1631632637511,2041
1631632637515,2041
1631632637519,2042
1631632637523,2044
1631632637527,2046
1631632637531,2048
1631632637535,2048
1631632637539,2048
1631632637543,2047
1631632637547,2045
1631632637551,2044
1631632637555,2043
1631632637559,2042
1631632637563,2042
1631632637567,2041
1631632637571,2040
1631632637575,2038
1631632637579,2037
1631632637583,2036
1631632637587,2034
1631632637591,2033
1631632637595,2032
1631632637599,2032
1631632637603,2032
1631632637607,2033
1631632637611,2033
1631632637615,2033
1631632637619,2033
1631632637623,2032
1631632637627,2031
1631632637631,2029
1631632637635,2028
1631632637639,2027
1631632637643,2025
1631632637647,2023
1631632637651,2026
1631632637655,2036
1631632637659,2052
1631632637663,2070
1631632637667,2081
1631632637671,2078
1631632637675,2062
1631632637679,2038
1631632637683,2015
1631632637687,2001
1631632637691,1998
1631632637695,2004
1631632637699,2013
1631632637703,2019
1631632637707,2024
1631632637711,2027
1631632637715,2027
1631632637719,2027
1631632637723,2026
1631632637727,2026
1631632637731,2026
1631632637735,2026
1631632637739,2026
1631632637743,2026
1631632637747,2026
1631632637751,2026
1631632637755,2027
1631632637759,2027
1631632637763,2027
1631632637767,2027
1631632637771,2027
1631632637775,2028
1631632637779,2029
1631632637783,2029
1631632637787,2029
1631632637791,2029
1631632637795,2028
1631632637799,2028
1631632637803,2028
1631632637807,2029
1631632637811,2030
1631632637815,2031
1631632637819,2032
1631632637823,2033
1631632637827,2033
1631632637831,2033
1631632637835,2033
1631632637839,2034
1631632637843,2035
1631632637847,2037
1631632637851,2038
1631632637855,2038
1631632637859,2039
1631632637863,2039
1631632637867,2039
1631632637871,2040
1631632637875,2041
1631632637879,2042
1631632637883,2042
1631632637887,2043
1631632637891,2044
1631632637895,2046
1631632637899,2046
1631632637903,2045
1631632637907,2045
1631632637911,2044
1631632637915,2044
1631632637919,2044
1631632637923,2044
1631632637927,2044
1631632637931,2043
1631632637935,2042
1631632637939,2040
1631632637943,2040
1631632637947,2040
1631632637951,2040
1631632637955,2040
1631632637959,2039
1631632637963,2038
1631632637967,2037
1631632637971,2036
1631632637975,2035
1631632637979,2035
1631632637983,2035
1631632637987,2035
1631632637991,2035
1631632637995,2035
1631632637999,2035
1631632638003,2035
1631632638007,2034
1631632638011,2034
1631632638015,2035
1631632638019,2036
1631632638023,2037
1631632638027,2038
1631632638031,2038
1631632638035,2038
1631632638039,2038
1631632638043,2038
1631632638047,2038
1631632638051,2038
1631632638055,2039
1631632638059,2040
1631632638063,2041
1631632638067,2042
1631632638071,2043
1631632638075,2043
1631632638079,2043
1631632638083,2043
1631632638087,2044
1631632638091,2044
1631632638095,2044
1631632638099,2043
1631632638103,2043
1631632638107,2042
1631632638111,2043
1631632638115,2044
1631632638119,2045
1631632638123,2046
1631632638127,2046
1631632638131,2045
1631632638135,2044
1631632638139,2043
1631632638143,2042
1631632638147,2042
1631632638151,2043
1631632638155,2044
1631632638159,2045
1631632638163,2046
1631632638167,2047
1631632638171,2046
1631632638175,2045
1631632638179,2044
1631632638183,2043
1631632638187,2043
1631632638191,2044
1631632638195,2045
1631632638199,2046
1631632638203,2047
1631632638207,2047
1631632638211,2046
1631632638215,2046
1631632638219,2045
1631632638223,2045
1631632638227,2046
1631632638231,2047
1631632638235,2047
1631632638239,2047
1631632638243,2047
1631632638247,2046
1631632638251,2045
1631632638255,2045
