timestamp,green,ir,red
1631632613007,42712,255330,234163
1631632613017,42697,255402,234182
1631632613027,42703,255354,234179
1631632613037,42715,255391,234181
1631632613047,42708,255369,234179
1631632613057,42715,255389,234204
1631632613067,42715,255392,234181
1631632613077,42720,255399,234205
1631632613087,42723,255408,234210
1631632613097,42736,255458,234198
1631632613107,42730,255408,234204
1631632613117,42744,255438,234229
1631632613127,42741,255459,234261
1631632613137,42751,255479,234241
1631632613147,42759,255498,234273
1631632613157,42765,255488,234260
1631632613167,42775,255484,234258
1631632613177,42769,255503,234278
1631632613187,42778,255466,234274
1631632613197,42786,255512,234300
1631632613207,42792,255526,234295
1631632613217,42805,255550,234302
1631632613227,42802,255565,234321
1631632613237,42807,255559,234294
1631632613247,42813,255587,234328
1631632613257,42827,255551,234319
1631632613267,42835,255569,234315
1631632613277,42835,255638,234340
1631632613287,42852,255598,234336
1631632613297,42853,255588,234332
1631632613307,42865,255638,234325
1631632613317,42867,255645,234330
1631632613327,42886,255643,234326
1631632613337,42881,255620,234369
1631632613347,42904,255618,234342
1631632613357,42911,255614,234324
1631632613367,42903,255632,234339
1631632613377,42910,255645,234349
1631632613387,42908,255697,234369
1631632613397,42925,255670,234363
1631632613407,42939,255643,234372
1631632613417,42949,255701,234394
1631632613427,42957,255707,234386
1631632613437,42965,255705,234377
1631632613447,42972,255700,234380
1631632613457,42976,255734,234388
1631632613467,42981,255723,234376
1631632613477,42997,255758,234357
1631632613487,43013,255751,234379
1631632613497,43012,255768,234351
1631632613507,43023,255713,234342
1631632613517,43039,255721,234333
1631632613527,43040,255706,234313
1631632613537,43050,255667,234306
1631632613547,43039,255650,234330
1631632613557,43036,255663,234325
1631632613567,43025,255641,234327
1631632613577,43037,255671,234300
1631632613587,43015,255648,234332
1631632613597,43009,255613,234306
1631632613607,42991,255612,234308
1631632613617,42989,255608,234293
1631632613627,42976,255548,234256
1631632613637,42965,255515,234218
1631632613647,42966,255496,234203
1631632613657,42958,255462,234146
1631632613667,42940,255459,234108
1631632613677,42949,255371,234109
1631632613687,42935,255338,234080
1631632613697,42926,255328,234035
1631632613707,42923,255306,234030
1631632613717,42912,255285,233991
1631632613727,42935,255274,233970
1631632613737,42900,255230,233946
1631632613747,42907,255222,233966
1631632613757,42904,255180,233886
1631632613767,42892,255171,233870
1631632613777,42899,255150,233874
1631632613787,42898,255153,233829
1631632613797,42887,255139,233836
1631632613807,42890,255104,233812
1631632613817,42891,255081,233754
1631632613827,42892,255015,233740
1631632613837,42900,255037,233712
1631632613847,42884,255014,233690
1631632613857,42882,255006,233669
1631632613867,42882,254970,233630
1631632613877,42878,254958,233617
1631632613887,42875,254992,233613
1631632613897,42884,254940,233582
1631632613907,42874,254915,233572
1631632613917,42880,254936,233564
1631632613927,42881,254913,233585
1631632613937,42886,254916,233554
1631632613947,42888,254931,233560
1631632613957,42882,254982,233557
1631632613967,42889,254975,233598
1631632613977,42878,255002,233571
1631632613987,42895,254982,233574
1631632613997,42906,254971,233567
1631632614007,42895,254992,233555
1631632614017,42901,255025,233591
1631632614027,42905,255002,233571
1631632614037,42912,255028,233559
1631632614047,42908,255037,233538
1631632614057,42916,255045,233586
1631632614067,42917,255020,233576
1631632614077,42933,255039,233543
1631632614087,42932,255033,233565
1631632614097,42946,255013,233556
1631632614107,42944,255046,233588
1631632614117,42953,255004,233534
1631632614127,42972,255011,233558
1631632614137,42968,255027,233524
1631632614147,42968,255012,233503
1631632614157,42975,254951,233474
1631632614167,42982,254991,233486
1631632614177,42969,255030,233498
1631632614187,42976,255057,233509
1631632614197,42979,255077,233527
1631632614207,42985,255082,233513
1631632614217,42989,255082,233479
1631632614227,42980,255041,233439
1631632614237,42988,255061,233469
1631632614247,42983,255091,233440
1631632614257,42985,255107,233465
1631632614267,42979,255126,233462
1631632614277,42985,255080,233420
1631632614287,42984,255080,233395
1631632614297,42969,255053,233352
1631632614307,42957,255021,233273
1631632614317,42946,254949,233199
1631632614327,42916,254868,233094
1631632614337,42881,254729,232954
1631632614347,42850,254604,232767
1631632614357,42798,254438,232557
1631632614367,42760,254169,232287
1631632614377,42713,253939,232042
1631632614387,42673,253783,231865
1631632614397,42624,253671,231744
1631632614407,42590,253558,231577
1631632614417,42539,253452,231405
1631632614427,42500,253364,231296
1631632614437,42470,253225,231180
1631632614447,42442,253181,231098
1631632614457,42397,253166,231047
1631632614467,42402,253149,231020
1631632614477,42372,253161,230942
1631632614487,42352,253167,230956
1631632614497,42348,253178,230966
1631632614507,42347,253175,230967
1631632614517,42344,253177,230964
1631632614527,42346,253130,230930
1631632614537,42355,253130,230927
1631632614547,42349,253185,230992
1631632614557,42349,253301,231083
1631632614567,42355,253344,231098
1631632614577,42355,253317,231056
1631632614587,42367,253307,231027
1631632614597,42351,253226,230991
1631632614607,42346,253174,230898
1631632614617,42309,253184,230864
1631632614627,42295,253117,230831
1631632614637,42267,253101,230725
1631632614647,42215,253061,230698
1631632614657,42176,252969,230537
1631632614667,42131,252798,230398
1631632614677,42076,252668,230150
1631632614687,42021,252476,229936
1631632614697,41973,252289,229741
1631632614707,41924,252175,229567
1631632614717,41895,252068,229429
1631632614727,41851,252012,229306
1631632614737,41827,252000,229258
1631632614747,41810,251989,229237
1631632614757,41786,252005,229174
1631632614767,41797,251965,229150
1631632614777,41798,251926,229107
1631632614787,41806,251919,229107
1631632614797,41825,251922,229107
1631632614807,41850,251880,229064
1631632614817,41852,252001,229149
1631632614827,41883,252044,229238
1631632614837,41886,252075,229275
1631632614847,41921,252145,229300
1631632614857,41934,252198,229322
1631632614867,41960,252170,229359
1631632614877,41979,252246,229376
1631632614887,41997,252328,229523
1631632614897,42015,252487,229673
1631632614907,42031,252637,229855
1631632614917,42055,252864,230032
1631632614927,42075,252989,230105
1631632614937,42099,252998,230154
1631632614947,42133,252979,230140
1631632614957,42145,253007,230134
1631632614967,42161,253023,230138
1631632614977,42168,252892,229956
1631632614987,42169,252487,229656
1631632614997,42160,252252,229557
1631632615007,42151,252260,229538
1631632615017,42151,252502,229785
1631632615027,42147,252167,229469
1631632615037,42155,252252,229560
1631632615047,42138,252758,229995
1631632615057,42172,253557,230726
1631632615067,42286,254891,231796
1631632615077,42515,256544,233078
1631632615087,42662,256687,233006
1631632615097,42673,255562,232050
1631632615107,42561,254215,230809
1631632615117,42468,253385,230083
1631632615127,42372,253149,229850
1631632615137,42337,253152,229822
1631632615147,42318,253099,229771
1631632615157,42308,253050,229733
1631632615167,42286,253035,229744
1631632615177,42287,253158,229852
1631632615187,42286,253311,229989
1631632615197,42299,253555,230191
1631632615207,42307,253790,230377
1631632615217,42324,254036,230554
1631632615227,42338,254244,230733
1631632615237,42360,254393,230891
1631632615247,42373,254408,230882
1631632615257,42389,254247,230735
1631632615267,42372,254055,230644
1631632615277,42372,253939,230560
1631632615287,42390,253989,230548
1631632615297,42385,254114,230794
1631632615307,42397,254533,231135
1631632615317,42412,254858,231517
1631632615327,42456,255233,231885
1631632615337,42491,255524,232261
1631632615347,42561,256154,232978
1631632615357,42699,257413,234161
1631632615367,42871,258420,234924
1631632615377,43017,259227,235437
1631632615387,43175,260176,235809
1631632615397,43207,259526,234272
1631632615407,43269,258896,233297
1631632615417,43232,257379,231652
1631632615427,43239,256690,230644
1631632615437,43246,256023,229653
1631632615447,43248,255290,228650
1631632615457,43264,254807,227780
1631632615467,43198,253484,226155
1631632615477,43102,252326,224770
1631632615487,43004,251257,223764
1631632615497,42907,250535,222823
1631632615507,42905,249975,222479
1631632615517,42844,249627,222123
1631632615527,42906,250480,222971
1631632615537,42956,252125,224640
1631632615547,43012,253307,225575
1631632615557,43032,253181,225554
1631632615567,43052,253239,225567
1631632615577,43047,253382,225739
1631632615587,43031,253933,226183
1631632615597,42915,254747,226696
1631632615607,42777,255275,227057
1631632615617,42648,256177,227694
1631632615627,42489,257263,228753
1631632615637,42392,258128,229767
1631632615647,42274,258939,230722
1631632615657,42180,259515,231053
1631632615667,42144,259614,231061
1631632615677,42191,259644,231010
1631632615687,42355,259034,230601
1631632615697,42519,258312,230080
1631632615707,42641,257673,229479
1631632615717,42803,256961,228855
1631632615727,42929,256070,228080
1631632615737,43060,255534,227747
1631632615747,43197,255515,227941
1631632615757,43170,254951,227460
1631632615767,43089,254790,227342
1631632615777,42996,255172,227675
1631632615787,42876,255367,227905
1631632615797,42793,255610,228211
1631632615807,42677,255780,228576
1631632615817,42550,255734,228766
1631632615827,42436,255447,228797
1631632615837,42362,255077,228862
1631632615847,42319,254616,228868
1631632615857,42332,253917,228829
1631632615867,42330,253423,228857
1631632615877,42218,253232,228956
1631632615887,41925,253715,229224
1631632615897,41622,255173,230062
1631632615907,41368,256497,230897
1631632615917,41265,257467,231579
1631632615927,41193,258364,232223
1631632615937,41170,259301,232964
1631632615947,41132,259993,233457
1631632615957,41207,260089,233377
1631632615967,41301,259647,232998
1631632615977,41392,259151,232603
1631632615987,41484,258726,232174
1631632615997,41572,258370,231867
1631632616007,41746,258647,232279
1631632616017,41947,258725,232617
1631632616027,42112,258434,232610
1631632616037,42273,257911,232327
1631632616047,42429,257073,231809
1631632616057,42577,255790,230909
1631632616067,42752,254115,229609
1631632616077,42968,251858,228145
1631632616087,43267,249024,226282
1631632616097,43628,246038,224586
1631632616107,44084,243013,223079
1631632616117,44679,240504,222636
1631632616127,45561,239173,223640
1631632616137,46621,239391,226472
1631632616147,47949,241290,230742
1631632616157,49244,243438,234805
1631632616167,50437,245475,238531
1631632616177,51451,246946,241437
1631632616187,52214,247472,243324
1631632616197,52951,247888,244988
1631632616207,53699,248084,246542
1631632616217,54582,248307,248575
1631632616227,55729,249185,251257
1631632616237,57010,250858,254842
1631632616247,58401,253559,259219
1631632616257,59799,256858,264096
1631632616267,60779,259333,267852
1631632616277,61321,261168,270611
1631632616287,61613,262429,272469
1631632616297,61684,262933,273454
1631632616307,61599,262898,273755
1631632616317,61472,262624,273610
1631632616327,61303,262058,273104
1631632616337,61076,261249,272177
1631632616347,60773,260323,271126
1631632616357,60432,259226,269818
1631632616367,60053,258157,268656
1631632616377,59683,257343,267577
1631632616387,59361,256569,266700
1631632616397,58958,255620,265634
1631632616407,58472,254618,264406
1631632616417,57841,253351,262727
1631632616427,56999,251671,260392
1631632616437,55929,249486,257247
1631632616447,54751,247257,253782
1631632616457,53366,244793,249806
1631632616467,51769,242417,245232
1631632616477,50200,240566,241156
1631632616487,48615,238405,236527
1631632616497,47235,236327,232693
1631632616507,46002,234784,229057
1631632616517,44634,232700,224526
1631632616527,43246,230285,219693
1631632616537,42132,228484,216027
1631632616547,41316,227722,213623
1631632616557,40835,228812,213398
1631632616567,40870,231540,215087
1631632616577,40927,235362,217829
1631632616587,41144,239303,220602
1631632616597,41279,242737,223891
1631632616607,41184,245671,226517
1631632616617,41068,248405,229115
1631632616627,40997,250470,230929
1631632616637,41011,251512,231826
1631632616647,41102,252028,232332
1631632616657,41197,252455,232688
1631632616667,41202,253125,233360
1631632616677,41135,253981,234165
1631632616687,41118,254409,234671
1631632616697,41238,254597,234933
1631632616707,41381,254494,234948
1631632616717,41515,254486,235029
1631632616727,41639,254479,235174
1631632616737,41728,254536,235444
1631632616747,41837,254373,235802
1631632616757,41940,254292,236279
1631632616767,42044,253785,236655
1631632616777,42144,252754,236519
1631632616787,42199,251453,236323
1631632616797,42220,250095,236231
1631632616807,42417,248974,236507
1631632616817,42902,248660,237817
1631632616827,43914,249555,240798
1631632616837,45220,251621,244944
1631632616847,46710,254297,249550
1631632616857,48425,257401,254713
1631632616867,50527,260950,260522
1631632616877,53132,265527,267471
1631632616887,56415,271481,276358
1631632616897,59718,277524,285000
1631632616907,61986,282292,291957
1631632616917,63672,286410,297925
1631632616927,64872,290010,302759
1631632616937,65825,293318,306972
1631632616947,66472,296508,309735
1631632616957,66761,299201,311887
1631632616967,66561,301408,312750
1631632616977,66147,303135,312488
1631632616987,65221,304288,311016
1631632616997,63796,304933,307433
1631632617007,62525,305408,304632
1631632617017,61461,305704,302570
1631632617027,60436,305766,300525
1631632617037,59410,305205,298320
1631632617047,58449,304545,296534
1631632617057,57391,303196,294441
1631632617067,56291,301363,292142
1631632617077,55263,299361,289738
1631632617087,54254,296725,287012
1631632617097,53213,294108,284608
1631632617107,52065,291912,282409
1631632617117,50530,289644,279703
1631632617127,48390,287014,275778
1631632617137,46601,284551,272477
1631632617147,45535,281526,269256
1631632617157,45679,280304,266342
1631632617167,45541,280176,265250
1631632617177,45591,280348,264641
1631632617187,45689,280817,264113
1631632617197,46061,281537,263730
1631632617207,45956,280576,262477
1631632617217,45718,279442,261076
1631632617227,45468,278490,259911
1631632617237,45244,277913,258874
1631632617247,45070,277131,257785
1631632617257,44686,276108,256649
1631632617267,44413,275579,255730
1631632617277,44214,275023,254955
1631632617287,43935,274411,254311
1631632617297,43748,274096,253699
1631632617307,43567,273778,253445
1631632617317,43404,273576,253141
1631632617327,43294,273565,253068
1631632617337,43231,273633,253044
1631632617347,43199,273729,253110
1631632617357,43199,273844,253264
1631632617367,43223,274057,253437
1631632617377,43243,274224,253519
1631632617387,43253,274364,253582
1631632617397,43282,274434,253633
1631632617407,43321,274469,253678
1631632617417,43324,274419,253750
1631632617427,43322,274313,253680
1631632617437,43319,274129,253502
1631632617447,43326,273938,253274
1631632617457,43302,273709,253042
1631632617467,43256,273358,252661
1631632617477,43183,273018,252250
1631632617487,43113,272605,251838
1631632617497,43002,272208,251407
1631632617507,42882,271846,251003
1631632617517,42759,271530,250635
1631632617527,42650,271188,250279
1631632617537,42538,270935,249955
1631632617547,42424,270696,249709
1631632617557,42334,270453,249464
1631632617567,42249,270282,249247
1631632617577,42170,270146,249111
1631632617587,42126,270043,249063
1631632617597,42066,270004,248991
1631632617607,42032,269961,249017
1631632617617,42010,269946,248983
1631632617627,42006,269903,248980
1631632617637,41995,269845,249022
1631632617647,41956,269802,249023
1631632617657,41910,269791,248982
1631632617667,41888,269840,249033
1631632617677,41903,269765,249089
1631632617687,41918,269691,249053
1631632617697,41946,269610,248971
1631632617707,41954,269519,248945
1631632617717,41931,269383,248872
1631632617727,41920,269300,248768
1631632617737,41911,269200,248667
1631632617747,41883,269004,248551
1631632617757,41855,268855,248383
1631632617767,41810,268703,248210
1631632617777,41781,268509,248062
1631632617787,41771,268378,247959
1631632617797,41739,268184,247756
1631632617807,41698,268056,247626
1631632617817,41640,267950,247490
1631632617827,41620,267848,247444
1631632617837,41569,267770,247372
1631632617847,41543,267690,247350
1631632617857,41515,267701,247343
1631632617867,41475,267697,247322
1631632617877,41466,267620,247314
1631632617887,41441,267620,247359
1631632617897,41438,267665,247374
1631632617907,41431,267653,247421
1631632617917,41419,267672,247405
1631632617927,41396,267592,247431
1631632617937,41376,267573,247436
1631632617947,41350,267509,247438
1631632617957,41336,267447,247396
1631632617967,41302,267356,247368
1631632617977,41279,267305,247292
1631632617987,41256,267169,247246
1631632617997,41240,267111,247183
1631632618007,41215,267069,247084
1631632618017,41195,266927,246997
1631632618027,41158,266854,246915
1631632618037,41121,266734,246861
1631632618047,41103,266712,246830
1631632618057,41075,266671,246816
1631632618067,41045,266608,246773
1631632618077,40998,266605,246802
1631632618087,40971,266558,246830
1631632618097,40938,266604,246868
1631632618107,41104,266636,246900
1631632618117,41098,266667,246915
1631632618127,41086,266677,246958
1631632618137,41067,266676,246962
1631632618147,41045,266645,246986
1631632618157,41028,266638,246945
1631632618167,41015,266631,246968
1631632618177,41017,266574,246910
1631632618187,41025,266493,246896
1631632618197,41032,266397,246830
1631632618207,41032,266282,246727
1631632618217,41024,266216,246625
1631632618227,41006,266130,246526
1631632618237,40984,266007,246401
1631632618247,40966,265941,246326
1631632618257,40953,265879,246221
1631632618267,40944,265800,246181
1631632618277,40938,265771,246165
1631632618287,40930,265770,246095
1631632618297,40912,265712,246073
1631632618307,40894,265690,246094
1631632618317,40875,265712,246100
1631632618327,40859,265728,246093
1631632618337,40853,265717,246153
1631632618347,40843,265778,246160
1631632618357,40852,265775,246193
1631632618367,40866,265749,246154
1631632618377,40853,265837,246207
1631632618387,40858,265855,246247
1631632618397,40871,265832,246279
1631632618407,40890,265847,246290
1631632618417,40905,265851,246335
1631632618427,40925,265808,246285
1631632618437,40936,265790,246285
1631632618447,40951,265800,246233
1631632618457,40969,265724,246229
1631632618467,40970,265723,246216
1631632618477,40980,265700,246205
1631632618487,40981,265648,246173
1631632618497,40985,265647,246125
1631632618507,40995,265560,246123
1631632618517,40999,265621,246134
1631632618527,41021,265552,246134
1631632618537,41031,265584,246171
1631632618547,41032,265579,246234
1631632618557,41041,265597,246256
1631632618567,41047,265619,246304
1631632618577,41069,265653,246333
1631632618587,41087,265658,246359
1631632618597,41110,265643,246388
1631632618607,41124,265626,246387
1631632618617,41139,265607,246436
1631632618627,41137,265584,246414
1631632618637,41133,265544,246423
1631632618647,41136,265465,246430
1631632618657,41130,265478,246423
1631632618667,41105,265389,246416
1631632618677,41097,265368,246408
1631632618687,41090,265279,246385
1631632618697,41081,265269,246361
1631632618707,41059,265209,246362
1631632618717,41047,265156,246317
1631632618727,41039,265130,246330
1631632618737,41027,265080,246297
1631632618747,41011,265039,246249
1631632618757,41011,265005,246261
1631632618767,40998,264976,246228
1631632618777,40992,264946,246203
1631632618787,40975,264920,246220
1631632618797,40973,264823,246186
1631632618807,40965,264780,246181
1631632618817,40953,264771,246140
1631632618827,40943,264696,246139
1631632618837,40935,264692,246127
1631632618847,40939,264673,246105
1631632618857,40917,264659,246100
1631632618867,40908,264653,246062
1631632618877,40907,264582,246053
1631632618887,40900,264570,246048
1631632618897,40892,264514,246003
1631632618907,40882,264498,246013
1631632618917,40873,264463,245953
1631632618927,40855,264406,245939
1631632618937,40832,264390,245908
1631632618947,40835,264348,245858
1631632618957,40815,264303,245798
1631632618967,40793,264255,245746
1631632618977,40765,264174,245701
1631632618987,40726,264103,245618
1631632618997,40700,264048,245526
1631632619007,40652,263948,245389
1631632619017,40579,263831,245255
1631632619027,40485,263674,245020
1631632619037,40413,263505,244883
1631632619047,40342,263392,244732
1631632619057,40266,263299,244599
1631632619067,40217,263225,244470
1631632619077,40165,263154,244350
1631632619087,40121,263111,244242
1631632619097,40079,263000,244159
1631632619107,40057,263002,244097
1631632619117,40025,262930,244029
1631632619127,39999,262904,243942
1631632619137,39979,262877,243940
1631632619147,39972,262861,243886
1631632619157,39976,262822,243881
1631632619167,39985,262818,243858
1631632619177,39974,262861,243828
1631632619187,39979,262863,243815
1631632619197,39986,262864,243843
1631632619207,39997,262865,243874
1631632619217,40010,262881,243882
1631632619227,40021,262888,243935
1631632619237,40044,262919,243917
1631632619247,40073,262935,243980
1631632619257,40083,262986,244024
1631632619267,40105,263028,244037
1631632619277,40135,263017,244057
1631632619287,40162,263043,244086
1631632619297,40187,263045,244119
1631632619307,40211,263017,244141
1631632619317,40225,263068,244163
1631632619327,40239,263041,244158
1631632619337,40251,262976,244180
1631632619347,40235,262986,244184
1631632619357,40238,262968,244211
1631632619367,40221,262991,244210
1631632619377,40219,262953,244199
1631632619387,40203,262954,244203
1631632619397,40188,262937,244210
1631632619407,40172,262910,244201
1631632619417,40165,262937,244221
1631632619427,40167,262876,244192
1631632619437,40157,262880,244186
1631632619447,40149,262876,244217
1631632619457,40136,262845,244183
1631632619467,40128,262818,244192
1631632619477,40126,262810,244173
1631632619487,40105,262793,244172
1631632619497,40099,262791,244147
1631632619507,40095,262780,244125
1631632619517,40082,262736,244140
1631632619527,40080,262720,244107
1631632619537,40087,262697,244087
1631632619547,40080,262684,244083
1631632619557,40066,262709,244064
1631632619567,40063,262660,244065
1631632619577,40077,262637,244048
1631632619587,40062,262614,244047
1631632619597,40056,262630,244054
1631632619607,40063,262579,244017
1631632619617,40060,262593,244051
1631632619627,40049,262617,243999
1631632619637,40053,262575,244028
1631632619647,40060,262588,243969
1631632619657,40049,262584,243995
1631632619667,40040,262496,243949
1631632619677,40031,262562,243925
1631632619687,40022,262508,243909
1631632619697,40014,262461,243905
1631632619707,40013,262454,243855
1631632619717,40007,262457,243826
1631632619727,39999,262473,243808
1631632619737,40002,262465,243778
1631632619747,39998,262419,243785
1631632619757,39998,262412,243720
1631632619767,40002,262374,243735
1631632619777,40006,262357,243709
1631632619787,40014,262347,243731
1631632619797,40003,262391,243702
1631632619807,40018,262402,243725
1631632619817,40020,262415,243729
1631632619827,40021,262417,243702
1631632619837,40051,262461,243730
1631632619847,40040,262464,243755
1631632619857,40053,262491,243754
1631632619867,40065,262538,243750
1631632619877,40076,262506,243747
1631632619887,40079,262520,243766
1631632619897,40091,262553,243762
1631632619907,40106,262531,243749
1631632619917,40112,262515,243781
1631632619927,40125,262541,243760
1631632619937,40142,262561,243752
1631632619947,40150,262541,243757
1631632619957,40158,262561,243750
1631632619967,40171,262587,243773
1631632619977,40192,262558,243791
1631632619987,40207,262572,243782
1631632619997,40215,262587,243782
1631632620007,40226,262564,243777
1631632620017,40217,262575,243793
1631632620027,40207,262492,243753
1631632620037,40195,262452,243759
1631632620047,40184,262490,243760
1631632620057,40169,262437,243754
1631632620067,40167,262450,243761
1631632620077,40168,262454,243743
1631632620087,40158,262472,243775
1631632620097,40159,262458,243798
1631632620107,40151,262456,243830
1631632620117,40150,262426,243816
1631632620127,40150,262420,243833
1631632620137,40169,262402,243836
1631632620147,40153,262379,243815
1631632620157,40159,262380,243844
1631632620167,40139,262374,243819
1631632620177,40150,262381,243800
1631632620187,40155,262340,243784
1631632620197,40145,262372,243795
1631632620207,40152,262375,243821
1631632620217,40153,262352,243818
1631632620227,40156,262338,243777
1631632620237,40158,262335,243773
1631632620247,40163,262339,243759
1631632620257,40167,262328,243806
1631632620267,40175,262331,243803
1631632620277,40189,262356,243796
1631632620287,40203,262332,243833
1631632620297,40205,262362,243881
1631632620307,40226,262404,243877
1631632620317,40231,262422,243915
1631632620327,40221,262401,243904
1631632620337,40247,262416,243907
1631632620347,40254,262404,243908
1631632620357,40259,262407,243893
1631632620367,40265,262398,243901
1631632620377,40272,262396,243914
1631632620387,40285,262383,243895
1631632620397,40276,262415,243873
1631632620407,40300,262386,243884
1631632620417,40299,262414,243925
1631632620427,40296,262392,243846
1631632620437,40315,262415,243884
1631632620447,40327,262382,243845
1631632620457,40312,262431,243881
1631632620467,40337,262385,243870
1631632620477,40364,262403,243871
1631632620487,40372,262427,243841
1631632620497,40371,262448,243854
1631632620507,40382,262430,243874
1631632620517,40393,262415,243858
1631632620527,40408,262451,243894
1631632620537,40419,262451,243864
1631632620547,40428,262454,243871
1631632620557,40442,262420,243877
1631632620567,40457,262440,243914
1631632620577,40469,262445,243904
1631632620587,40470,262464,243912
1631632620597,40479,262483,243858
1631632620607,40497,262456,243887
1631632620617,40512,262471,243881
1631632620627,40512,262474,243893
1631632620637,40512,262453,243874
1631632620647,40534,262471,243892
1631632620657,40547,262441,243882
1631632620667,40560,262467,243850
1631632620677,40564,262428,243875
1631632620687,40579,262474,243879
1631632620697,40598,262414,243869
1631632620707,40600,262446,243874
1631632620717,40595,262407,243847
1631632620727,40591,262316,243827
1631632620737,40577,262291,243812
1631632620747,40563,262271,243809
1631632620757,40550,262229,243765
1631632620767,40536,262205,243755
1631632620777,40533,262120,243742
1631632620787,40527,262128,243736
1631632620797,40515,262111,243714
1631632620807,40502,262120,243742
1631632620817,40497,262119,243730
1631632620827,40499,262125,243719
1631632620837,40483,262146,243750
1631632620847,40476,262130,243766
1631632620857,40482,262102,243740
1631632620867,40472,262122,243743
1631632620877,40474,262088,243756
1631632620887,40475,262080,243757
1631632620897,40473,262038,243722
1631632620907,40476,262025,243726
1631632620917,40477,261990,243694
1631632620927,40481,262016,243723
1631632620937,40473,262063,243714
1631632620947,40484,262026,243691
1631632620957,40497,261976,243699
1631632620967,40499,261986,243678
1631632620977,40483,262016,243673
1631632620987,40498,261970,243700
1631632620997,40499,261988,243707
1631632621007,40509,262053,243732
1631632621017,40513,262018,243716
1631632621027,40527,262064,243704
1631632621037,40539,262036,243742
1631632621047,40541,262022,243737
1631632621057,40546,262046,243718
1631632621067,40550,262008,243712
1631632621077,40543,262028,243704
1631632621087,40550,262019,243692
1631632621097,40546,261998,243685
1631632621107,40560,262010,243706
1631632621117,40568,261993,243685
1631632621127,40566,261972,243679
1631632621137,40590,261973,243668
1631632621147,40588,261934,243690
1631632621157,40590,261983,243687
1631632621167,40602,261979,243641
1631632621177,40608,261981,243649
1631632621187,40620,261962,243654
1631632621197,40627,261954,243625
1631632621207,40621,261983,243629
1631632621217,40639,261967,243649
1631632621227,40650,261953,243603
1631632621237,40647,261980,243625
1631632621247,40652,262001,243602
1631632621257,40652,261974,243597
1631632621267,40663,261967,243598
1631632621277,40691,261958,243599
1631632621287,40687,261970,243568
1631632621297,40693,261956,243561
1631632621307,40694,261978,243570
1631632621317,40700,261980,243548
1631632621327,40710,261966,243564
1631632621337,40718,261938,243542
1631632621347,40731,261933,243539
1631632621357,40738,261969,243529
1631632621367,40747,261956,243529
1631632621377,40745,261950,243516
1631632621387,40772,261915,243498
1631632621397,40777,261987,243533
1631632621407,40796,261936,243495
1631632621417,40800,261896,243493
1631632621427,40809,261900,243487
1631632621437,40803,261903,243496
1631632621447,40807,261901,243506
1631632621457,40803,261835,243517
1631632621467,40781,261815,243491
1631632621477,40764,261792,243491
1631632621487,40758,261809,243457
1631632621497,40746,261786,243463
1631632621507,40727,261739,243467
1631632621517,40737,261739,243457
1631632621527,40718,261717,243440
1631632621537,40717,261708,243446
1631632621547,40708,261640,243397
1631632621557,40704,261665,243407
1631632621567,40686,261679,243377
1631632621577,40680,261617,243344
1631632621587,40690,261569,243340
1631632621597,40685,261629,243281
1631632621607,40675,261583,243283
1631632621617,40670,261558,243262
1631632621627,40674,261590,243251
1631632621637,40664,261567,243290
1631632621647,40660,261532,243225
1631632621657,40653,261502,243180
1631632621667,40646,261484,243200
1631632621677,40644,261483,243139
1631632621687,40642,261417,243134
1631632621697,40625,261407,243106
1631632621707,40617,261383,243035
1631632621717,40598,261367,243056
1631632621727,40602,261381,243002
1631632621737,40595,261339,242978
1631632621747,40580,261341,242957
1631632621757,40593,261313,242913
1631632621767,40573,261314,242938
1631632621777,40582,261276,242890
1631632621787,40568,261238,242879
1631632621797,40563,261266,242852
1631632621807,40567,261230,242809
1631632621817,40558,261245,242797
1631632621827,40568,261237,242781
1631632621837,40561,261204,242784
1631632621847,40567,261205,242759
1631632621857,40571,261184,242744
1631632621867,40579,261179,242744
1631632621877,40571,261209,242752
1631632621887,40580,261193,242716
1631632621897,40574,261229,242685
1631632621907,40578,261220,242709
1631632621917,40586,261208,242669
1631632621927,40583,261182,242674
1631632621937,40602,261167,242646
1631632621947,40591,261210,242645
1631632621957,40597,261189,242646
1631632621967,40607,261162,242606
1631632621977,40607,261194,242582
1631632621987,40613,261174,242574
1631632621997,40610,261176,242563
1631632622007,40633,261185,242550
1631632622017,40617,261158,242529
1631632622027,40607,261133,242484
1631632622037,40612,261154,242480
1631632622047,40593,261098,242416
1631632622057,40595,261070,242428
1631632622067,40589,261078,242359
1631632622077,40610,261060,242381
1631632622087,40609,261042,242339
1631632622097,40597,260975,242275
1631632622107,40588,261010,242243
1631632622117,40572,260910,242187
1631632622127,40549,260861,242175
1631632622137,40534,260868,242097
1631632622147,40508,260813,242071
1631632622157,40492,260747,242060
1631632622167,40481,260733,242022
1631632622177,40458,260693,241946
1631632622187,40439,260655,241916
1631632622197,40428,260629,241908
1631632622207,40420,260631,241869
1631632622217,40416,260632,241851
1631632622227,40420,260599,241836
1631632622237,40390,260608,241826
1631632622247,40393,260595,241795
1631632622257,40394,260607,241769
1631632622267,40407,260557,241742
1631632622277,40400,260552,241712
1631632622287,40394,260512,241687
1631632622297,40384,260457,241648
1631632622307,40375,260438,241615
1631632622317,40370,260420,241571
1631632622327,40379,260418,241540
1631632622337,40375,260419,241536
1631632622347,40376,260363,241518
1631632622357,40364,260381,241449
1631632622367,40360,260361,241461
1631632622377,40356,260373,241398
1631632622387,40345,260308,241365
1631632622397,40339,260285,241312
1631632622407,40322,260262,241217
1631632622417,40307,260182,241169
1631632622427,40302,260117,241132
1631632622437,40273,260098,241048
1631632622447,40256,260034,240944
1631632622457,40240,259988,240895
1631632622467,40222,259963,240871
1631632622477,40220,259940,240780
1631632622487,40204,259889,240708
1631632622497,40185,259854,240661
1631632622507,40171,259780,240581
1631632622517,40155,259793,240501
1631632622527,40146,259696,240433
1631632622537,40115,259642,240359
1631632622547,40090,259624,240267
1631632622557,40074,259549,240205
1631632622567,40057,259481,240124
1631632622577,40034,259485,240027
1631632622587,40016,259469,239984
1631632622597,40043,259441,239942
1631632622607,40023,259432,239897
1631632622617,40020,259357,239833
1631632622627,40008,259342,239776
1631632622637,39984,259294,239688
1631632622647,39964,259251,239583
1631632622657,39950,259198,239521
1631632622667,39949,259144,239430
1631632622677,39935,259125,239366
1631632622687,39922,259094,239291
1631632622697,39925,259071,239235
1631632622707,39912,259023,239181
1631632622717,39900,258978,239104
1631632622727,39909,258955,239058
1631632622737,39890,258889,238963
1631632622747,39886,258818,238890
1631632622757,39864,258800,238822
1631632622767,39851,258689,238761
1631632622777,39834,258640,238615
1631632622787,39806,258570,238562
1631632622797,39776,258516,238506
1631632622807,39752,258513,238432
1631632622817,39733,258458,238378
1631632622827,39719,258353,238303
1631632622837,39704,258368,238233
1631632622847,39680,258313,238170
1631632622857,39675,258261,238143
1631632622867,39670,258235,238109
1631632622877,39668,258204,238079
1631632622887,39647,258191,237988
1631632622897,39634,258139,237959
1631632622907,39635,258113,237873
1631632622917,39623,258036,237862
1631632622927,39604,258027,237738
1631632622937,39601,257936,237687
1631632622947,39596,257954,237673
1631632622957,39602,257922,237644
1631632622967,39605,257872,237612
1631632622977,39611,257883,237585
1631632622987,39622,257870,237599
1631632622997,39643,257867,237575
1631632623007,39648,257840,237560
1631632623017,39662,257820,237686
1631632623027,39668,257838,237672
1631632623037,39681,257837,237636
1631632623047,39677,257797,237612
1631632623057,39685,257820,237605
1631632623067,39685,257822,237608
1631632623077,39691,257805,237563
1631632623087,39698,257790,237563
1631632623097,39710,257835,237570
1631632623107,39718,257815,237563
1631632623117,39739,257869,237595
1631632623127,39759,257871,237611
1631632623137,39778,257903,237601
1631632623147,39794,257907,237653
1631632623157,39819,257889,237614
1631632623167,39827,257896,237610
1631632623177,39834,257910,237604
1631632623187,39847,257853,237561
1631632623197,39861,257868,237574
1631632623207,39872,257850,237548
1631632623217,39877,257846,237529
1631632623227,39877,257855,237490
1631632623237,39895,257797,237467
1631632623247,39910,257820,237458
1631632623257,39913,257800,237427
1631632623267,39916,257765,237401
1631632623277,39913,257751,237388
1631632623287,39920,257715,237371
1631632623297,39914,257749,237319
1631632623307,39923,257687,237317
1631632623317,39925,257674,237284
1631632623327,39923,257695,237245
1631632623337,39941,257687,237233
1631632623347,39936,257699,237242
1631632623357,39945,257657,237198
1631632623367,39949,257652,237174
1631632623377,39952,257681,237179
1631632623387,39967,257629,237152
1631632623397,39964,257652,237176
1631632623407,39982,257670,237116
1631632623417,39990,257627,237129
1631632623427,39996,257590,237103
1631632623437,40003,257572,237079
1631632623447,39994,257513,237032
1631632623457,39976,257548,237021
1631632623467,39969,257476,237002
1631632623477,39958,257489,236977
1631632623487,39945,257441,236968
1631632623497,39939,257438,236958
1631632623507,39914,257374,236955
1631632623517,39911,257406,236941
1631632623527,39910,257396,236949
1631632623537,39916,257414,236947
1631632623547,39918,257391,236953
1631632623557,39916,257393,236941
1631632623567,39915,257387,236908
1631632623577,39915,257362,236909
1631632623587,39914,257323,236912
1631632623597,39913,257329,236872
1631632623607,39920,257301,236887
1631632623617,39914,257248,236849
1631632623627,39911,257287,236837
1631632623637,39906,257299,236835
1631632623647,39915,257256,236826
1631632623657,39921,257275,236842
1631632623667,39925,257299,236850
1631632623677,39932,257309,236853
1631632623687,39940,257315,236865
1631632623697,39959,257273,236874
1631632623707,39949,257315,236883
1631632623717,39954,257300,236874
1631632623727,39947,257289,236835
1631632623737,39944,257279,236851
1631632623747,39951,257258,236827
1631632623757,39946,257209,236834
1631632623767,39954,257231,236836
1631632623777,39957,257264,236809
1631632623787,39953,257215,236804
1631632623797,39955,257257,236818
1631632623807,39960,257233,236786
1631632623817,39972,257256,236824
1631632623827,39982,257237,236804
1631632623837,39988,257281,236827
1631632623847,39995,257290,236859
1631632623857,40000,257275,236882
1631632623867,40017,257314,236863
1631632623877,40040,257303,236869
1631632623887,40041,257297,236891
1631632623897,40045,257288,236880
1631632623907,40051,257294,236894
1631632623917,40050,257282,236865
1631632623927,40062,257334,236845
1631632623937,40075,257306,236862
1631632623947,40075,257288,236870
1631632623957,40076,257298,236847
1631632623967,40098,257304,236870
1631632623977,40092,257327,236868
1631632623987,40107,257345,236885
1631632623997,40108,257333,236906
1631632624007,40125,257386,236922
1631632624017,40123,257344,236929
1631632624027,40122,257371,236908
1631632624037,40142,257393,236945
1631632624047,40153,257443,236940
1631632624057,40161,257431,236949
1631632624067,40169,257433,236995
1631632624077,40178,257402,236958
1631632624087,40183,257400,236956
1631632624097,40187,257414,236982
1631632624107,40193,257403,236995
1631632624117,40189,257383,236985
1631632624127,40182,257378,237022
1631632624137,40181,257407,237067
1631632624147,40164,257379,237094
1631632624157,40164,257403,237085
1631632624167,40152,257401,237114
1631632624177,40140,257437,237105
1631632624187,40152,257408,237144
1631632624197,40145,257400,237178
1631632624207,40144,257426,237152
1631632624217,40126,257477,237191
1631632624227,40135,257413,237170
1631632624237,40119,257435,237186
1631632624247,40121,257414,237211
1631632624257,40121,257495,237203
1631632624267,40121,257467,237199
1631632624277,40121,257470,237232
1631632624287,40120,257455,237216
1631632624297,40129,257475,237215
1631632624307,40134,257410,237243
1631632624317,40129,257432,237221
1631632624327,40139,257482,237252
1631632624337,40141,257468,237260
1631632624347,40139,257436,237262
1631632624357,40125,257432,237245
1631632624367,40145,257437,237264
1631632624377,40135,257458,237275
1631632624387,40143,257469,237272
1631632624397,40136,257481,237262
1631632624407,40148,257452,237279
1631632624417,40132,257506,237287
1631632624427,40133,257502,237316
1631632624437,40144,257507,237331
1631632624447,40134,257541,237311
1631632624457,40154,257518,237315
1631632624467,40154,257538,237339
1631632624477,40162,257538,237342
1631632624487,40153,257521,237351
1631632624497,40155,257488,237344
1631632624507,40150,257525,237365
1631632624517,40156,257511,237345
1631632624527,40180,257549,237351
1631632624537,40185,257532,237368
1631632624547,40195,257531,237358
1631632624557,40190,257591,237361
1631632624567,40195,257583,237354
1631632624577,40210,257577,237382
1631632624587,40206,257612,237393
1631632624597,40216,257621,237423
1631632624607,40224,257614,237414
1631632624617,40227,257592,237418
1631632624627,40229,257614,237433
1631632624637,40237,257675,237430
1631632624647,40240,257689,237451
1631632624657,40250,257672,237459
1631632624667,40261,257720,237454
1631632624677,40256,257736,237457
1631632624687,40256,257712,237456
1631632624697,40272,257709,237449
1631632624707,40293,257693,237447
1631632624717,40289,257710,237416
1631632624727,40298,257663,237429
1631632624737,40306,257701,237442
1631632624747,40301,257696,237396
1631632624757,40301,257657,237439
1631632624767,40298,257659,237415
1631632624777,40282,257587,237429
1631632624787,40266,257587,237417
1631632624797,40244,257613,237364
1631632624807,40223,257541,237337
1631632624817,40209,257481,237308
1631632624827,40183,257472,237320
1631632624837,40190,257468,237286
1631632624847,40153,257457,237283
1631632624857,40158,257440,237264
1631632624867,40140,257440,237272
1631632624877,40130,257424,237237
1631632624887,40123,257404,237250
1631632624897,40131,257432,237251
1631632624907,40129,257440,237269
1631632624917,40125,257432,237280
1631632624927,40135,257459,237293
1631632624937,40145,257455,237333
1631632624947,40146,257438,237304
1631632624957,40144,257478,237354
1631632624967,40148,257528,237360
1631632624977,40161,257500,237372
1631632624987,40167,257511,237397
1631632624997,40159,257537,237359
1631632625007,40181,257539,237404
1631632625017,40180,257499,237394
1631632625027,40184,257518,237409
1631632625037,40164,257536,237370
1631632625047,40183,257557,237414
1631632625057,40186,257520,237370
1631632625067,40192,257526,237404
1631632625077,40197,257524,237385
1631632625087,40202,257548,237442
1631632625097,40204,257565,237421
1631632625107,40209,257563,237405
1631632625117,40217,257535,237416
1631632625127,40225,257594,237407
1631632625137,40227,257525,237396
1631632625147,40230,257540,237395
1631632625157,40236,257570,237381
1631632625167,40229,257513,237380
1631632625177,40235,257558,237358
1631632625187,40236,257599,237387
1631632625197,40243,257588,237432
1631632625207,40268,257550,237371
1631632625217,40259,257584,237408
1631632625227,40272,257581,237398
1631632625237,40267,257583,237414
1631632625247,40280,257591,237396
1631632625257,40287,257631,237408
1631632625267,40291,257608,237379
1631632625277,40305,257624,237387
1631632625287,40312,257636,237380
1631632625297,40314,257589,237371
1631632625307,40322,257602,237350
1631632625317,40333,257630,237375
1631632625327,40343,257600,237363
1631632625337,40340,257609,237338
1631632625347,40369,257607,237308
1631632625357,40362,257594,237309
1631632625367,40367,257602,237321
1631632625377,40371,257531,237309
1631632625387,40372,257557,237287
1631632625397,40366,257538,237297
1631632625407,40361,257505,237288
1631632625417,40353,257503,237274
1631632625427,40335,257472,237269
1631632625437,40315,257434,237290
1631632625447,40307,257440,237278
1631632625457,40293,257432,237266
1631632625467,40277,257413,237231
1631632625477,40267,257374,237254
1631632625487,40245,257424,237244
1631632625497,40258,257326,237269
1631632625507,40254,257419,237231
1631632625517,40236,257375,237238
1631632625527,40230,257382,237223
1631632625537,40219,257357,237224
1631632625547,40204,257350,237211
1631632625557,40208,257345,237192
1631632625567,40202,257315,237162
1631632625577,40200,257363,237170
1631632625587,40184,257324,237186
1631632625597,40181,257313,237151
1631632625607,40190,257305,237194
1631632625617,40189,257312,237185
1631632625627,40186,257333,237158
1631632625637,40184,257276,237183
1631632625647,40175,257292,237194
1631632625657,40192,257290,237177
1631632625667,40180,257266,237162
1631632625677,40192,257290,237147
1631632625687,40200,257274,237150
1631632625697,40198,257263,237157
1631632625707,40197,257279,237139
1631632625717,40192,257281,237120
1631632625727,40191,257267,237125
1631632625737,40192,257272,237156
1631632625747,40195,257279,237138
1631632625757,40193,257314,237108
1631632625767,40193,257255,237118
1631632625777,40203,257271,237117
1631632625787,40212,257274,237124
1631632625797,40205,257246,237098
1631632625807,40199,257212,237104
1631632625817,40215,257260,237079
1631632625827,40231,257272,237064
1631632625837,40214,257265,237062
1631632625847,40218,257233,237032
1631632625857,40228,257258,237077
1631632625867,40235,257234,237047
1631632625877,40241,257250,237048
1631632625887,40250,257212,237060
1631632625897,40268,257259,237041
1631632625907,40256,257246,237032
1631632625917,40266,257272,237020
1631632625927,40276,257228,237034
1631632625937,40281,257253,237028
1631632625947,40290,257230,237014
1631632625957,40297,257282,237011
1631632625967,40309,257287,237035
1631632625977,40308,257271,237044
1631632625987,40330,257274,237016
1631632625997,40332,257283,237039
1631632626007,40329,257286,237025
1631632626017,40350,257245,237002
1631632626027,40336,257213,236961
1631632626037,40354,257201,236948
1631632626047,40344,257186,236909
1631632626057,40347,257126,236928
1631632626067,40338,257109,236911
1631632626077,40324,257118,236883
1631632626087,40312,257058,236886
1631632626097,40292,257081,236870
1631632626107,40276,257043,236845
1631632626117,40274,257014,236845
1631632626127,40253,257038,236813
1631632626137,40255,257030,236834
1631632626147,40247,257034,236827
1631632626157,40235,257024,236839
1631632626167,40228,256966,236824
1631632626177,40217,256938,236788
1631632626187,40209,256939,236814
1631632626197,40211,256944,236785
1631632626207,40208,256965,236752
1631632626217,40197,256880,236748
1631632626227,40198,256896,236730
1631632626237,40183,256856,236711
1631632626247,40186,256851,236694
1631632626257,40183,256846,236707
1631632626267,40180,256825,236650
1631632626277,40187,256817,236634
1631632626287,40178,256819,236670
1631632626297,40179,256820,236631
1631632626307,40188,256790,236640
1631632626317,40164,256819,236633
1631632626327,40186,256793,236608
1631632626337,40177,256762,236626
1631632626347,40182,256768,236621
1631632626357,40180,256777,236603
1631632626367,40179,256755,236616
1631632626377,40185,256763,236571
1631632626387,40187,256766,236600
1631632626397,40186,256752,236568
1631632626407,40169,256732,236577
1631632626417,40191,256777,236574
1631632626427,40192,256743,236560
1631632626437,40196,256712,236567
1631632626447,40198,256771,236560
1631632626457,40207,256765,236552
1631632626467,40218,256754,236546
1631632626477,40204,256752,236535
1631632626487,40212,256770,236532
1631632626497,40219,256744,236504
1631632626507,40220,256721,236528
1631632626517,40232,256789,236525
1631632626527,40240,256729,236508
1631632626537,40250,256772,236521
1631632626547,40246,256757,236505
1631632626557,40255,256757,236500
1631632626567,40260,256747,236533
1631632626577,40261,256748,236503
1631632626587,40271,256734,236505
1631632626597,40281,256749,236524
1631632626607,40277,256750,236503
1631632626617,40301,256755,236481
1631632626627,40288,256770,236522
1631632626637,40308,256760,236488
1631632626647,40303,256757,236503
1631632626657,40322,256742,236486
1631632626667,40325,256749,236498
1631632626677,40329,256775,236473
1631632626687,40335,256768,236492
1631632626697,40345,256757,236474
1631632626707,40356,256792,236440
1631632626717,40369,256761,236447
1631632626727,40379,256746,236430
1631632626737,40373,256708,236427
1631632626747,40373,256694,236400
1631632626757,40364,256685,236422
1631632626767,40359,256662,236411
1631632626777,40354,256660,236426
1631632626787,40343,256681,236407
1631632626797,40330,256673,236445
1631632626807,40327,256677,236416
1631632626817,40312,256651,236457
1631632626827,40309,256642,236402
1631632626837,40305,256637,236444
1631632626847,40302,256665,236437
1631632626857,40289,256638,236459
1631632626867,40294,256685,236449
1631632626877,40290,256623,236457
1631632626887,40276,256638,236462
1631632626897,40289,256641,236444
1631632626907,40285,256652,236404
1631632626917,40281,256616,236428
1631632626927,40282,256657,236456
1631632626937,40293,256679,236464
1631632626947,40292,256645,236441
1631632626957,40304,256609,236440
1631632626967,40308,256659,236419
1631632626977,40307,256657,236476
1631632626987,40302,256688,236475
1631632626997,40298,256659,236443
1631632627007,40304,256686,236463
1631632627017,40304,256681,236473
1631632627027,40309,256696,236466
1631632627037,40309,256699,236489
1631632627047,40316,256684,236498
1631632627057,40309,256709,236496
1631632627067,40319,256696,236487
1631632627077,40311,256697,236464
1631632627087,40318,256682,236507
1631632627097,40319,256724,236468
1631632627107,40326,256685,236491
1631632627117,40331,256740,236479
1631632627127,40332,256708,236497
1631632627137,40336,256699,236489
1631632627147,40342,256790,236498
1631632627157,40350,256732,236489
1631632627167,40355,256742,236540
1631632627177,40357,256752,236527
1631632627187,40376,256779,236545
1631632627197,40388,256811,236565
1631632627207,40387,256775,236552
1631632627217,40399,256859,236538
1631632627227,40403,256846,236574
1631632627237,40404,256845,236575
1631632627247,40414,256846,236594
1631632627257,40413,256857,236561
1631632627267,40428,256870,236589
1631632627277,40444,256889,236587
1631632627287,40440,256895,236605
1631632627297,40452,256906,236616
1631632627307,40465,256935,236613
1631632627317,40476,256899,236600
1631632627327,40487,256930,236636
1631632627337,40491,257000,236648
1631632627347,40513,256981,236654
1631632627357,40516,256985,236646
1631632627367,40520,256993,236672
1631632627377,40538,257001,236660
1631632627387,40541,257031,236717
1631632627397,40558,257049,236702
1631632627407,40562,257078,236724
1631632627417,40567,257059,236714
1631632627427,40580,257062,236721
1631632627437,40599,257062,236720
1631632627447,40594,257038,236749
1631632627457,40596,257014,236712
1631632627467,40602,257058,236740
1631632627477,40583,257016,236713
1631632627487,40574,257014,236714
1631632627497,40565,257009,236748
1631632627507,40558,257006,236735
1631632627517,40554,257029,236755
1631632627527,40544,257014,236795
1631632627537,40540,257036,236793
1631632627547,40536,257042,236805
1631632627557,40522,257036,236804
1631632627567,40513,257042,236819
1631632627577,40518,257050,236809
1631632627587,40532,257060,236826
1631632627597,40519,257047,236825
1631632627607,40522,257060,236847
1631632627617,40512,257094,236812
1631632627627,40520,257069,236857
1631632627637,40520,257069,236830
1631632627647,40520,257055,236832
1631632627657,40513,257102,236858
1631632627667,40511,257086,236852
1631632627677,40526,257114,236870
1631632627687,40529,257086,236875
1631632627697,40529,257111,236890
1631632627707,40537,257133,236876
1631632627717,40531,257156,236901
1631632627727,40537,257142,236907
1631632627737,40537,257178,236935
1631632627747,40545,257194,236964
1631632627757,40554,257242,236974
1631632627767,40564,257198,237003
1631632627777,40559,257193,236983
1631632627787,40556,257198,237006
1631632627797,40574,257227,236995
1631632627807,40573,257252,237002
1631632627817,40586,257246,237029
1631632627827,40592,257318,237038
1631632627837,40605,257267,237068
1631632627847,40608,257308,237055
1631632627857,40614,257339,237073
1631632627867,40624,257312,237080
1631632627877,40625,257347,237093
1631632627887,40628,257338,237101
1631632627897,40643,257373,237092
1631632627907,40668,257410,237109
1631632627917,40655,257426,237149
1631632627927,40670,257434,237201
1631632627937,40688,257447,237206
1631632627947,40685,257463,237229
1631632627957,40693,257508,237197
1631632627967,40696,257502,237223
1631632627977,40713,257473,237201
1631632627987,40726,257517,237239
1631632627997,40735,257549,237251
1631632628007,40741,257552,237271
1631632628017,40762,257519,237254
1631632628027,40768,257570,237273
1631632628037,40775,257627,237302
1631632628047,40781,257639,237299
1631632628057,40796,257632,237316
1631632628067,40819,257621,237360
1631632628077,40840,257653,237306
1631632628087,40838,257667,237322
1631632628097,40845,257643,237325
1631632628107,40874,257664,237335
1631632628117,40863,257705,237344
1631632628127,40881,257695,237362
1631632628137,40891,257685,237356
1631632628147,40896,257721,237376
1631632628157,40898,257683,237339
1631632628167,40900,257635,237388
1631632628177,40892,257653,237392
1631632628187,40887,257688,237361
1631632628197,40875,257592,237393
1631632628207,40867,257603,237366
1631632628217,40863,257643,237380
1631632628227,40843,257571,237407
1631632628237,40846,257669,237398
1631632628247,40849,257621,237417
1631632628257,40842,257581,237381
1631632628267,40831,257614,237385
1631632628277,40814,257568,237428
1631632628287,40814,257604,237382
1631632628297,40815,257559,237387
1631632628307,40799,257565,237377
1631632628317,40809,257592,237389
1631632628327,40801,257564,237365
1631632628337,40794,257561,237384
1631632628347,40795,257545,237378
1631632628357,40786,257571,237354
1631632628367,40779,257573,237367
1631632628377,40786,257557,237398
1631632628387,40777,257557,237419
1631632628397,40798,257586,237387
1631632628407,40784,257616,237429
1631632628417,40793,257575,237429
1631632628427,40798,257638,237410
1631632628437,40796,257622,237411
1631632628447,40806,257648,237446
1631632628457,40810,257661,237427
1631632628467,40804,257643,237435
1631632628477,40808,257626,237441
1631632628487,40802,257642,237410
1631632628497,40815,257673,237437
1631632628507,40802,257661,237440
1631632628517,40815,257668,237432
1631632628527,40817,257676,237413
1631632628537,40820,257702,237435
1631632628547,40824,257720,237441
1631632628557,40827,257735,237441
1631632628567,40854,257727,237446
1631632628577,40854,257735,237462
1631632628587,40855,257720,237443
1631632628597,40871,257751,237491
1631632628607,40862,257771,237483
1631632628617,40872,257778,237505
1631632628627,40885,257806,237496
1631632628637,40891,257836,237530
1631632628647,40906,257818,237522
1631632628657,40910,257794,237499
1631632628667,40929,257835,237512
1631632628677,40920,257808,237527
1631632628687,40930,257885,237521
1631632628697,40941,257864,237543
1631632628707,40948,257870,237547
1631632628717,40968,257881,237561
1631632628727,40974,257919,237550
1631632628737,40993,257915,237568
1631632628747,40988,257951,237584
1631632628757,41013,257961,237614
1631632628767,41015,257974,237594
1631632628777,41021,257994,237631
1631632628787,41031,258023,237637
1631632628797,41040,258006,237629
1631632628807,41055,258037,237651
1631632628817,41055,258048,237668
1631632628827,41067,258066,237653
1631632628837,41081,258074,237650
1631632628847,41095,258056,237649
1631632628857,41093,258106,237667
1631632628867,41101,258106,237669
1631632628877,41132,258120,237645
1631632628887,41138,258088,237677
1631632628897,41137,258117,237607
1631632628907,41148,258025,237630
1631632628917,41139,258003,237596
1631632628927,41128,258021,237622
1631632628937,41111,257985,237635
1631632628947,41104,257974,237639
1631632628957,41091,257961,237624
1631632628967,41081,257993,237611
1631632628977,41079,257956,237638
1631632628987,41065,257959,237633
1631632628997,41052,257964,237635
1631632629007,41042,257945,237611
1631632629017,41035,257958,237631
1631632629027,41027,257982,237606
1631632629037,41021,257919,237631
1631632629047,41023,257922,237605
1631632629057,41003,257885,237599
1631632629067,41001,257862,237562
1631632629077,40995,257847,237577
1631632629087,40977,257848,237576
1631632629097,40991,257859,237534
1631632629107,40981,257826,237526
1631632629117,40977,257822,237521
1631632629127,40974,257795,237512
1631632629137,40970,257810,237496
1631632629147,40972,257796,237520
1631632629157,40970,257781,237514
1631632629167,40973,257785,237519
1631632629177,40975,257817,237522
1631632629187,40978,257780,237514
1631632629197,40966,257776,237484
1631632629207,40954,257780,237483
1631632629217,40976,257762,237476
1631632629227,40987,257738,237495
1631632629237,40979,257722,237488
1631632629247,40959,257751,237468
1631632629257,40967,257721,237472
1631632629267,40977,257712,237456
1631632629277,40971,257690,237434
1631632629287,40976,257746,237428
1631632629297,40968,257702,237438
1631632629307,40976,257710,237382
1631632629317,40983,257711,237386
1631632629327,40977,257737,237381
1631632629337,40990,257756,237395
1631632629347,40995,257732,237392
1631632629357,40998,257714,237370
1631632629367,41007,257690,237403
1631632629377,41000,257743,237413
1631632629387,41019,257731,237412
1631632629397,41023,257749,237390
1631632629407,41038,257732,237369
1631632629417,41029,257772,237372
1631632629427,41031,257749,237388
1631632629437,41041,257765,237382
1631632629447,41051,257726,237386
1631632629457,41058,257751,237381
1631632629467,41059,257771,237375
1631632629477,41063,257808,237369
1631632629487,41079,257738,237367
1631632629497,41091,257773,237355
1631632629507,41089,257774,237385
1631632629517,41092,257761,237369
1631632629527,41107,257767,237368
1631632629537,41113,257780,237343
1631632629547,41106,257810,237376
1631632629557,41117,257791,237375
1631632629567,41136,257804,237376
1631632629577,41137,257822,237340
1631632629587,41144,257791,237380
1631632629597,41151,257838,237386
1631632629607,41156,257838,237382
1631632629617,41172,257808,237376
1631632629627,41173,257842,237392
1631632629637,41182,257844,237392
1631632629647,41192,257858,237402
1631632629657,41198,257848,237417
1631632629667,41206,257873,237406
1631632629677,41204,257857,237392
1631632629687,41211,257871,237386
1631632629697,41223,257846,237394
1631632629707,41233,257840,237378
1631632629717,41231,257798,237341
1631632629727,41225,257796,237313
1631632629737,41219,257808,237338
1631632629747,41212,257768,237334
1631632629757,41189,257749,237333
1631632629767,41183,257692,237333
1631632629777,41182,257691,237334
1631632629787,41174,257726,237324
1631632629797,41156,257757,237344
1631632629807,41153,257718,237315
1631632629817,41149,257706,237325
1631632629827,41147,257719,237357
1631632629837,41136,257665,237368
1631632629847,41139,257723,237321
1631632629857,41127,257665,237333
1631632629867,41113,257683,237309
1631632629877,41132,257671,237321
1631632629887,41135,257664,237293
1631632629897,41117,257643,237306
1631632629907,41111,257660,237297
1631632629917,41103,257651,237308
1631632629927,41101,257688,237294
1631632629937,41108,257677,237304
1631632629947,41110,257677,237318
1631632629957,41104,257684,237337
1631632629967,41109,257676,237337
1631632629977,41112,257707,237340
1631632629987,41116,257726,237385
1631632629997,41107,257695,237362
1631632630007,41118,257725,237371
1631632630017,41111,257737,237384
1631632630027,41120,257705,237364
1631632630037,41115,257754,237365
1631632630047,41118,257692,237363
1631632630057,41133,257712,237389
1631632630067,41111,257709,237366
1631632630077,41123,257724,237388
1631632630087,41121,257740,237386
1631632630097,41119,257713,237401
1631632630107,41131,257756,237391
1631632630117,41138,257756,237385
1631632630127,41141,257741,237377
1631632630137,41151,257761,237392
1631632630147,41158,257780,237418
1631632630157,41155,257797,237453
1631632630167,41165,257831,237401
1631632630177,41167,257782,237420
1631632630187,41182,257822,237452
1631632630197,41172,257867,237461
1631632630207,41192,257888,237477
1631632630217,41183,257879,237455
1631632630227,41198,257876,237468
1631632630237,41212,257905,237506
1631632630247,41218,257924,237506
1631632630257,41220,257900,237538
1631632630267,41228,257938,237524
1631632630277,41245,257921,237516
1631632630287,41249,257970,237528
1631632630297,41259,257979,237535
1631632630307,41276,257965,237540
1631632630317,41284,257995,237532
1631632630327,41281,258015,237550
1631632630337,41287,257992,237569
1631632630347,41316,258025,237558
1631632630357,41321,258017,237593
1631632630367,41335,258005,237588
1631632630377,41308,258071,237579
1631632630387,41342,258077,237588
1631632630397,41335,258065,237599
1631632630407,41350,258053,237628
1631632630417,41363,258081,237608
1631632630427,41369,258135,237668
1631632630437,41384,258101,237666
1631632630447,41391,258105,237647
1631632630457,41401,258141,237662
1631632630467,41406,258154,237662
1631632630477,41425,258143,237702
1631632630487,41434,258135,237687
1631632630497,41445,258114,237658
1631632630507,41447,258151,237662
1631632630517,41460,258136,237643
1631632630527,41462,258121,237655
1631632630537,41431,258146,237672
1631632630547,41434,258100,237693
1631632630557,41418,258040,237669
1631632630567,41409,258073,237689
1631632630577,41404,258124,237712
1631632630587,41391,258052,237748
1631632630597,41382,258075,237718
1631632630607,41371,258103,237737
1631632630617,41380,258060,237726
1631632630627,41375,258081,237706
1631632630637,41368,258017,237738
1631632630647,41350,258066,237728
1631632630657,41343,258063,237700
1631632630667,41343,258014,237695
1631632630677,41336,258006,237683
1631632630687,41332,257966,237717
1631632630697,41323,257996,237698
1631632630707,41322,257977,237706
1631632630717,41324,258014,237713
1631632630727,41319,257993,237704
1631632630737,41319,258005,237726
1631632630747,41319,258038,237728
1631632630757,41320,258044,237766
1631632630767,41315,258054,237756
1631632630777,41325,258029,237766
1631632630787,41330,258071,237777
1631632630797,41335,258073,237785
1631632630807,41327,258094,237769
1631632630817,41335,258055,237793
1631632630827,41326,258062,237769
1631632630837,41340,258067,237785
1631632630847,41328,258080,237772
1631632630857,41336,258099,237786
1631632630867,41342,258072,237785
1631632630877,41354,258068,237817
1631632630887,41354,258154,237807
1631632630897,41357,258072,237823
1631632630907,41359,258150,237834
1631632630917,41362,258101,237822
1631632630927,41369,258115,237820
1631632630937,41373,258135,237807
1631632630947,41372,258157,237848
1631632630957,41385,258142,237852
1631632630967,41385,258126,237827
1631632630977,41389,258183,237858
1631632630987,41395,258202,237837
1631632630997,41388,258145,237839
1631632631007,41426,258189,237892
1631632631017,41423,258169,237858
1631632631027,41412,258139,237859
1631632631037,41435,258201,237881
1631632631047,41437,258213,237891
1631632631057,41442,258212,237871
1631632631067,41452,258209,237902
1631632631077,41467,258215,237875
1631632631087,41462,258248,237926
1631632631097,41472,258277,237912
1631632631107,41477,258248,237925
1631632631117,41490,258261,237913
1631632631127,41489,258280,237930
1631632631137,41495,258259,237934
1631632631147,41505,258324,237980
1631632631157,41503,258297,237977
1631632631167,41518,258321,237970
1631632631177,41542,258325,237978
1631632631187,41531,258319,237956
1631632631197,41545,258340,238008
1631632631207,41564,258351,238007
1631632631217,41577,258396,237992
1631632631227,41577,258366,238019
1631632631237,41584,258403,238003
1631632631247,41593,258379,238029
1631632631257,41609,258380,237984
1631632631267,41611,258415,238006
1631632631277,41627,258423,238015
1631632631287,41632,258362,238017
1631632631297,41627,258357,237999
1631632631307,41627,258317,238015
1631632631317,41625,258330,238007
1631632631327,41618,258311,238040
1631632631337,41597,258343,238018
1631632631347,41582,258333,238006
1631632631357,41576,258294,238012
1631632631367,41566,258300,238012
1631632631377,41552,258267,238043
1631632631387,41544,258302,238036
1631632631397,41526,258248,238035
1631632631407,41523,258269,238055
1631632631417,41514,258215,238037
1631632631427,41502,258231,238020
1631632631437,41505,258219,238036
1631632631447,41496,258184,238044
1631632631457,41481,258201,238027
1631632631467,41478,258256,238032
1631632631477,41467,258215,238059
1631632631487,41461,258202,238030
1631632631497,41461,258174,237995
1631632631507,41460,258168,238022
1631632631517,41431,258163,238024
1631632631527,41429,258164,238010
1631632631537,41439,258157,238016
1631632631547,41428,258170,238006
1631632631557,41436,258193,238021
1631632631567,41430,258119,238016
1631632631577,41434,258149,238031
1631632631587,41439,258165,238034
1631632631597,41424,258163,238021
1631632631607,41440,258189,238027
1631632631617,41434,258187,238016
1631632631627,41427,258172,238061
1631632631637,41423,258136,238046
1631632631647,41438,258143,238030
1631632631657,41427,258120,238027
1631632631667,41418,258111,238034
1631632631677,41428,258160,238054
1631632631687,41448,258126,238030
1631632631697,41434,258150,238014
1631632631707,41431,258186,238039
1631632631717,41430,258129,238014
1631632631727,41438,258153,238022
1631632631737,41449,258150,238016
1631632631747,41446,258143,238043
1631632631757,41450,258138,238031
1631632631767,41450,258157,237998
1631632631777,41454,258149,238000
1631632631787,41454,258146,238024
1631632631797,41455,258117,237999
1631632631807,41462,258148,237998
1631632631817,41455,258148,237999
1631632631827,41458,258130,238005
1631632631837,41466,258124,238019
1631632631847,41462,258158,237991
1631632631857,41469,258137,238010
1631632631867,41478,258113,237982
1631632631877,41485,258166,237964
1631632631887,41492,258135,237945
1631632631897,41492,258144,237988
1631632631907,41491,258102,237964
1631632631917,41498,258142,237990
1631632631927,41509,258100,237958
1631632631937,41510,258166,237956
1631632631947,41522,258171,237968
1631632631957,41523,258174,237971
1631632631967,41522,258157,237952
1631632631977,41522,258127,237961
1631632631987,41541,258210,237972
1631632631997,41550,258177,237983
1631632632007,41543,258173,237973
1631632632017,41546,258150,237946
1631632632027,41566,258185,237962
1631632632037,41566,258203,237968
1631632632047,41565,258190,237944
1631632632057,41584,258182,237937
1631632632067,41586,258165,237915
1631632632077,41587,258120,237911
1631632632087,41590,258131,237901
1631632632097,41593,258115,237889
1631632632107,41583,258091,237941
1631632632117,41573,258066,237900
1631632632127,41566,258034,237900
1631632632137,41554,258092,237865
1631632632147,41545,258049,237868
1631632632157,41532,257993,237882
1631632632167,41508,258063,237892
1631632632177,41499,257992,237892
1631632632187,41485,258001,237897
1631632632197,41469,258003,237890
1631632632207,41465,257946,237895
1631632632217,41465,257946,237882
1631632632227,41449,257975,237853
1631632632237,41428,257933,237853
1631632632247,41433,257917,237821
1631632632257,41429,257921,237815
1631632632267,41418,257888,237808
1631632632277,41411,257872,237816
1631632632287,41402,257831,237805
1631632632297,41409,257807,237798
1631632632307,41396,257844,237801
1631632632317,41397,257810,237793
1631632632327,41373,257852,237786
1631632632337,41374,257839,237776
1631632632347,41381,257848,237786
1631632632357,41375,257849,237794
1631632632367,41380,257866,237820
1631632632377,41385,257857,237812
1631632632387,41381,257819,237798
1631632632397,41376,257840,237797
1631632632407,41380,257848,237788
1631632632417,41375,257814,237781
1631632632427,41369,257810,237767
1631632632437,41370,257827,237772
1631632632447,41366,257819,237792
1631632632457,41381,257786,237772
1631632632467,41366,257781,237787
1631632632477,41372,257745,237787
1631632632487,41373,257795,237786
1631632632497,41374,257798,237769
1631632632507,41378,257752,237786
1631632632517,41380,257779,237772
1631632632527,41389,257798,237819
1631632632537,41392,257774,237802
1631632632547,41396,257818,237797
1631632632557,41399,257803,237828
1631632632567,41403,257806,237816
1631632632577,41403,257834,237850
1631632632587,41404,257807,237824
1631632632597,41412,257841,237810
1631632632607,41408,257854,237820
1631632632617,41424,257806,237819
1631632632627,41423,257843,237855
1631632632637,41429,257859,237842
1631632632647,41422,257825,237838
1631632632657,41432,257827,237814
1631632632667,41435,257864,237844
1631632632677,41435,257864,237816
1631632632687,41439,257873,237821
1631632632697,41444,257849,237810
1631632632707,41457,257867,237824
1631632632717,41456,257858,237797
1631632632727,41464,257856,237845
1631632632737,41464,257890,237845
1631632632747,41469,257857,237849
1631632632757,41486,257902,237870
1631632632767,41483,257920,237866
1631632632777,41501,257942,237881
1631632632787,41505,257908,237854
1631632632797,41507,257955,237875
1631632632807,41527,257965,237895
1631632632817,41525,257963,237855
1631632632827,41539,257912,237883
1631632632837,41522,257914,237896
1631632632847,41525,257930,237880
1631632632857,41518,257929,237882
1631632632867,41515,257905,237878
1631632632877,41503,257868,237915
1631632632887,41490,257865,237911
1631632632897,41486,257886,237944
1631632632907,41466,257881,237951
1631632632917,41458,257901,237955
1631632632927,41446,257860,237961
1631632632937,41454,257892,237938
1631632632947,41441,257887,237955
1631632632957,41428,257901,237993
1631632632967,41419,257864,237971
1631632632977,41431,257848,237962
1631632632987,41421,257868,237995
1631632632997,41411,257874,237973
1631632633007,41407,257828,238022
1631632633017,41401,257870,237994
1631632633027,41398,257873,237996
1631632633037,41390,257857,238015
1631632633047,41396,257846,238020
1631632633057,41387,257843,238015
1631632633067,41390,257860,238019
1631632633077,41388,257874,238018
1631632633087,41388,257835,238004
1631632633097,41384,257870,238047
1631632633107,41387,257830,238030
1631632633117,41399,257852,238033
1631632633127,41374,257901,238053
1631632633137,41392,257861,237992
1631632633147,41370,257853,238013
1631632633157,41368,257857,238020
1631632633167,41375,257826,238032
1631632633177,41375,257886,238022
1631632633187,41384,257883,238008
1631632633197,41378,257860,238035
1631632633207,41377,257834,238011
1631632633217,41379,257861,237997
1631632633227,41375,257855,237998
1631632633237,41377,257866,238016
1631632633247,41380,257869,238005
1631632633257,41385,257863,237993
1631632633267,41394,257895,238033
1631632633277,41395,257841,238026
1631632633287,41408,257901,238053
1631632633297,41418,257949,238088
1631632633307,41429,257912,238080
1631632633317,41416,257933,238030
1631632633327,41417,257930,238076
1631632633337,41427,257951,238090
1631632633347,41444,257979,238086
1631632633357,41445,257975,238097
1631632633367,41442,257946,238072
1631632633377,41456,257973,238078
1631632633387,41463,257992,238086
1631632633397,41467,257942,238062
1631632633407,41461,257981,238045
1631632633417,41471,257983,238042
1631632633427,41484,257955,238053
1631632633437,41481,258003,238055
1631632633447,41492,257985,238061
1631632633457,41505,257988,238087
1631632633467,41495,257987,238072
1631632633477,41517,258058,238103
1631632633487,41525,258030,238116
1631632633497,41535,258065,238096
1631632633507,41552,258070,238121
1631632633517,41560,258113,238154
1631632633527,41567,258087,238122
1631632633537,41580,258069,238121
1631632633547,41593,258091,238118
1631632633557,41586,258047,238127
1631632633567,41582,258082,238142
1631632633577,41579,258036,238133
1631632633587,41574,258024,238162
1631632633597,41563,258020,238140
1631632633607,41545,258044,238131
1631632633617,41545,258022,238151
1631632633627,41520,258010,238152
1631632633637,41506,257999,238152
1631632633647,41495,257989,238156
1631632633657,41490,258018,238156
1631632633667,41477,257936,238153
1631632633677,41472,257950,238183
1631632633687,41460,257964,238182
1631632633697,41455,257980,238170
1631632633707,41445,257965,238158
1631632633717,41432,257915,238147
1631632633727,41432,257944,238142
1631632633737,41420,257913,238148
1631632633747,41411,257905,238152
1631632633757,41411,257905,238150
1631632633767,41408,257847,238106
1631632633777,41399,257892,238117
1631632633787,41386,257850,238147
1631632633797,41383,257899,238152
1631632633807,41389,257832,238109
1631632633817,41378,257847,238145
1631632633827,41382,257866,238081
1631632633837,41375,257851,238097
1631632633847,41374,257828,238096
1631632633857,41381,257830,238091
1631632633867,41374,257853,238096
1631632633877,41372,257802,238086
1631632633887,41374,257761,238043
1631632633897,41355,257788,238051
1631632633907,41356,257797,238036
1631632633917,41358,257809,238001
1631632633927,41342,257763,238009
1631632633937,41352,257758,237953
1631632633947,41345,257701,237924
1631632633957,41330,257681,237896
1631632633967,41330,257642,237867
1631632633977,41329,257627,237859
1631632633987,41321,257624,237792
1631632633997,41324,257552,237805
1631632634007,41344,257575,237779
1631632634017,41332,257541,237761
1631632634027,41330,257552,237773
1631632634037,41330,257553,237738
1631632634047,41340,257542,237701
1631632634057,41331,257494,237683
1631632634067,41331,257531,237668
1631632634077,41335,257449,237647
1631632634087,41337,257438,237569
1631632634097,41325,257383,237539
1631632634107,41295,257345,237483
1631632634117,41287,257282,237401
1631632634127,41293,257259,237362
1631632634137,41291,257259,237314
1631632634147,41278,257182,237253
1631632634157,41273,257162,237222
1631632634167,41269,257170,237150
1631632634177,41259,257162,237166
1631632634187,41268,257135,237106
1631632634197,41276,257096,237116
1631632634207,41274,257128,237095
1631632634217,41298,257108,237061
1631632634227,41291,257076,237033
1631632634237,41302,257089,237012
1631632634247,41302,257059,236991
1631632634257,41304,257046,236941
1631632634267,41314,256976,236939
1631632634277,41308,256981,236908
1631632634287,41300,256934,236864
1631632634297,41280,256880,236816
1631632634307,41266,256803,236754
1631632634317,41235,256766,236718
1631632634327,41217,256709,236672
1631632634337,41193,256680,236629
1631632634347,41173,256603,236593
1631632634357,41157,256577,236534
1631632634367,41133,256556,236531
1631632634377,41117,256497,236514
1631632634387,41118,256546,236503
1631632634397,41110,256520,236495
1631632634407,41089,256501,236456
1631632634417,41084,256454,236421
1631632634427,41078,256423,236427
1631632634437,41061,256401,236362
1631632634447,41049,256360,236310
1631632634457,41036,256357,236277
1631632634467,41018,256335,236276
1631632634477,41009,256307,236256
1631632634487,41009,256276,236257
1631632634497,41004,256279,236224
1631632634507,40997,256247,236224
1631632634517,40988,256242,236213
1631632634527,40996,256207,236222
1631632634537,40998,256233,236197
1631632634547,40991,256190,236163
1631632634557,41005,256247,236166
1631632634567,40985,256203,236145
1631632634577,40987,256229,236121
1631632634587,40981,256181,236124
1631632634597,40975,256164,236101
1631632634607,40956,256104,236026
1631632634617,40938,256062,235966
1631632634627,40924,256054,235959
1631632634637,40911,256014,235924
1631632634647,40903,255971,235860
1631632634657,40888,255954,235830
1631632634667,40882,255894,235820
1631632634677,40863,255879,235757
1631632634687,40862,255865,235767
1631632634697,40853,255856,235724
1631632634707,40849,255831,235686
1631632634717,40844,255845,235689
1631632634727,40864,255830,235681
1631632634737,40874,255888,235667
1631632634747,40867,255865,235667
1631632634757,40875,255866,235656
1631632634767,40879,255856,235681
1631632634777,40880,255867,235666
1631632634787,40884,255836,235663
1631632634797,40881,255831,235620
1631632634807,40895,255847,235588
1631632634817,40900,255859,235634
1631632634827,40911,255857,235620
1631632634837,40917,255873,235641
1631632634847,40927,255881,235635
1631632634857,40934,255918,235648
1631632634867,40943,255939,235655
1631632634877,40954,255931,235668
1631632634887,40984,255945,235686
1631632634897,40986,255991,235682
1631632634907,41005,255998,235727
1631632634917,41018,256041,235743
1631632634927,41012,256065,235750
1631632634937,41042,256056,235772
1631632634947,41040,256079,235793
1631632634957,41051,256105,235763
1631632634967,41067,256115,235824
1631632634977,41072,256136,235788
1631632634987,41083,256127,235796
1631632634997,41091,256091,235784
1631632635007,41092,256104,235820
1631632635017,41099,256113,235812
1631632635027,41089,256109,235804
1631632635037,41077,256088,235793
1631632635047,41068,256073,235825
1631632635057,41058,256114,235815
1631632635067,41037,256107,235787
1631632635077,41037,256062,235808
1631632635087,41030,256008,235826
1631632635097,41005,256057,235835
1631632635107,40996,256073,235832
1631632635117,40984,256077,235866
1631632635127,40987,256047,235848
1631632635137,40981,256066,235873
1631632635147,40967,256021,235835
1631632635157,40970,256029,235864
1631632635167,40956,256000,235860
1631632635177,40950,255996,235847
1631632635187,40946,256033,235869
1631632635197,40942,256054,235832
1631632635207,40929,256059,235881
1631632635217,40948,256060,235880
1631632635227,40929,256038,235870
1631632635237,40943,256086,235885
1631632635247,40941,256061,235891
1631632635257,40935,256093,235931
1631632635267,40929,256100,235943
1631632635277,40949,256133,235949
1631632635287,40942,256110,235946
1631632635297,40950,256095,235965
1631632635307,40950,256139,235971
1631632635317,40952,256117,235966
1631632635327,40945,256148,235979
1631632635337,40945,256157,236009
1631632635347,40948,256192,235986
1631632635357,40946,256205,236014
1631632635367,40957,256165,236029
1631632635377,40961,256207,236041
1631632635387,40951,256191,236033
1631632635397,40969,256228,236037
1631632635407,40972,256225,236030
1631632635417,40977,256269,236090
1631632635427,40979,256244,236105
1631632635437,40983,256278,236099
1631632635447,40989,256262,236122
1631632635457,40984,256339,236126
1631632635467,40989,256322,236146
1631632635477,41006,256302,236163
1631632635487,41008,256380,236174
1631632635497,41019,256369,236184
1631632635507,41022,256372,236172
1631632635517,41027,256430,236198
1631632635527,41031,256388,236235
1631632635537,41031,256412,236202
1631632635547,41058,256408,236240
1631632635557,41051,256419,236245
1631632635567,41073,256442,236229
1631632635577,41081,256454,236247
1631632635587,41079,256485,236228
1631632635597,41083,256492,236272
1631632635607,41086,256464,236281
1631632635617,41099,256470,236276
1631632635627,41109,256522,236269
1631632635637,41117,256548,236276
1631632635647,41114,256559,236315
1631632635657,41132,256595,236320
1631632635667,41138,256556,236354
1631632635677,41150,256566,236311
1631632635687,41158,256585,236344
1631632635697,41161,256636,236370
1631632635707,41180,256641,236354
1631632635717,41189,256655,236365
1631632635727,41207,256664,236384
1631632635737,41212,256685,236396
1631632635747,41219,256638,236389
1631632635757,41212,256656,236370
1631632635767,41219,256619,236371
1631632635777,41223,256596,236388
1631632635787,41209,256632,236392
1631632635797,41210,256628,236376
1631632635807,41181,256563,236392
1631632635817,41170,256596,236387
1631632635827,41164,256584,236394
1631632635837,41151,256580,236418
1631632635847,41138,256564,236393
1631632635857,41125,256570,236410
1631632635867,41125,256568,236396
1631632635877,41110,256589,236411
1631632635887,41092,256545,236445
1631632635897,41074,256566,236416
1631632635907,41064,256515,236378
1631632635917,41068,256509,236398
1631632635927,41055,256492,236351
1631632635937,41058,256520,236369
1631632635947,41048,256476,236363
1631632635957,41046,256442,236348
1631632635967,41025,256491,236359
1631632635977,41028,256452,236361
1631632635987,41028,256478,236327
1631632635997,41019,256459,236358
1631632636007,41019,256452,236364
1631632636017,41025,256446,236365
1631632636027,41033,256449,236371
1631632636037,41022,256500,236366
1631632636047,41026,256471,236383
1631632636057,41010,256465,236351
1631632636067,41021,256519,236357
1631632636077,41020,256489,236357
1631632636087,41023,256466,236359
1631632636097,41018,256451,236343
1631632636107,41021,256434,236351
1631632636117,41016,256474,236347
1631632636127,41021,256477,236344
1631632636137,41024,256476,236345
1631632636147,41022,256498,236342
1631632636157,41029,256473,236337
1631632636167,41022,256484,236344
1631632636177,41031,256474,236354
1631632636187,41036,256480,236357
1631632636197,41052,256494,236349
1631632636207,41049,256475,236359
1631632636217,41049,256496,236382
1631632636227,41056,256503,236353
1631632636237,41055,256565,236349
1631632636247,41054,256565,236367
1631632636257,41070,256532,236382
1631632636267,41075,256547,236395
1631632636277,41083,256563,236388
1631632636287,41089,256543,236409
1631632636297,41097,256585,236400
1631632636307,41099,256606,236380
1631632636317,41111,256608,236387
1631632636327,41110,256587,236367
1631632636337,41115,256595,236373
1631632636347,41130,256641,236414
1631632636357,41136,256608,236363
1631632636367,41143,256652,236392
1631632636377,41155,256588,236371
1631632636387,41159,256623,236370
1631632636397,41155,256639,236377
1631632636407,41157,256637,236397
1631632636417,41176,256672,236396
1631632636427,41180,256675,236385
1631632636437,41189,256682,236415
1631632636447,41204,256684,236409
1631632636457,41212,256717,236404
1631632636467,41223,256676,236420
1631632636477,41221,256762,236432
1631632636487,41235,256725,236456
1631632636497,41237,256764,236417
1631632636507,41250,256704,236442
1631632636517,41254,256788,236433
1631632636527,41273,256766,236422
1631632636537,41287,256702,236398
1631632636547,41268,256751,236392
1631632636557,41262,256656,236416
1631632636567,41249,256643,236374
1631632636577,41237,256653,236348
1631632636587,41230,256595,236384
1631632636597,41223,256614,236354
1631632636607,41202,256604,236345
1631632636617,41198,256621,236375
1631632636627,41192,256582,236356
1631632636637,41176,256577,236336
1631632636647,41153,256575,236361
1631632636657,41150,256559,236346
1631632636667,41137,256485,236316
1631632636677,41132,256519,236301
1631632636687,41103,256456,236281
1631632636697,41108,256450,236241
1631632636707,41106,256438,236285
1631632636717,41093,256417,236245
1631632636727,41078,256405,236227
1631632636737,41071,256421,236235
1631632636747,41062,256380,236230
1631632636757,41054,256367,236229
1631632636767,41055,256391,236221
1631632636777,41054,256371,236222
1631632636787,41043,256406,236219
1631632636797,41055,256390,236220
1631632636807,41043,256391,236224
1631632636817,41045,256382,236218
1631632636827,41037,256373,236230
1631632636837,41044,256370,236193
1631632636847,41040,256368,236185
1631632636857,41025,256338,236183
1631632636867,41047,256318,236177
1631632636877,41048,256336,236155
1631632636887,41030,256325,236162
1631632636897,41036,256338,236185
1631632636907,41031,256322,236137
1631632636917,41041,256298,236155
1631632636927,41033,256379,236136
1631632636937,41030,256330,236140
1631632636947,41038,256328,236163
1631632636957,41043,256288,236126
1631632636967,41041,256326,236136
1631632636977,41044,256322,236143
1631632636987,41044,256340,236109
1631632636997,41048,256296,236123
1631632637007,41057,256350,236131
1631632637017,41066,256369,236146
1631632637027,41059,256328,236143
1631632637037,41068,256325,236142
1631632637047,41062,256347,236106
1631632637057,41064,256332,236121
1631632637067,41078,256317,236120
1631632637077,41080,256352,236134
1631632637087,41090,256340,236118
1631632637097,41090,256366,236124
1631632637107,41102,256331,236103
1631632637117,41093,256326,236114
1631632637127,41101,256353,236106
1631632637137,41107,256333,236083
1631632637147,41114,256346,236106
1631632637157,41116,256359,236135
1631632637167,41123,256364,236102
1631632637177,41124,256373,236097
1631632637187,41138,256330,236098
1631632637197,41142,256347,236091
1631632637207,41160,256344,236094
1631632637217,41151,256429,236093
1631632637227,41156,256369,236116
1631632637237,41165,256411,236135
1631632637247,41171,256411,236094
1631632637257,41182,256406,236118
1631632637267,41183,256404,236107
1631632637277,41188,256443,236109
1631632637287,41196,256408,236089
1631632637297,41208,256423,236101
1631632637307,41210,256426,236082
1631632637317,41212,256446,236043
1631632637327,41221,256385,236098
1631632637337,41225,256416,236091
1631632637347,41200,256419,236113
1631632637357,41193,256337,236093
1631632637367,41190,256320,236083
1631632637377,41170,256304,236087
1631632637387,41149,256328,236102
1631632637397,41141,256352,236103
1631632637407,41131,256324,236102
1631632637417,41119,256343,236107
1631632637427,41109,256338,236112
1631632637437,41099,256351,236101
1631632637447,41086,256322,236122
1631632637457,41079,256282,236117
1631632637467,41070,256287,236092
1631632637477,41067,256319,236103
1631632637487,41051,256299,236120
1631632637497,41048,256281,236081
1631632637507,41029,256297,236085
1631632637517,41029,256273,236058
1631632637527,41026,256270,236104
1631632637537,41030,256285,236101
1631632637547,41024,256262,236116
1631632637557,41018,256255,236097
1631632637567,41012,256278,236113
1631632637577,41016,256243,236087
1631632637587,41012,256254,236111
1631632637597,41014,256291,236114
1631632637607,41016,256245,236115
1631632637617,41018,256309,236123
1631632637627,41008,256298,236072
1631632637637,41016,256245,236107
1631632637647,41012,256286,236080
1631632637657,40999,256302,236087
1631632637667,41016,256283,236053
1631632637677,41004,256263,236049
1631632637687,41021,256245,236055
1631632637697,41006,256262,236072
1631632637707,41007,256295,236082
1631632637717,41012,256273,236052
1631632637727,41003,256312,236081
1631632637737,41019,256270,236054
1631632637747,41019,256283,236119
1631632637757,41022,256334,236106
1631632637767,41026,256336,236119
1631632637777,41041,256355,236119
1631632637787,41038,256354,236133
1631632637797,41038,256380,236112
1631632637807,41041,256420,236158
1631632637817,41051,256408,236158
1631632637827,41058,256413,236146
1631632637837,41055,256437,236193
1631632637847,41063,256431,236195
1631632637857,41069,256413,236182
1631632637867,41077,256459,236189
1631632637877,41080,256460,236187
1631632637887,41089,256455,236197
1631632637897,41102,256501,236175
1631632637907,41105,256479,236186
1631632637917,41110,256507,236195
1631632637927,41112,256508,236195
1631632637937,41128,256520,236181
1631632637947,41132,256524,236208
1631632637957,41138,256528,236223
1631632637967,41150,256518,236221
1631632637977,41149,256576,236217
1631632637987,41162,256562,236234
1631632637997,41158,256596,236225
1631632638007,41175,256586,236241
1631632638017,41172,256583,236251
1631632638027,41188,256651,236275
1631632638037,41201,256633,236281
1631632638047,41202,256617,236292
1631632638057,41218,256706,236289
1631632638067,41228,256665,236282
1631632638077,41235,256671,236291
1631632638087,41249,256644,236306
1631632638097,41251,256684,236297
1631632638107,41249,256629,236301
1631632638117,41253,256649,236278
1631632638127,41245,256636,236280
1631632638137,41239,256647,236276
1631632638147,41232,256606,236305
1631632638157,41213,256615,236333
1631632638167,41209,256626,236318
1631632638177,41196,256668,236321
1631632638187,41186,256596,236330
1631632638197,41185,256609,236348
1631632638207,41164,256611,236374
1631632638217,41164,256632,236355
1631632638227,41147,256628,236384
1631632638237,41152,256632,236410
1631632638247,41148,256621,236378
1631632638257,41132,256609,236377
1631632638267,41126,256620,236371
1631632638277,41127,256607,236386
1631632638287,41120,256592,236358
1631632638297,41115,256605,236363
1631632638307,41119,256603,236385
1631632638317,41120,256644,236362
1631632638327,41110,256584,236389
1631632638337,41113,256625,236411
1631632638347,41100,256581,236442
1631632638357,41092,256623,236418
1631632638367,41096,256632,236427
1631632638377,41109,256618,236408
1631632638387,41097,256682,236459
1631632638397,41113,256649,236454
1631632638407,41119,256632,236451
1631632638417,41106,256694,236471
1631632638427,41109,256652,236480
1631632638437,41109,256625,236478
1631632638447,41109,256665,236469
1631632638457,41124,256705,236545
1631632638467,41106,256721,236541
1631632638477,41113,256744,236524
1631632638487,41130,256714,236526
1631632638497,41107,256726,236539
1631632638507,41119,256795,236551
1631632638517,41121,256780,236566
1631632638527,41131,256809,236552
1631632638537,41132,256795,236609
1631632638547,41145,256827,236583
1631632638557,41145,256839,236601
1631632638567,41155,256872,236610
1631632638577,41159,256858,236624
1631632638587,41165,256880,236650
1631632638597,41174,256920,236658
1631632638607,41182,256877,236664
1631632638617,41188,256900,236665
1631632638627,41184,256929,236691
1631632638637,41221,256921,236685
1631632638647,41204,256949,236713
1631632638657,41212,256968,236697
1631632638667,41227,256998,236707
1631632638677,41229,256963,236753
1631632638687,41240,256996,236741
1631632638697,41253,256975,236725
1631632638707,41262,257000,236762
1631632638717,41260,256996,236755
1631632638727,41275,257018,236754
1631632638737,41289,257035,236793
1631632638747,41282,257049,236799
1631632638757,41292,257070,236802
1631632638767,41297,257103,236783
1631632638777,41298,257107,236804
1631632638787,41319,257101,236800
1631632638797,41331,257135,236821
1631632638807,41342,257161,236834
1631632638817,41345,257161,236846
1631632638827,41349,257222,236847
1631632638837,41358,257216,236888
1631632638847,41371,257225,236870
1631632638857,41374,257263,236890
1631632638867,41392,257215,236878
1631632638877,41403,257237,236867
1631632638887,41402,257238,236859
1631632638897,41418,257230,236874
1631632638907,41405,257201,236867
1631632638917,41392,257200,236838
1631632638927,41385,257177,236850
1631632638937,41383,257151,236856
1631632638947,41381,257202,236842
1631632638957,41373,257171,236860
1631632638967,41358,257145,236861
1631632638977,41358,257145,236861
1631632638987,41341,257135,236871
1631632638997,41340,257127,236886
1631632639007,41328,257159,236884
1631632639017,41321,257197,236902
1631632639027,41314,257126,236904
1631632639037,41298,257148,236913
1631632639047,41294,257093,236895
1631632639057,41288,257079,236877
1631632639067,41277,257125,236907
1631632639077,41267,257110,236867
1631632639087,41262,257084,236872
1631632639097,41254,257084,236913
1631632639107,41253,257093,236852
1631632639117,41248,257105,236896
1631632639127,41239,257062,236886
1631632639137,41237,257090,236881
1631632639147,41247,257053,236891
1631632639157,41226,257065,236906
1631632639167,41222,257067,236919
1631632639177,41229,257092,236912
1631632639187,41227,257070,236911
1631632639197,41227,257081,236886
1631632639207,41236,257085,236907
1631632639217,41234,257070,236918
1631632639227,41234,257093,236898
1631632639237,41235,257054,236901
1631632639247,41235,257095,236902
1631632639257,41240,257086,236912
1631632639267,41250,257124,236892
1631632639277,41234,257095,236909
1631632639287,41242,257090,236914
1631632639297,41250,257105,236904
1631632639307,41256,257113,236875
1631632639317,41246,257113,236904
1631632639327,41244,257137,236908
1631632639337,41251,257123,236917
1631632639347,41255,257101,236910
1631632639357,41273,257121,236932
1631632639367,41277,257158,236947
1631632639377,41284,257151,236970
1631632639387,41293,257151,236930
1631632639397,41294,257186,236936
1631632639407,41304,257183,236951
1631632639417,41295,257198,236934
1631632639427,41317,257197,236957
1631632639437,41318,257169,236940
1631632639447,41329,257211,236942
1631632639457,41340,257215,236956
1631632639467,41330,257243,236910
1631632639477,41340,257192,236954
1631632639487,41343,257260,236938
1631632639497,41356,257227,236920
1631632639507,41365,257224,236935
1631632639517,41378,257228,236943
1631632639527,41384,257215,236969
1631632639537,41389,257265,236946
1631632639547,41393,257262,236957
1631632639557,41408,257265,236974
1631632639567,41418,257272,236944
1631632639577,41422,257300,236976
1631632639587,41431,257285,236974
1631632639597,41437,257258,236984
1631632639607,41443,257308,236992
1631632639617,41463,257344,237002
1631632639627,41471,257334,236996
1631632639637,41466,257329,237029
1631632639647,41474,257331,236991
1631632639657,41484,257349,237007
1631632639667,41494,257368,237021
1631632639677,41506,257345,236980
1631632639687,41513,257302,236961
1631632639697,41512,257300,236957
1631632639707,41513,257285,236970
1631632639717,41498,257303,236973
1631632639727,41490,257237,236964
1631632639737,41477,257252,236946
1631632639747,41464,257198,236947
1631632639757,41476,257193,236926
1631632639767,41462,257211,236985
1631632639777,41444,257231,237003
1631632639787,41432,257167,236970
1631632639797,41411,257197,236978
1631632639807,41415,257176,236963
1631632639817,41410,257157,236955
1631632639827,41396,257189,236922
1631632639837,41409,257121,236944
1631632639847,41387,257099,236921
1631632639857,41387,257110,236912
1631632639867,41379,257107,236869
1631632639877,41374,257078,236919
1631632639887,41365,257077,236895
1631632639897,41357,257070,236906
1631632639907,41354,257100,236856
1631632639917,41367,257069,236889
1631632639927,41360,257054,236910
1631632639937,41356,257099,236916
1631632639947,41349,257072,236891
1631632639957,41367,257051,236875
1631632639967,41360,257042,236911
1631632639977,41369,257118,236878
1631632639987,41365,257079,236893
1631632639997,41367,257088,236909
1631632640007,41364,257049,236914
1631632640017,41370,257092,236909
1631632640027,41367,257126,236925
1631632640037,41374,257051,236891
1631632640047,41363,257062,236894
1631632640057,41371,257107,236866
1631632640067,41373,257078,236867
1631632640077,41375,257073,236850
1631632640087,41386,257052,236840
1631632640097,41372,257061,236842
1631632640107,41395,257074,236860
1631632640117,41397,257044,236852
1631632640127,41397,257075,236850
1631632640137,41399,257077,236879
1631632640147,41399,257046,236878
1631632640157,41400,257068,236858
1631632640167,41408,257068,236868
1631632640177,41420,257125,236877
1631632640187,41422,257118,236871
1631632640197,41423,257101,236873
1631632640207,41441,257103,236893
1631632640217,41442,257135,236909
1631632640227,41450,257125,236909
1631632640237,41462,257140,236912
1631632640247,41460,257137,236909
1631632640257,41475,257169,236907
1631632640267,41475,257190,236906
1631632640277,41492,257157,236895
1631632640287,41486,257198,236888
1631632640297,41487,257201,236886
1631632640307,41496,257193,236867
1631632640317,41502,257198,236906
1631632640327,41516,257209,236894
1631632640337,41533,257213,236922
1631632640347,41530,257263,236946
1631632640357,41546,257232,236923
1631632640367,41542,257269,236931
1631632640377,41551,257245,236956
1631632640387,41555,257313,236957
1631632640397,41579,257287,236950
1631632640407,41580,257298,236955
1631632640417,41595,257302,236983
1631632640427,41589,257264,236965
1631632640437,41612,257274,236958
1631632640447,41621,257332,236948
1631632640457,41615,257287,236970
1631632640467,41616,257301,237008
1631632640477,41605,257266,236977
1631632640487,41600,257250,236955
1631632640497,41589,257226,236976
1631632640507,41584,257240,237000
1631632640517,41576,257211,236967
1631632640527,41568,257272,236993
1631632640537,41568,257200,237012
1631632640547,41553,257258,237009
1631632640557,41551,257252,237028
1631632640567,41538,257256,237042
1631632640577,41541,257268,237057
1631632640587,41541,257240,237029
1631632640597,41523,257261,237058
1631632640607,41527,257281,237029
1631632640617,41524,257238,237031
1631632640627,41525,257225,237036
1631632640637,41527,257262,237061
1631632640647,41531,257266,237066
1631632640657,41528,257274,237086
1631632640667,41539,257321,237088
1631632640677,41536,257301,237102
1631632640687,41547,257302,237114
1631632640697,41545,257312,237135
1631632640707,41559,257322,237157
1631632640717,41559,257338,237160
1631632640727,41572,257367,237169
1631632640737,41574,257409,237206
1631632640747,41580,257363,237227
1631632640757,41588,257429,237257
1631632640767,41596,257399,237278
1631632640777,41602,257467,237291
1631632640787,41608,257467,237284
1631632640797,41613,257479,237297
1631632640807,41645,257524,237317
1631632640817,41637,257513,237333
1631632640827,41641,257516,237343
1631632640837,41641,257565,237368
1631632640847,41650,257539,237389
1631632640857,41658,257583,237382
1631632640867,41668,257594,237418
1631632640877,41680,257616,237443
1631632640887,41686,257640,237434
1631632640897,41703,257637,237472
1631632640907,41711,257692,237496
1631632640917,41725,257668,237517
1631632640927,41733,257697,237538
1631632640937,41744,257728,237545
1631632640947,41757,257738,237558
1631632640957,41762,257740,237578
1631632640967,41773,257789,237597
1631632640977,41795,257820,237635
1631632640987,41800,257833,237642
1631632640997,41811,257879,237625
1631632641007,41832,257790,237630
1631632641017,41849,257883,237691
1631632641027,41858,257832,237687
1631632641037,41874,257883,237691
1631632641047,41891,257948,237737
1631632641057,41900,257915,237764
1631632641067,41902,257983,237790
1631632641077,41919,257969,237783
1631632641087,41932,257985,237770
1631632641097,41936,258039,237810
1631632641107,41943,258018,237833
1631632641117,41961,258028,237862
1631632641127,41975,258055,237866
1631632641137,41989,258051,237864
1631632641147,41994,258039,237842
1631632641157,42006,258028,237881
1631632641167,42008,258019,237863
1631632641177,42004,258030,237893
1631632641187,41998,258004,237878
1631632641197,41992,258009,237894
1631632641207,41992,257996,237883
1631632641217,41989,257984,237872
1631632641227,41989,258022,237915
1631632641237,41988,258003,237964
1631632641247,41972,258010,237973
1631632641257,41966,258058,237978
1631632641267,41961,257995,237998
1631632641277,41966,258105,238019
1631632641287,41959,258050,238032
1631632641297,41959,258093,238033
1631632641307,41968,258059,238056
1631632641317,41957,258046,238061
1631632641327,41951,258050,238059
1631632641337,41952,258055,238075
1631632641347,41941,258028,238103
1631632641357,41950,258050,238056
1631632641367,41948,258018,238088
1631632641377,41962,258093,238127
1631632641387,41960,258082,238117
1631632641397,41945,258071,238097
1631632641407,41961,258049,238149
1631632641417,41958,258057,238156
1631632641427,41957,258101,238174
1631632641437,41970,258119,238198
1631632641447,41972,258076,238229
1631632641457,41977,258097,238200
1631632641467,41978,258132,238178
1631632641477,41988,258123,238212
1631632641487,41984,258118,238239
1631632641497,41994,258146,238248
1631632641507,41992,258150,238262
1631632641517,41991,258171,238259
1631632641527,41998,258165,238264
1631632641537,42001,258171,238265
1631632641547,42017,258126,238271
1631632641557,41998,258206,238256
1631632641567,42026,258181,238299
1631632641577,42027,258205,238273
1631632641587,42018,258167,238306
1631632641597,42031,258193,238303
1631632641607,42043,258203,238307
1631632641617,42043,258223,238352
1631632641627,42056,258227,238345
1631632641637,42058,258227,238355
1631632641647,42072,258268,238362
1631632641657,42084,258251,238383
1631632641667,42093,258297,238373
1631632641677,42089,258288,238396
1631632641687,42095,258298,238408
1631632641697,42108,258314,238430
1631632641707,42126,258316,238436
1631632641717,42125,258353,238407
1631632641727,42141,258336,238412
1631632641737,42146,258388,238461
1631632641747,42156,258340,238430
1631632641757,42169,258369,238466
1631632641767,42169,258392,238452
1631632641777,42186,258364,238451
1631632641787,42188,258409,238491
1631632641797,42200,258418,238504
1631632641807,42222,258450,238514
1631632641817,42224,258420,238514
1631632641827,42228,258435,238491
1631632641837,42241,258409,238501
1631632641847,42237,258426,238468
1631632641857,42244,258371,238456
1631632641867,42240,258315,238469
1631632641877,42230,258347,238443
1631632641887,42226,258317,238465
1631632641897,42211,258340,238485
1631632641907,42187,258276,238434
1631632641917,42170,258275,238475
1631632641927,42158,258255,238443
1631632641937,42153,258230,238423
1631632641947,42142,258255,238449
1631632641957,42117,258276,238425
1631632641967,42120,258232,238459
1631632641977,42114,258240,238428
1631632641987,42106,258210,238436
1631632641997,42091,258171,238429
1631632642007,42092,258234,238459
1631632642017,42098,258127,238432
1631632642027,42086,258190,238463
1631632642037,42083,258188,238445
1631632642047,42089,258173,238484
1631632642057,42086,258168,238466
1631632642067,42072,258186,238473
1631632642077,42076,258213,238473
1631632642087,42077,258192,238481
1631632642097,42083,258173,238527
1631632642107,42084,258171,238534
1631632642117,42101,258218,238548
1631632642127,42099,258199,238550
1631632642137,42104,258227,238535
1631632642147,42097,258249,238563
1631632642157,42105,258214,238592
1631632642167,42107,258258,238586
1631632642177,42113,258280,238621
1631632642187,42116,258270,238649
1631632642197,42126,258281,238659
1631632642207,42142,258274,238651
1631632642217,42145,258330,238631
1631632642227,42140,258317,238654
1631632642237,42144,258314,238676
1631632642247,42149,258276,238722
1631632642257,42154,258309,238711
1631632642267,42170,258310,238717
1631632642277,42169,258338,238699
1631632642287,42178,258309,238739
1631632642297,42181,258334,238759
1631632642307,42200,258365,238782
1631632642317,42200,258364,238804
1631632642327,42209,258355,238794
1631632642337,42217,258395,238785
1631632642347,42227,258396,238824
1631632642357,42235,258411,238818
1631632642367,42246,258412,238820
1631632642377,42249,258379,238818
1631632642387,42262,258404,238857
1631632642397,42276,258452,238859
1631632642407,42274,258414,238853
1631632642417,42288,258482,238881
1631632642427,42297,258445,238853
1631632642437,42303,258460,238877
1631632642447,42305,258449,238887
1631632642457,42312,258466,238873
1631632642467,42328,258473,238891
1631632642477,42325,258430,238870
1631632642487,42331,258476,238889
1631632642497,42340,258493,238874
1631632642507,42350,258492,238888
1631632642517,42356,258494,238918
1631632642527,42375,258502,238917
1631632642537,42391,258470,238900
1631632642547,42413,258488,238912
1631632642557,42403,258482,238910
1631632642567,42407,258448,238922
1631632642577,42413,258453,238926
1631632642587,42411,258429,238905
1631632642597,42396,258424,238933
1631632642607,42394,258432,238926
1631632642617,42384,258409,238905
1631632642627,42364,258379,238919
1631632642637,42366,258405,238929
1631632642647,42355,258418,238972
1631632642657,42341,258363,238938
1631632642667,42335,258394,238987
1631632642677,42336,258379,239008
1631632642687,42327,258340,238985
1631632642697,42324,258314,239024
1631632642707,42319,258332,239011
1631632642717,42309,258312,238995
1631632642727,42306,258326,238993
1631632642737,42300,258316,238994
1631632642747,42304,258306,238985
1631632642757,42301,258253,238977
1631632642767,42297,258271,238980
1631632642777,42289,258267,238980
1631632642787,42293,258267,238992
1631632642797,42286,258312,239016
1631632642807,42305,258319,238998
1631632642817,42306,258263,239006
1631632642827,42309,258279,239048
1631632642837,42311,258307,239050
1631632642847,42307,258315,239065
1631632642857,42328,258308,239077
1631632642867,42325,258293,239139
1631632642877,42338,258304,239107
1631632642887,42337,258322,239148
1631632642897,42344,258341,239172
1631632642907,42351,258342,239176
1631632642917,42355,258347,239160
1631632642927,42354,258338,239168
1631632642937,42366,258368,239194
1631632642947,42371,258348,239192
1631632642957,42365,258335,239227
1631632642967,42375,258372,239211
1631632642977,42382,258347,239214
1631632642987,42396,258356,239220
1631632642997,42405,258337,239230
1631632643007,42406,258390,239222
1631632643017,42416,258347,239265
1631632643027,42418,258418,239319
1631632643037,42435,258402,239315
1631632643047,42436,258418,239318
1631632643057,42447,258413,239337
1631632643067,42450,258433,239341
1631632643077,42471,258448,239324
1631632643087,42474,258452,239327
1631632643097,42472,258456,239366
1631632643107,42490,258445,239367
1631632643117,42489,258415,239348
1631632643127,42495,258450,239358
1631632643137,42504,258432,239357
1631632643147,42509,258449,239381
1631632643157,42520,258482,239370
1631632643167,42517,258429,239376
1631632643177,42544,258450,239394
1631632643187,42548,258475,239370
1631632643197,42560,258456,239387
1631632643207,42569,258482,239372
1631632643217,42556,258483,239410
1631632643227,42569,258456,239380
1631632643237,42574,258448,239386
1631632643247,42597,258386,239373
1631632643257,42606,258428,239390
1631632643267,42607,258424,239361
1631632643277,42608,258398,239379
1631632643287,42614,258407,239340
1631632643297,42595,258385,239383
1631632643307,42588,258410,239373
1631632643317,42577,258341,239371
1631632643327,42583,258334,239393
1631632643337,42555,258308,239357
1631632643347,42558,258317,239371
1631632643357,42549,258286,239356
1631632643367,42542,258303,239418
1631632643377,42532,258277,239399
1631632643387,42530,258306,239403
1631632643397,42520,258265,239411
1631632643407,42519,258250,239409
1631632643417,42515,258287,239379
1631632643427,42515,258236,239409
1631632643437,42509,258255,239402
1631632643447,42514,258225,239385
1631632643457,42511,258239,239412
1631632643467,42504,258217,239394
1631632643477,42505,258224,239399
1631632643487,42505,258221,239400
1631632643497,42512,258233,239397
1631632643507,42522,258231,239434
1631632643517,42520,258215,239424
1631632643527,42530,258256,239423
1631632643537,42531,258208,239459
1631632643547,42520,258232,239441
1631632643557,42522,258271,239463
1631632643567,42533,258272,239461
1631632643577,42531,258192,239459
1631632643587,42531,258246,239482
1631632643597,42538,258225,239471
1631632643607,42527,258223,239437
1631632643617,42536,258260,239486
1631632643627,42537,258231,239438
1631632643637,42546,258255,239487
1631632643647,42555,258242,239466
1631632643657,42550,258237,239501
1631632643667,42560,258259,239502
1631632643677,42549,258298,239497
1631632643687,42551,258286,239523
1631632643697,42563,258285,239509
1631632643707,42572,258301,239529
1631632643717,42578,258321,239537
1631632643727,42578,258286,239528
1631632643737,42583,258304,239548
1631632643747,42598,258330,239555
1631632643757,42599,258313,239596
1631632643767,42603,258335,239605
1631632643777,42607,258346,239562
1631632643787,42617,258358,239592
1631632643797,42615,258367,239596
1631632643807,42625,258356,239595
1631632643817,42633,258364,239600
1631632643827,42646,258341,239618
1631632643837,42642,258369,239610
1631632643847,42655,258371,239610
1631632643857,42661,258361,239634
1631632643867,42664,258412,239607
1631632643877,42670,258417,239635
1631632643887,42674,258425,239656
1631632643897,42686,258441,239655
1631632643907,42699,258429,239662
1631632643917,42709,258424,239670
1631632643927,42703,258470,239691
1631632643937,42717,258454,239672
1631632643947,42723,258437,239673
1631632643957,42735,258474,239660
1631632643967,42738,258439,239686
1631632643977,42746,258417,239681
1631632643987,42744,258443,239688
1631632643997,42745,258412,239678
1631632644007,42740,258404,239703
1631632644017,42719,258442,239689
1631632644027,42716,258371,239708
1631632644037,42701,258381,239692
1631632644047,42690,258372,239698
1631632644057,42666,258371,239737
1631632644067,42669,258393,239757
1631632644077,42657,258361,239742
1631632644087,42649,258368,239742
1631632644097,42638,258381,239719
1631632644107,42631,258355,239756
1631632644117,42621,258387,239697
1631632644127,42619,258348,239709
1631632644137,42609,258315,239716
1631632644147,42605,258340,239710
1631632644157,42607,258326,239728
1631632644167,42587,258327,239721
1631632644177,42606,258321,239729
1631632644187,42590,258376,239724
1631632644197,42587,258362,239742
1631632644207,42602,258319,239730
1631632644217,42588,258326,239727
1631632644227,42598,258335,239769
1631632644237,42603,258309,239785
1631632644247,42595,258385,239825
1631632644257,42604,258379,239776
1631632644267,42605,258361,239785
1631632644277,42610,258358,239802
1631632644287,42612,258377,239813
1631632644297,42620,258346,239808
1631632644307,42604,258383,239827
1631632644317,42612,258361,239820
1631632644327,42625,258409,239813
1631632644337,42627,258383,239833
1631632644347,42616,258401,239842
1631632644357,42621,258390,239815
1631632644367,42623,258397,239829
1631632644377,42633,258431,239820
1631632644387,42634,258394,239849
1631632644397,42645,258406,239854
1631632644407,42650,258418,239878
1631632644417,42661,258411,239870
1631632644427,42664,258378,239889
1631632644437,42667,258467,239876
1631632644447,42679,258472,239899
1631632644457,42690,258485,239922
1631632644467,42689,258510,239950
1631632644477,42701,258507,239905
1631632644487,42702,258519,239961
1631632644497,42713,258555,239924
1631632644507,42719,258527,239969
1631632644517,42726,258548,239996
1631632644527,42743,258565,239996
1631632644537,42749,258580,239990
1631632644547,42761,258605,240044
1631632644557,42767,258611,240029
1631632644567,42775,258632,240017
1631632644577,42786,258638,240077
1631632644587,42802,258629,240066
1631632644597,42815,258671,240080
1631632644607,42821,258678,240052
1631632644617,42803,258670,240068
1631632644627,42837,258707,240091
1631632644637,42839,258670,240113
1631632644647,42848,258666,240110
1631632644657,42847,258676,240090
1631632644667,42867,258685,240066
1631632644677,42873,258643,240083
1631632644687,42864,258679,240085
1631632644697,42865,258640,240129
1631632644707,42848,258615,240118
1631632644717,42835,258622,240108
1631632644727,42831,258600,240117
1631632644737,42818,258557,240107
1631632644747,42802,258588,240118
1631632644757,42795,258577,240104
1631632644767,42786,258593,240130
1631632644777,42773,258592,240154
1631632644787,42764,258560,240135
1631632644797,42765,258585,240131
1631632644807,42750,258558,240142
1631632644817,42748,258595,240124
1631632644827,42738,258539,240138
1631632644837,42737,258505,240124
1631632644847,42738,258528,240114
1631632644857,42727,258526,240126
1631632644867,42739,258548,240115
1631632644877,42725,258548,240140
1631632644887,42730,258534,240140
1631632644897,42717,258554,240121
1631632644907,42735,258516,240137
1631632644917,42728,258557,240153
1631632644927,42726,258542,240158
1631632644937,42736,258532,240192
1631632644947,42735,258534,240187
1631632644957,42746,258565,240174
1631632644967,42750,258615,240194
1631632644977,42732,258604,240207
1631632644987,42743,258596,240190
1631632644997,42749,258618,240209
1631632645007,42755,258607,240222
1631632645017,42751,258633,240209
1631632645027,42760,258614,240185
1631632645037,42754,258663,240227
1631632645047,42773,258646,240245
1631632645057,42767,258625,240217
1631632645067,42770,258614,240198
1631632645077,42770,258621,240194
1631632645087,42781,258594,240164
1631632645097,42783,258663,240215
1631632645107,42786,258582,240212
1631632645117,42808,258641,240228
1631632645127,42803,258649,240219
1631632645137,42804,258656,240218
1631632645147,42822,258665,240232
1631632645157,42819,258692,240252
1631632645167,42831,258709,240257
1631632645177,42833,258726,240273
1631632645187,42842,258697,240310
1631632645197,42856,258700,240291
1631632645207,42863,258698,240276
1631632645217,42869,258688,240314
1631632645227,42875,258763,240314
1631632645237,42878,258748,240333
1631632645247,42886,258784,240264
1631632645257,42899,258753,240326
1631632645267,42895,258770,240332
1631632645277,42916,258754,240342
1631632645287,42923,258782,240340
1631632645297,42940,258767,240344
1631632645307,42952,258797,240341
1631632645317,42958,258850,240348
1631632645327,42966,258831,240409
1631632645337,42975,258852,240385
1631632645347,42986,258859,240407
1631632645357,42995,258855,240422
1631632645367,43013,258817,240429
1631632645377,43011,258812,240440
1631632645387,43005,258812,240433
1631632645397,43001,258813,240442
1631632645407,42984,258756,240434
1631632645417,42972,258759,240457
1631632645427,42970,258718,240425
1631632645437,42957,258740,240425
1631632645447,42954,258744,240466
1631632645457,42926,258751,240445
1631632645467,42925,258740,240479
1631632645477,42917,258804,240502
1631632645487,42914,258716,240500
1631632645497,42905,258746,240466
1631632645507,42908,258743,240501
1631632645517,42898,258688,240501
1631632645527,42900,258718,240502
1631632645537,42888,258719,240512
1631632645547,42897,258670,240510
1631632645557,42887,258665,240529
1631632645567,42885,258722,240537
1631632645577,42882,258714,240534
1631632645587,42888,258697,240526
1631632645597,42881,258715,240542
1631632645607,42883,258713,240599
1631632645617,42897,258707,240599
1631632645627,42908,258757,240589
1631632645637,42897,258733,240648
1631632645647,42908,258758,240645
1631632645657,42915,258786,240673
1631632645667,42924,258844,240703
1631632645677,42935,258809,240686
1631632645687,42947,258808,240723
1631632645697,42955,258835,240726
1631632645707,42958,258860,240751
1631632645717,42971,258861,240761
1631632645727,42968,258839,240748
1631632645737,42974,258840,240768
1631632645747,42978,258869,240768
1631632645757,42995,258916,240774
1631632645767,42998,258816,240760
1631632645777,42996,258897,240809
1631632645787,43016,258887,240812
1631632645797,43006,258871,240819
1631632645807,43020,258907,240828
1631632645817,43025,258906,240851
1631632645827,43029,258903,240844
1631632645837,43038,258944,240861
1631632645847,43061,258970,240870
1631632645857,43071,258952,240885
1631632645867,43080,258985,240890
1631632645877,43092,259007,240920
1631632645887,43085,259003,240897
1631632645897,43102,259054,240933
1631632645907,43106,258991,240954
1631632645917,43131,258983,240960
1631632645927,43124,258999,240944
1631632645937,43138,259003,240969
1631632645947,43145,259027,240995
1631632645957,43157,259053,240978
1631632645967,43154,259061,241011
1631632645977,43168,259053,240987
1631632645987,43175,259075,240966
1631632645997,43177,259045,240970
1631632646007,43200,259040,240947
1631632646017,43201,259028,240957
1631632646027,43199,259052,240978
1631632646037,43201,259022,240962
1631632646047,43211,259059,240930
1631632646057,43215,259053,240923
1631632646067,43227,259018,240960
1631632646077,43245,259041,240909
1631632646087,43244,259008,240909
1631632646097,43219,258984,240913
1631632646107,43228,258971,240888
1631632646117,43210,258939,240909
1631632646127,43186,258914,240892
1631632646137,43177,258929,240874
1631632646147,43162,258924,240897
1631632646157,43163,258887,240926
1631632646167,43153,258908,240889
1631632646177,43146,258899,240894
1631632646187,43124,258883,240895
1631632646197,43119,258898,240905
1631632646207,43120,258827,240885
1631632646217,43108,258834,240865
1631632646227,43102,258845,240849
1631632646237,43111,258802,240843
1631632646247,43099,258803,240817
1631632646257,43097,258793,240808
1631632646267,43103,258812,240836
1631632646277,43089,258784,240817
1631632646287,43091,258789,240798
1631632646297,43078,258767,240836
1631632646307,43081,258767,240837
1631632646317,43082,258797,240803
1631632646327,43086,258792,240828
1631632646337,43084,258788,240846
1631632646347,43096,258795,240832
1631632646357,43099,258813,240867
1631632646367,43099,258795,240890
1631632646377,43091,258833,240875
1631632646387,43094,258807,240868
1631632646397,43098,258799,240872
1631632646407,43103,258836,240887
1631632646417,43105,258813,240910
1631632646427,43113,258836,240909
1631632646437,43125,258803,240889
1631632646447,43114,258854,240885
1631632646457,43123,258830,240901
1631632646467,43129,258856,240905
1631632646477,43130,258845,240937
1631632646487,43143,258852,240933
1631632646497,43139,258863,240949
1631632646507,43158,258872,240931
1631632646517,43160,258875,240958
1631632646527,43171,258894,240962
1631632646537,43165,258920,240990
1631632646547,43165,258956,240962
1631632646557,43175,258961,240965
1631632646567,43183,258948,240996
1631632646577,43183,258941,240981
1631632646587,43207,258936,240955
1631632646597,43212,258973,241008
1631632646607,43214,258924,240978
1631632646617,43219,259000,241006
1631632646627,43227,258946,241010
1631632646637,43237,258993,241021
1631632646647,43245,258988,241002
1631632646657,43248,258991,241053
1631632646667,43267,259023,241030
1631632646677,43276,259021,241038
1631632646687,43283,259055,241040
1631632646697,43289,259016,241046
1631632646707,43292,259042,241022
1631632646717,43300,259046,241098
1631632646727,43318,259030,241088
1631632646737,43322,259065,241087
1631632646747,43328,259078,241091
1631632646757,43329,259075,241088
1631632646767,43338,259086,241124
1631632646777,43351,259078,241082
1631632646787,43355,259101,241104
1631632646797,43362,259068,241105
1631632646807,43352,259079,241121
1631632646817,43344,259030,241113
1631632646827,43334,259053,241118
1631632646837,43327,259013,241113
1631632646847,43321,259024,241110
1631632646857,43304,259024,241096
1631632646867,43297,259003,241135
1631632646877,43280,258946,241113
1631632646887,43281,258948,241141
1631632646897,43278,258993,241114
1631632646907,43272,258955,241138
1631632646917,43264,258974,241126
1631632646927,43245,258953,241126
1631632646937,43238,258941,241107
1631632646947,43233,258923,241078
1631632646957,43226,258952,241080
1631632646967,43223,258938,241073
1631632646977,43219,258922,241095
1631632646987,43221,258925,241083
1631632646997,43216,258928,241115
1631632647007,43214,258976,241113
1631632647017,43227,258971,241111
1631632647027,43223,258961,241146
1631632647037,43227,259021,241166
1631632647047,43240,259011,241163
1631632647057,43236,259035,241212
1631632647067,43238,259060,241209
1631632647077,43241,259037,241203
1631632647087,43238,259058,241223
1631632647097,43242,259047,241229
1631632647107,43234,259078,241231
1631632647117,43241,259054,241215
1631632647127,43246,259071,241199
1631632647137,43246,259067,241220
1631632647147,43248,259083,241214
1631632647157,43250,259063,241200
1631632647167,43264,259045,241199
1631632647177,43266,259050,241242
1631632647187,43260,259070,241187
1631632647197,43263,259051,241218
1631632647207,43259,259069,241230
1631632647217,43281,259027,241199
1631632647227,43287,259055,241220
1631632647237,43285,259065,241241
1631632647247,43294,259072,241211
1631632647257,43303,259045,241244
1631632647267,43297,259077,241210
1631632647277,43302,259065,241228
1631632647287,43307,259085,241227
1631632647297,43309,259042,241206
1631632647307,43315,259053,241158
1631632647317,43314,258981,241157
1631632647327,43314,259024,241135
1631632647337,43305,258992,241124
1631632647347,43305,259006,241084
1631632647357,43307,258942,241067
1631632647367,43306,259003,241058
1631632647377,43316,258980,241051
1631632647387,43301,258987,241042
1631632647397,43313,258980,241010
1631632647407,43332,258949,241007
1631632647417,43332,258963,241055
1631632647427,43332,258949,241039
1631632647437,43350,258967,241023
1631632647447,43352,258942,241022
1631632647457,43357,258970,241012
1631632647467,43370,258946,241028
1631632647477,43370,258931,240996
1631632647487,43366,258930,241011
1631632647497,43371,258914,240985
1631632647507,43356,258909,240997
1631632647517,43340,258914,240972
1631632647527,43335,258884,240954
1631632647537,43317,258875,240968
1631632647547,43298,258852,240966
1631632647557,43298,258838,240971
1631632647567,43294,258873,240978
1631632647577,43283,258846,240984
1631632647587,43257,258853,240935
1631632647597,43249,258847,240969
1631632647607,43236,258879,240985
1631632647617,43243,258840,241006
1631632647627,43225,258830,240973
1631632647637,43220,258826,240966
1631632647647,43213,258821,240956
1631632647657,43216,258807,240960
1631632647667,43202,258786,240942
1631632647677,43197,258804,240976
1631632647687,43190,258814,240931
1631632647697,43191,258830,240973
1631632647707,43191,258788,240937
1631632647717,43191,258822,240968
1631632647727,43196,258826,240966
1631632647737,43194,258869,240962
1631632647747,43194,258823,240974
1631632647757,43192,258829,241005
1631632647767,43188,258868,240999
1631632647777,43198,258869,240985
1631632647787,43189,258853,240986
1631632647797,43194,258859,241000
1631632647807,43199,258846,241013
1631632647817,43197,258830,241026
1631632647827,43194,258883,241000
1631632647837,43190,258867,240992
1631632647847,43193,258904,240982
1631632647857,43204,258878,240982
1631632647867,43207,258870,240979
1631632647877,43208,258897,241002
1631632647887,43204,258884,240989
1631632647897,43223,258885,240977
1631632647907,43214,258887,241022
1631632647917,43209,258905,240989
1631632647927,43216,258916,241019
1631632647937,43227,258879,241003
1631632647947,43239,258907,240969
1631632647957,43236,258909,240993
1631632647967,43233,258918,241023
1631632647977,43256,258940,241025
1631632647987,43246,258993,241009
1631632647997,43256,258937,241015
1631632648007,43275,258923,241029
1631632648017,43272,258958,241030
1631632648027,43275,258942,241043
1631632648037,43260,258947,241057
1631632648047,43288,258959,241015
1631632648057,43299,258989,240992
1631632648067,43295,259000,241034
1631632648077,43299,259016,241045
1631632648087,43303,259009,241072
1631632648097,43310,259058,241034
1631632648107,43333,259017,241075
1631632648117,43340,259060,241038
1631632648127,43342,259033,241035
1631632648137,43345,259056,241059
1631632648147,43346,259066,241045
1631632648157,43352,259066,241033
1631632648167,43358,259045,241024
1631632648177,43368,258997,241020
1631632648187,43379,258983,240998
1631632648197,43367,258991,240974
1631632648207,43380,258959,240976
1631632648217,43362,258956,240967
1631632648227,43353,258927,240935
1631632648237,43319,258910,240922
1631632648247,43308,258905,240935
1631632648257,43293,258880,240929
1631632648267,43288,258834,240932
1631632648277,43270,258866,240906
