timestamp,green,ir,red
1631632613009,45787,198654,195401
1631632613019,45783,198654,195385
1631632613029,45777,198649,195401
1631632613039,45796,198686,195402
1631632613049,45789,198695,195411
1631632613059,45784,198673,195412
1631632613069,45792,198672,195408
1631632613079,45789,198727,195400
1631632613089,45802,198692,195393
1631632613099,45799,198710,195385
1631632613109,45797,198707,195414
1631632613119,45810,198691,195405
1631632613129,45807,198680,195400
1631632613139,45812,198710,195410
1631632613149,45814,198726,195406
1631632613159,45820,198717,195402
1631632613169,45823,198712,195417
1631632613179,45832,198706,195408
1631632613189,45835,198709,195417
1631632613199,45841,198749,195398
1631632613209,45836,198750,195417
1631632613219,45842,198742,195389
1631632613229,45845,198749,195402
1631632613239,45849,198754,195415
1631632613249,45861,198775,195395
1631632613259,45858,198780,195391
1631632613269,45867,198764,195413
1631632613279,45867,198750,195406
1631632613289,45871,198767,195419
1631632613299,45867,198774,195399
1631632613309,45873,198780,195401
1631632613319,45881,198773,195389
1631632613329,45883,198805,195396
1631632613339,45895,198791,195403
1631632613349,45896,198786,195408
1631632613359,45902,198795,195403
1631632613369,45907,198810,195419
1631632613379,45910,198827,195437
1631632613389,45907,198750,195444
1631632613399,45905,198766,195452
1631632613409,45917,198797,195444
1631632613419,45896,198779,195466
1631632613429,45900,198759,195455
1631632613439,45896,198722,195442
1631632613449,45892,198728,195446
1631632613459,45871,198733,195442
1631632613469,45872,198725,195422
1631632613479,45864,198707,195437
1631632613489,45852,198710,195448
1631632613499,45856,198688,195413
1631632613509,45847,198694,195403
1631632613519,45842,198670,195427
1631632613529,45818,198665,195401
1631632613539,45818,198611,195403
1631632613549,45811,198621,195410
1631632613559,45802,198614,195397
1631632613569,45805,198605,195389
1631632613579,45794,198609,195360
1631632613589,45781,198606,195348
1631632613599,45777,198578,195344
1631632613609,45772,198606,195351
1631632613619,45757,198566,195354
1631632613629,45757,198552,195299
1631632613639,45737,198528,195295
1631632613649,45737,198534,195271
1631632613659,45734,198529,195272
1631632613669,45719,198490,195257
1631632613679,45712,198526,195241
1631632613689,45713,198536,195248
1631632613699,45704,198513,195224
1631632613709,45697,198479,195203
1631632613719,45687,198474,195208
1631632613729,45695,198492,195200
1631632613739,45678,198469,195186
1631632613749,45666,198489,195175
1631632613759,45678,198487,195162
1631632613769,45664,198452,195164
1631632613779,45669,198485,195178
1631632613789,45662,198457,195161
1631632613799,45642,198456,195139
1631632613809,45651,198444,195153
1631632613819,45643,198445,195142
1631632613829,45652,198425,195139
1631632613839,45644,198429,195122
1631632613849,45637,198471,195133
1631632613859,45642,198431,195131
1631632613869,45633,198453,195118
1631632613879,45631,198447,195126
1631632613889,45638,198429,195102
1631632613899,45631,198449,195120
1631632613909,45619,198456,195090
1631632613919,45631,198425,195113
1631632613929,45636,198452,195086
1631632613939,45620,198454,195084
1631632613949,45618,198431,195079
1631632613959,45612,198466,195079
1631632613969,45623,198474,195070
1631632613979,45625,198455,195047
1631632613989,45628,198479,195048
1631632613999,45623,198456,195069
1631632614009,45625,198480,195061
1631632614019,45616,198480,195044
1631632614029,45611,198478,195038
1631632614039,45626,198472,195035
1631632614049,45624,198494,195021
1631632614059,45621,198518,195010
1631632614069,45623,198468,195033
1631632614079,45610,198530,195002
1631632614089,45629,198532,195038
1631632614099,45624,198539,195004
1631632614109,45637,198533,195010
1631632614119,45645,198537,195009
1631632614129,45643,198539,195009
1631632614139,45643,198539,195022
1631632614149,45658,198529,195044
1631632614159,45665,198569,195074
1631632614169,45656,198581,195081
1631632614179,45636,198576,195095
1631632614189,45635,198583,195116
1631632614199,45615,198575,195099
1631632614209,45604,198529,195068
1631632614219,45594,198502,195051
1631632614229,45555,198471,195011
1631632614239,45546,198423,194968
1631632614249,45509,198363,194943
1631632614259,45502,198333,194904
1631632614269,45471,198285,194854
1631632614279,45442,198258,194811
1631632614289,45423,198205,194758
1631632614299,45394,198148,194712
1631632614309,45380,198107,194717
1631632614319,45362,198089,194716
1631632614329,45335,198076,194718
1631632614339,45330,198074,194728
1631632614349,45311,198047,194708
1631632614359,45308,198065,194704
1631632614369,45302,198075,194732
1631632614379,45281,198058,194752
1631632614389,45276,198065,194757
1631632614399,45288,198071,194776
1631632614409,45266,198074,194797
1631632614419,45266,198058,194781
1631632614429,45251,198074,194768
1631632614439,45241,198074,194783
1631632614449,45234,198024,194751
1631632614459,45216,197993,194726
1631632614469,45201,197980,194701
1631632614479,45181,197975,194707
1631632614489,45171,197944,194644
1631632614499,45161,197978,194636
1631632614509,45148,198018,194668
1631632614519,45146,198025,194686
1631632614529,45144,198061,194711
1631632614539,45140,198135,194727
1631632614549,45138,198092,194763
1631632614559,45129,198146,194766
1631632614569,45129,198171,194802
1631632614579,45132,198197,194833
1631632614589,45124,198270,194864
1631632614599,45131,198314,194880
1631632614609,45138,198344,194930
1631632614619,45131,198356,194941
1631632614629,45138,198382,194959
1631632614639,45138,198390,194958
1631632614649,45145,198428,194969
1631632614659,45147,198430,194989
1631632614669,45161,198448,195021
1631632614679,45149,198476,195043
1631632614689,45150,198462,195015
1631632614699,45154,198476,195006
1631632614709,45166,198434,194999
1631632614719,45165,198441,195034
1631632614729,45154,198469,195048
1631632614739,45164,198422,195043
1631632614749,45153,198372,195031
1631632614759,45122,198290,194978
1631632614769,45109,198189,194957
1631632614779,45106,198116,194910
1631632614789,45087,198051,194889
1631632614799,45080,198033,194914
1631632614809,45084,198039,194902
1631632614819,45070,198032,194907
1631632614829,45072,197995,194890
1631632614839,45064,197979,194871
1631632614849,45059,197973,194861
1631632614859,45054,197934,194871
1631632614869,45058,197904,194891
1631632614879,45066,197929,194885
1631632614889,45070,197958,194897
1631632614899,45069,197969,194918
1631632614909,45068,198002,194970
1631632614919,45065,197983,194962
1631632614929,45064,198018,195024
1631632614939,45055,198093,195041
1631632614949,45060,198132,195085
1631632614959,45050,198199,195154
1631632614969,45051,198277,195194
1631632614979,45050,198398,195263
1631632614989,45049,198457,195326
1631632614999,45044,198560,195394
1631632615009,45043,198654,195446
1631632615019,45040,198731,195470
1631632615029,45028,198779,195510
1631632615039,45020,198812,195558
1631632615049,45031,198860,195572
1631632615059,45013,198910,195591
1631632615069,45014,198911,195599
1631632615079,44994,198903,195603
1631632615089,44961,198843,195603
1631632615099,44950,198794,195603
1631632615109,44929,198772,195583
1631632615119,44914,198717,195573
1631632615129,44891,198673,195561
1631632615139,44872,198607,195535
1631632615149,44853,198614,195522
1631632615159,44846,198589,195532
1631632615169,44839,198567,195533
1631632615179,44895,198906,195995
1631632615189,45456,201627,198011
1631632615199,45731,202952,199270
1631632615209,45917,203941,200359
1631632615219,46228,205310,201745
1631632615229,46606,207116,203252
1631632615239,46856,208286,204035
1631632615249,46770,208035,203674
1631632615259,46483,207011,202600
1631632615269,46202,206023,201583
1631632615279,46034,205634,200943
1631632615289,45787,204406,199856
1631632615299,45288,201816,197903
1631632615309,44705,198640,195591
1631632615319,44086,195450,193423
1631632615329,43665,193347,192245
1631632615339,43880,194102,193175
1631632615349,44183,195201,194298
1631632615359,44520,196367,195513
1631632615369,44683,196981,196158
1631632615379,44586,196255,195781
1631632615389,44377,195208,195048
1631632615399,44245,194720,194770
1631632615409,44214,194680,194321
1631632615419,44250,195075,193998
1631632615429,44281,195448,194080
1631632615439,44293,195516,194070
1631632615449,44290,195537,194024
1631632615459,44301,195528,193982
1631632615469,44278,195513,193949
1631632615479,44288,195424,193862
1631632615489,44267,195322,193764
1631632615499,44261,195212,193673
1631632615509,44251,195130,193574
1631632615519,44242,195041,193491
1631632615529,44248,195019,193416
1631632615539,44239,195050,193375
1631632615549,44222,195118,193409
1631632615559,44233,195257,193500
1631632615569,44252,195494,193628
1631632615579,44289,195614,193750
1631632615589,44351,196007,194036
1631632615599,44486,196707,194452
1631632615609,44564,197220,194724
1631632615619,44582,197318,194690
1631632615629,44516,197064,194507
1631632615639,44525,197095,194547
1631632615649,44543,197176,194632
1631632615659,44620,197592,195003
1631632615669,44837,198649,195856
1631632615679,45166,200262,197061
1631632615689,45600,202375,198706
1631632615699,46033,204703,200452
1631632615709,46403,206663,201918
1631632615719,46684,208482,203403
1631632615729,46961,210029,204699
1631632615739,47175,210930,205596
1631632615749,47327,211593,206276
1631632615759,47438,211896,206672
1631632615769,47435,211829,206665
1631632615779,47434,211799,206728
1631632615789,47461,212084,206938
1631632615799,47536,212736,207361
1631632615809,47674,213572,208009
1631632615819,47853,214648,208833
1631632615829,48179,216010,209960
1631632615839,48576,217692,211534
1631632615849,49029,219702,213163
1631632615859,49435,221495,214523
1631632615869,49795,223040,215458
1631632615879,50148,224391,216577
1631632615889,50483,225617,217421
1631632615899,50804,226381,218176
1631632615909,51061,227288,218721
1631632615919,51460,228785,219989
1631632615929,51988,230737,221578
1631632615939,52565,232750,223189
1631632615949,53140,234552,224876
1631632615959,53609,235601,226151
1631632615969,53896,235917,226991
1631632615979,53940,235499,227124
1631632615989,53784,234608,226587
1631632615999,53488,233649,225699
1631632616009,53148,232896,224535
1631632616019,52818,232293,223305
1631632616029,52536,231926,222148
1631632616039,52309,231864,221158
1631632616049,52137,232156,220194
1631632616059,51955,232231,219114
1631632616069,51783,232262,218191
1631632616079,51724,232594,217672
1631632616089,51773,233530,217619
1631632616099,52066,235383,218349
1631632616109,52489,237380,219324
1631632616119,52872,239013,220161
1631632616129,53219,240135,220866
1631632616139,53443,240945,221181
1631632616149,53767,241880,221848
1631632616159,54033,242776,222523
1631632616169,54268,243734,223267
1631632616179,54585,244551,224005
1631632616189,54799,245126,224544
1631632616199,54858,244941,224577
1631632616209,54723,244060,224227
1631632616219,54474,242989,223621
1631632616229,54274,241900,223107
1631632616239,54040,240725,222594
1631632616249,53771,239113,221842
1631632616259,53120,235806,219444
1631632616269,52324,231980,216910
1631632616279,51506,227919,213973
1631632616289,50628,223538,210887
1631632616299,49601,218502,207414
1631632616309,48614,213634,204126
1631632616319,47599,208240,200595
1631632616329,46352,201777,196359
1631632616339,44687,193486,190546
1631632616349,42721,184141,183965
1631632616359,40997,175806,177751
1631632616369,39240,167493,171381
1631632616379,37371,159348,164813
1631632616389,35558,151897,158743
1631632616399,34286,147286,154940
1631632616409,33388,144186,152573
1631632616419,32843,142506,151392
1631632616429,32986,144064,153293
1631632616439,35474,155167,163188
1631632616449,35958,157164,164693
1631632616459,36105,157870,165296
1631632616469,36181,158267,165637
1631632616479,36205,158452,165814
1631632616489,36234,158628,166007
1631632616499,36254,158830,166214
1631632616509,36280,158917,166246
1631632616519,36248,158964,166288
1631632616529,36233,158924,166298
1631632616539,36219,158936,166307
1631632616549,36204,158977,166329
1631632616559,36198,158998,166338
1631632616569,36193,159015,166350
1631632616579,36186,159085,166395
1631632616589,36178,159081,166408
1631632616599,36174,159124,166454
1631632616609,36174,159147,166482
1631632616619,36171,159132,166502
1631632616629,36162,159154,166528
1631632616639,36159,159160,166527
1631632616649,36158,159148,166535
1631632616659,36144,159115,166524
1631632616669,36133,159097,166514
1631632616679,36116,159089,166489
1631632616689,36119,159099,166471
1631632616699,36102,159094,166458
1631632616709,36092,159091,166449
1631632616719,36092,159087,166454
1631632616729,36090,159066,166442
1631632616739,36088,159083,166456
1631632616749,36094,159103,166446
1631632616759,36090,159146,166467
1631632616769,36100,159167,166491
1631632616779,36095,159199,166510
1631632616789,36106,159207,166526
1631632616799,36101,159243,166530
1631632616809,36107,159207,166521
1631632616819,36092,159216,166506
1631632616829,36103,159212,166524
1631632616839,36092,159221,166498
1631632616849,36096,159217,166513
1631632616859,36109,159244,166502
1631632616869,36110,159252,166483
1631632616879,36098,159239,166475
1631632616889,36104,159206,166440
1631632616899,36101,159204,166417
1631632616909,36095,159187,166383
1631632616919,36087,159150,166368
1631632616929,36075,159109,166321
1631632616939,36072,159077,166319
1631632616949,36065,159057,166323
1631632616959,36068,159044,166282
1631632616969,36077,159032,166294
1631632616979,36074,159011,166279
1631632616989,36071,158997,166260
1631632616999,36075,158967,166276
1631632617009,36072,158953,166253
1631632617019,36067,158903,166258
1631632617029,36075,158918,166259
1631632617039,36068,158872,166235
1631632617049,36066,158828,166265
1631632617059,36079,158838,166293
1631632617069,36079,158827,166303
1631632617079,36101,158895,166419
1631632617089,36112,158912,166449
1631632617099,36121,158933,166479
1631632617109,36131,159015,166581
1631632617119,36131,159012,166593
1631632617129,36134,159050,166667
1631632617139,36127,159043,166696
1631632617149,36161,159176,166837
1631632617159,36193,159313,166961
1631632617169,36208,159390,167097
1631632617179,36241,159449,167201
1631632617189,36269,159582,167356
1631632617199,36300,159686,167470
1631632617209,36327,159789,167606
1631632617219,36395,160073,167934
1631632617229,36634,161064,168962
1631632617239,36829,161859,169686
1631632617249,36938,162287,170097
1631632617259,37041,162703,170471
1631632617269,37097,162941,170720
1631632617279,37143,163088,170845
1631632617289,37213,163433,171179
1631632617299,37363,164051,171728
1631632617309,37461,164454,172085
1631632617319,37537,164733,172177
1631632617329,37567,164894,172320
1631632617339,37627,165152,172520
1631632617349,37695,165461,172809
1631632617359,37818,165988,173244
1631632617369,37874,166201,173444
1631632617379,37919,166375,173586
1631632617389,37949,166533,173730
1631632617399,37989,166653,173849
1631632617409,38007,166767,173951
1631632617419,38048,166888,174075
1631632617429,38076,167034,174218
1631632617439,38124,167168,174341
1631632617449,38166,167317,174481
1631632617459,38197,167418,174577
1631632617469,38228,167546,174706
1631632617479,38242,167646,174838
1631632617489,38301,167862,174982
1631632617499,38361,168045,175186
1631632617509,38395,168181,175321
1631632617519,38429,168263,175363
1631632617529,38436,168307,175370
1631632617539,38431,168345,175355
1631632617549,38447,168357,175389
1631632617559,38453,168392,175418
1631632617569,38480,168441,175472
1631632617579,38493,168514,175510
1631632617589,38512,168574,175540
1631632617599,38514,168577,175566
1631632617609,38525,168635,175552
1631632617619,38544,168677,175598
1631632617629,38543,168743,175658
1631632617639,38564,168760,175668
1631632617649,38582,168865,175693
1631632617659,38577,168890,175732
1631632617669,38607,168931,175782
1631632617679,38631,169039,175834
1631632617689,38649,169155,175888
1631632617699,38670,169215,175937
1631632617709,38698,169300,175982
1631632617719,38715,169391,176051
1631632617729,38737,169458,176113
1631632617739,38753,169534,176176
1631632617749,38764,169568,176209
1631632617759,38772,169614,176234
1631632617769,38786,169645,176260
1631632617779,38800,169695,176304
1631632617789,38798,169727,176329
1631632617799,38793,169777,176350
1631632617809,38801,169800,176395
1631632617819,38799,169838,176415
1631632617829,38806,169877,176443
1631632617839,38804,169912,176454
1631632617849,38814,169985,176516
1631632617859,38831,170037,176549
1631632617869,38830,170116,176592
1631632617879,38858,170177,176654
1631632617889,38860,170257,176682
1631632617899,38875,170301,176750
1631632617909,38879,170356,176806
1631632617919,38898,170443,176854
1631632617929,38907,170477,176898
1631632617939,38923,170563,176919
1631632617949,38935,170600,176974
1631632617959,38939,170642,176995
1631632617969,38944,170664,177005
1631632617979,38938,170663,177023
1631632617989,38946,170663,177019
1631632617999,38938,170704,177019
1631632618009,38937,170668,177008
1631632618019,38936,170640,176988
1631632618029,38934,170618,176953
1631632618039,38926,170559,176909
1631632618049,38907,170513,176863
1631632618059,38904,170463,176852
1631632618069,38894,170471,176796
1631632618079,38879,170465,176759
1631632618089,38880,170424,176744
1631632618099,38879,170429,176734
1631632618109,38889,170409,176735
1631632618119,38899,170438,176766
1631632618129,38897,170477,176799
1631632618139,38915,170480,176828
1631632618149,38922,170558,176865
1631632618159,38918,170567,176885
1631632618169,38929,170601,176941
1631632618179,38948,170628,176942
1631632618189,38951,170666,176953
1631632618199,38965,170687,176959
1631632618209,38967,170717,176960
1631632618219,38965,170702,176985
1631632618229,38961,170722,176985
1631632618239,38969,170705,176983
1631632618249,38971,170711,176952
1631632618259,38973,170728,176972
1631632618269,38986,170759,176973
1631632618279,38991,170747,176964
1631632618289,39001,170774,176980
1631632618299,38998,170779,176965
1631632618309,39012,170815,177004
1631632618319,39014,170855,177028
1631632618329,39017,170889,177031
1631632618339,39040,170914,177036
1631632618349,39043,170945,177051
1631632618359,39044,170967,177087
1631632618369,39055,170982,177102
1631632618379,39062,170985,177085
1631632618389,39069,171026,177110
1631632618399,39077,171021,177117
1631632618409,39075,171035,177117
1631632618419,39085,171057,177144
1631632618429,39102,171044,177141
1631632618439,39084,171069,177139
1631632618449,39101,171055,177175
1631632618459,39093,171038,177166
1631632618469,39100,171035,177198
1631632618479,39088,171028,177181
1631632618489,39085,171026,177179
1631632618499,39088,171025,177189
1631632618509,39079,171013,177205
1631632618519,39065,171008,177206
1631632618529,39067,171017,177219
1631632618539,39068,170998,177206
1631632618549,39057,171021,177201
1631632618559,39046,171009,177211
1631632618569,39043,171002,177211
1631632618579,39049,171020,177229
1631632618589,39036,171010,177219
1631632618599,39046,171003,177234
1631632618609,39033,171014,177224
1631632618619,39029,170982,177213
1631632618629,39028,170997,177212
1631632618639,39012,170984,177209
1631632618649,39010,170988,177185
1631632618659,39009,170972,177164
1631632618669,39002,170978,177164
1631632618679,39001,170988,177171
1631632618689,38995,170989,177163
1631632618699,38998,170981,177163
1631632618709,38990,170993,177170
1631632618719,38995,171017,177176
1631632618729,38998,171035,177187
1631632618739,38996,171031,177198
1631632618749,38993,171044,177211
1631632618759,39008,171088,177212
1631632618769,38997,171061,177247
1631632618779,39017,171129,177237
1631632618789,39019,171107,177246
1631632618799,39000,171145,177250
1631632618809,39021,171148,177250
1631632618819,39009,171151,177258
1631632618829,39024,171155,177273
1631632618839,39020,171157,177246
1631632618849,39017,171156,177275
1631632618859,39025,171177,177260
1631632618869,39023,171183,177287
1631632618879,39021,171208,177284
1631632618889,39025,171229,177307
1631632618899,39031,171234,177272
1631632618909,39032,171254,177309
1631632618919,39039,171246,177311
1631632618929,39045,171270,177304
1631632618939,39040,171272,177313
1631632618949,39047,171283,177309
1631632618959,39040,171275,177316
1631632618969,39046,171276,177326
1631632618979,39047,171291,177340
1631632618989,39062,171290,177341
1631632618999,39066,171312,177328
1631632619009,39071,171317,177350
1631632619019,39064,171329,177368
1631632619029,39079,171325,177354
1631632619039,39075,171335,177397
1631632619049,39084,171362,177381
1631632619059,39081,171359,177377
1631632619069,39083,171375,177390
1631632619079,39096,171376,177372
1631632619089,39116,171362,177382
1631632619099,39109,171357,177387
1631632619109,39101,171399,177393
1631632619119,39103,171386,177410
1631632619129,39125,171374,177432
1631632619139,39129,171378,177434
1631632619149,39121,171356,177441
1631632619159,39119,171341,177426
1631632619169,39115,171354,177423
1631632619179,39120,171360,177435
1631632619189,39099,171326,177440
1631632619199,39091,171327,177430
1631632619209,39081,171320,177444
1631632619219,39072,171307,177438
1631632619229,39070,171313,177436
1631632619239,39068,171334,177431
1631632619249,39062,171293,177448
1631632619259,39047,171316,177457
1631632619269,39069,171315,177461
1631632619279,39052,171335,177468
1631632619289,39045,171330,177480
1631632619299,39040,171317,177466
1631632619309,39035,171332,177471
1631632619319,39032,171312,177498
1631632619329,39029,171330,177458
1631632619339,39032,171299,177441
1631632619349,39027,171299,177449
1631632619359,39008,171296,177434
1631632619369,38995,171276,177434
1631632619379,38993,171288,177416
1631632619389,39008,171281,177420
1631632619399,39016,171290,177425
1631632619409,39015,171269,177420
1631632619419,39001,171300,177430
1631632619429,38992,171311,177447
1631632619439,38993,171289,177454
1631632619449,38997,171299,177442
1631632619459,38999,171287,177437
1631632619469,38990,171273,177437
1631632619479,38990,171274,177429
1631632619489,38984,171301,177443
1631632619499,38994,171262,177423
1631632619509,38988,171280,177422
1631632619519,38982,171281,177428
1631632619529,38982,171297,177441
1631632619539,38984,171283,177415
1631632619549,38978,171327,177430
1631632619559,38984,171295,177402
1631632619569,38976,171320,177427
1631632619579,38984,171289,177430
1631632619589,38985,171308,177428
1631632619599,38998,171305,177421
1631632619609,38993,171311,177408
1631632619619,38986,171323,177429
1631632619629,38985,171338,177420
1631632619639,38985,171352,177432
1631632619649,38991,171344,177412
1631632619659,39003,171340,177435
1631632619669,38995,171356,177447
1631632619679,39005,171359,177451
1631632619689,39010,171349,177449
1631632619699,39013,171374,177450
1631632619709,39016,171371,177446
1631632619719,39033,171390,177456
1631632619729,39029,171401,177450
1631632619739,39010,171403,177463
1631632619749,39033,171418,177464
1631632619759,39024,171429,177484
1631632619769,39026,171422,177469
1631632619779,39028,171429,177465
1631632619789,39033,171428,177487
1631632619799,39037,171468,177496
1631632619809,39053,171481,177528
1631632619819,39061,171493,177548
1631632619829,39066,171515,177564
1631632619839,39063,171491,177571
1631632619849,39064,171483,177576
1631632619859,39056,171487,177597
1631632619869,39040,171452,177607
1631632619879,39026,171441,177607
1631632619889,39017,171430,177580
1631632619899,39015,171426,177597
1631632619909,39009,171449,177603
1631632619919,39001,171423,177587
1631632619929,38997,171423,177615
1631632619939,38993,171433,177617
1631632619949,38980,171431,177638
1631632619959,38979,171434,177614
1631632619969,38967,171436,177630
1631632619979,38970,171427,177641
1631632619989,38964,171439,177642
1631632619999,38948,171413,177640
1631632620009,38946,171413,177656
1631632620019,38943,171422,177660
1631632620029,38933,171391,177638
1631632620039,38928,171407,177641
1631632620049,38927,171406,177623
1631632620059,38912,171417,177654
1631632620069,38905,171416,177664
1631632620079,38909,171419,177652
1631632620089,38903,171411,177632
1631632620099,38898,171397,177628
1631632620109,38902,171420,177649
1631632620119,38899,171395,177640
1631632620129,38901,171412,177640
1631632620139,38891,171405,177656
1631632620149,38890,171402,177646
1631632620159,38890,171425,177650
1631632620169,38878,171419,177657
1631632620179,38874,171443,177653
1631632620189,38878,171421,177655
1631632620199,38877,171462,177665
1631632620209,38878,171443,177654
1631632620219,38877,171471,177677
1631632620229,38881,171449,177684
1631632620239,38867,171444,177675
1631632620249,38870,171473,177667
1631632620259,38878,171487,177668
1631632620269,38879,171490,177694
1631632620279,38881,171482,177679
1631632620289,38870,171477,177687
1631632620299,38877,171493,177685
1631632620309,38880,171494,177696
1631632620319,38883,171470,177692
1631632620329,38878,171499,177662
1631632620339,38877,171492,177662
1631632620349,38883,171478,177658
1631632620359,38882,171515,177683
1631632620369,38899,171528,177670
1631632620379,38887,171476,177668
1631632620389,38891,171525,177688
1631632620399,38886,171525,177691
1631632620409,38906,171522,177694
1631632620419,38904,171551,177710
1631632620429,38916,171528,177689
1631632620439,38898,171531,177703
1631632620449,38906,171548,177681
1631632620459,38915,171569,177696
1631632620469,38916,171582,177683
1631632620479,38919,171565,177711
1631632620489,38916,171579,177702
1631632620499,38918,171595,177711
1631632620509,38926,171618,177729
1631632620519,38934,171587,177745
1631632620529,38944,171578,177730
1631632620539,38945,171582,177765
1631632620549,38933,171574,177755
1631632620559,38926,171557,177772
1631632620569,38925,171551,177771
1631632620579,38917,171535,177779
1631632620589,38900,171513,177757
1631632620599,38893,171525,177749
1631632620609,38886,171529,177775
1631632620619,38881,171527,177768
1631632620629,38876,171523,177771
1631632620639,38867,171506,177760
1631632620649,38863,171504,177795
1631632620659,38858,171486,177785
1631632620669,38847,171510,177782
1631632620679,38841,171495,177791
1631632620689,38834,171497,177781
1631632620699,38826,171465,177754
1631632620709,38806,171479,177780
1631632620719,38810,171466,177774
1631632620729,38809,171439,177771
1631632620739,38791,171440,177765
1631632620749,38796,171444,177771
1631632620759,38785,171447,177757
1631632620769,38786,171446,177751
1631632620779,38785,171457,177769
1631632620789,38783,171434,177755
1631632620799,38774,171450,177741
1631632620809,38777,171448,177758
1631632620819,38775,171439,177742
1631632620829,38772,171422,177749
1631632620839,38775,171442,177762
1631632620849,38775,171453,177759
1631632620859,38776,171452,177756
1631632620869,38762,171451,177746
1631632620879,38761,171420,177734
1631632620889,38771,171408,177741
1631632620899,38761,171425,177739
1631632620909,38760,171420,177754
1631632620919,38759,171422,177750
1631632620929,38773,171436,177749
1631632620939,38770,171427,177765
1631632620949,38782,171438,177732
1631632620959,38771,171424,177763
1631632620969,38781,171473,177746
1631632620979,38769,171444,177739
1631632620989,38768,171464,177744
1631632620999,38772,171465,177754
1631632621009,38790,171461,177746
1631632621019,38779,171487,177763
1631632621029,38785,171497,177750
1631632621039,38791,171462,177742
1631632621049,38794,171470,177743
1631632621059,38792,171444,177752
1631632621069,38794,171446,177758
1631632621079,38800,171481,177751
1631632621089,38806,171503,177746
1631632621099,38809,171489,177764
1631632621109,38809,171486,177755
1631632621119,38813,171491,177755
1631632621129,38819,171479,177757
1631632621139,38813,171497,177761
1631632621149,38819,171489,177763
1631632621159,38825,171504,177769
1631632621169,38828,171521,177742
1631632621179,38832,171521,177763
1631632621189,38845,171527,177761
1631632621199,38838,171539,177737
1631632621209,38860,171537,177771
1631632621219,38860,171520,177793
1631632621229,38874,171522,177781
1631632621239,38886,171553,177808
1631632621249,38876,171540,177811
1631632621259,38879,171546,177806
1631632621269,38890,171530,177830
1631632621279,38881,171518,177850
1631632621289,38872,171549,177841
1631632621299,38864,171494,177840
1631632621309,38859,171500,177849
1631632621319,38849,171485,177856
1631632621329,38846,171486,177854
1631632621339,38843,171494,177863
1631632621349,38852,171494,177875
1631632621359,38842,171519,177876
1631632621369,38836,171510,177871
1631632621379,38826,171483,177862
1631632621389,38828,171495,177884
1631632621399,38818,171500,177851
1631632621409,38816,171479,177854
1631632621419,38823,171449,177848
1631632621429,38811,171480,177865
1631632621439,38813,171453,177843
1631632621449,38809,171453,177841
1631632621459,38819,171467,177845
1631632621469,38807,171461,177851
1631632621479,38812,171484,177846
1631632621489,38815,171468,177861
1631632621499,38815,171470,177886
1631632621509,38817,171479,177877
1631632621519,38833,171504,177892
1631632621529,38833,171540,177901
1631632621539,38832,171515,177904
1631632621549,38828,171553,177901
1631632621559,38837,171540,177909
1631632621569,38847,171535,177919
1631632621579,38851,171573,177943
1631632621589,38852,171549,177928
1631632621599,38858,171572,177938
1631632621609,38858,171618,177971
1631632621619,38856,171592,177972
1631632621629,38864,171592,177974
1631632621639,38869,171588,177987
1631632621649,38877,171621,178007
1631632621659,38882,171638,178027
1631632621669,38884,171658,178005
1631632621679,38897,171671,178016
1631632621689,38902,171667,178033
1631632621699,38911,171689,178035
1631632621709,38913,171695,178071
1631632621719,38914,171728,178081
1631632621729,38931,171783,178083
1631632621739,38936,171762,178105
1631632621749,38951,171807,178113
1631632621759,38958,171838,178120
1631632621769,38963,171838,178142
1631632621779,38970,171880,178166
1631632621789,38972,171892,178193
1631632621799,38984,171923,178192
1631632621809,38994,171950,178196
1631632621819,39002,171962,178234
1631632621829,39019,171962,178242
1631632621839,39022,171999,178254
1631632621849,39034,172020,178255
1631632621859,39032,172070,178266
1631632621869,39037,171899,178299
1631632621879,39053,171892,178292
1631632621889,39065,171912,178338
1631632621899,39079,171940,178358
1631632621909,39095,171992,178378
1631632621919,39092,172030,178404
1631632621929,39113,172030,178429
1631632621939,39122,172035,178475
1631632621949,39125,172073,178516
1631632621959,39125,172111,178546
1631632621969,39131,172133,178561
1631632621979,39126,172127,178572
1631632621989,39144,172153,178605
1631632621999,39151,172144,178614
1631632622009,39142,172177,178628
1631632622019,39142,172204,178659
1631632622029,39151,172194,178652
1631632622039,39146,172223,178669
1631632622049,39144,172218,178680
1631632622059,39151,172240,178719
1631632622069,39156,172268,178725
1631632622079,39160,172252,178735
1631632622089,39154,172284,178719
1631632622099,39166,172284,178755
1631632622109,39166,172295,178775
1631632622119,39164,172315,178759
1631632622129,39169,172333,178779
1631632622139,39168,172339,178798
1631632622149,39178,172377,178809
1631632622159,39185,172427,178818
1631632622169,39182,172398,178842
1631632622179,39192,172431,178847
1631632622189,39198,172440,178861
1631632622199,39205,172444,178840
1631632622209,39207,172457,178891
1631632622219,39210,172477,178881
1631632622229,39223,172479,178901
1631632622239,39234,172512,178922
1631632622249,39240,172543,178917
1631632622259,39240,172533,178937
1631632622269,39247,172558,178948
1631632622279,39253,172603,178978
1631632622289,39249,172611,178990
1631632622299,39263,172633,178977
1631632622309,39261,172644,179010
1631632622319,39271,172653,179021
1631632622329,39277,172700,179020
1631632622339,39297,172699,179022
1631632622349,39293,172736,179045
1631632622359,39299,172731,179059
1631632622369,39308,172762,179044
1631632622379,39314,172801,179084
1631632622389,39315,172806,179078
1631632622399,39331,172822,179088
1631632622409,39334,172831,179085
1631632622419,39332,172870,179092
1631632622429,39336,172846,179098
1631632622439,39337,172890,179117
1631632622449,39343,172899,179125
1631632622459,39349,172924,179107
1631632622469,39351,172915,179098
1631632622479,39362,172945,179117
1631632622489,39382,172990,179116
1631632622499,39373,172982,179135
1631632622509,39387,172991,179116
1631632622519,39385,173028,179156
1631632622529,39392,173046,179128
1631632622539,39415,173098,179172
1631632622549,39424,173107,179175
1631632622559,39438,173131,179226
1631632622569,39443,173155,179248
1631632622579,39444,173160,179265
1631632622589,39454,173173,179278
1631632622599,39466,173201,179325
1631632622609,39471,173204,179295
1631632622619,39467,173209,179329
1631632622629,39473,173234,179356
1631632622639,39491,173238,179372
1631632622649,39471,173296,179401
1631632622659,39480,173307,179417
1631632622669,39481,173317,179443
1631632622679,39491,173327,179436
1631632622689,39487,173346,179461
1631632622699,39483,173363,179496
1631632622709,39501,173379,179493
1631632622719,39492,173375,179510
1631632622729,39501,173415,179509
1631632622739,39498,173425,179526
1631632622749,39500,173447,179541
1631632622759,39505,173448,179554
1631632622769,39507,173461,179565
1631632622779,39509,173465,179573
1631632622789,39512,173476,179567
1631632622799,39520,173493,179555
1631632622809,39520,173501,179597
1631632622819,39512,173502,179585
1631632622829,39506,173493,179613
1631632622839,39536,173504,179608
1631632622849,39529,173494,179602
1631632622859,39538,173532,179600
1631632622869,39538,173542,179619
1631632622879,39542,173529,179631
1631632622889,39543,173524,179624
1631632622899,39550,173527,179620
1631632622909,39549,173516,179627
1631632622919,39545,173528,179621
1631632622929,39549,173522,179622
1631632622939,39559,173532,179615
1631632622949,39559,173548,179626
1631632622959,39570,173516,179611
1631632622969,39568,173549,179611
1631632622979,39575,173538,179609
1631632622989,39576,173558,179615
1631632622999,39599,173578,179634
1631632623009,39581,173556,179632
1631632623019,39586,173544,179614
1631632623029,39589,173552,179657
1631632623039,39593,173542,179633
1631632623049,39602,173544,179634
1631632623059,39604,173555,179615
1631632623069,39605,173556,179622
1631632623079,39611,173561,179636
1631632623089,39608,173572,179628
1631632623099,39620,173567,179628
1631632623109,39624,173574,179641
1631632623119,39621,173578,179631
1631632623129,39624,173589,179592
1631632623139,39627,173593,179638
1631632623149,39636,173618,179633
1631632623159,39657,173599,179613
1631632623169,39649,173632,179634
1631632623179,39650,173598,179626
1631632623189,39663,173639,179621
1631632623199,39671,173608,179615
1631632623209,39679,173651,179637
1631632623219,39675,173647,179648
1631632623229,39692,173649,179678
1631632623239,39696,173649,179670
1631632623249,39704,173685,179677
1631632623259,39715,173650,179700
1631632623269,39717,173659,179711
1631632623279,39714,173651,179728
1631632623289,39716,173669,179723
1631632623299,39714,173666,179730
1631632623309,39711,173642,179729
1631632623319,39720,173627,179734
1631632623329,39729,173640,179734
1631632623339,39716,173623,179734
1631632623349,39712,173623,179749
1631632623359,39716,173651,179772
1631632623369,39715,173637,179756
1631632623379,39712,173632,179735
1631632623389,39719,173642,179761
1631632623399,39714,173622,179743
1631632623409,39707,173631,179739
1631632623419,39703,173610,179751
1631632623429,39708,173618,179753
1631632623439,39709,173599,179741
1631632623449,39704,173600,179745
1631632623459,39704,173605,179716
1631632623469,39705,173602,179720
1631632623479,39700,173608,179709
1631632623489,39702,173586,179711
1631632623499,39708,173585,179744
1631632623509,39713,173598,179734
1631632623519,39710,173618,179744
1631632623529,39720,173603,179713
1631632623539,39727,173598,179735
1631632623549,39716,173633,179725
1631632623559,39726,173604,179730
1631632623569,39719,173623,179739
1631632623579,39724,173586,179736
1631632623589,39726,173592,179722
1631632623599,39723,173609,179716
1631632623609,39727,173604,179746
1631632623619,39732,173623,179762
1631632623629,39726,173621,179757
1631632623639,39735,173609,179751
1631632623649,39731,173602,179747
1631632623659,39747,173637,179757
1631632623669,39745,173637,179751
1631632623679,39744,173630,179751
1631632623689,39746,173652,179758
1631632623699,39761,173626,179747
1631632623709,39767,173611,179734
1631632623719,39758,173653,179763
1631632623729,39760,173648,179754
1631632623739,39757,173598,179743
1631632623749,39757,173644,179728
1631632623759,39771,173655,179751
1631632623769,39778,173633,179755
1631632623779,39768,173651,179752
1631632623789,39780,173675,179770
1631632623799,39794,173697,179751
1631632623809,39795,173680,179776
1631632623819,39788,173692,179766
1631632623829,39792,173706,179781
1631632623839,39794,173701,179764
1631632623849,39811,173696,179757
1631632623859,39810,173683,179767
1631632623869,39802,173673,179735
1631632623879,39816,173686,179765
1631632623889,39813,173694,179774
1631632623899,39814,173700,179780
1631632623909,39821,173674,179823
1631632623919,39832,173714,179812
1631632623929,39847,173709,179842
1631632623939,39856,173720,179874
1631632623949,39848,173768,179875
1631632623959,39843,173752,179905
1631632623969,39852,173718,179894
1631632623979,39854,173754,179906
1631632623989,39860,173747,179924
1631632623999,39848,173789,179947
1631632624009,39856,173793,179955
1631632624019,39859,173820,179982
1631632624029,39855,173817,180009
1631632624039,39865,173808,179998
1631632624049,39858,173831,179985
1631632624059,39857,173828,179989
1631632624069,39857,173823,179996
1631632624079,39854,173836,180017
1631632624089,39863,173825,180006
1631632624099,39858,173849,180032
1631632624109,39859,173885,180033
1631632624119,39860,173895,180041
1631632624129,39873,173939,180063
1631632624139,39874,173930,180071
1631632624149,39879,173942,180084
1631632624159,39872,173950,180098
1631632624169,39881,173966,180089
1631632624179,39886,173973,180106
1631632624189,39892,173998,180104
1631632624199,39899,174000,180095
1631632624209,39892,173995,180108
1631632624219,39897,173993,180114
1631632624229,39898,173993,180132
1631632624239,39898,174040,180143
1631632624249,39895,174006,180139
1631632624259,39899,174034,180122
1631632624269,39895,174059,180143
1631632624279,39906,174062,180164
1631632624289,39906,174037,180150
1631632624299,39923,174062,180160
1631632624309,39911,174077,180181
1631632624319,39911,174091,180171
1631632624329,39911,174087,180191
1631632624339,39923,174093,180192
1631632624349,39920,174100,180176
1631632624359,39929,174103,180179
1631632624369,39929,174119,180169
1631632624379,39931,174122,180199
1631632624389,39932,174124,180180
1631632624399,39932,174137,180189
1631632624409,39934,174141,180198
1631632624419,39951,174158,180199
1631632624429,39964,174164,180210
1631632624439,39942,174201,180216
1631632624449,39951,174174,180189
1631632624459,39960,174160,180215
1631632624469,39960,174204,180224
1631632624479,39968,174197,180228
1631632624489,39976,174199,180216
1631632624499,39977,174211,180250
1631632624509,39979,174227,180229
1631632624519,39986,174232,180246
1631632624529,39992,174227,180271
1631632624539,39988,174231,180277
1631632624549,39993,174250,180274
1631632624559,39998,174226,180280
1631632624569,39997,174235,180295
1631632624579,40013,174230,180301
1631632624589,40001,174220,180305
1631632624599,39996,174218,180334
1631632624609,39993,174224,180320
1631632624619,39989,174217,180308
1631632624629,39986,174213,180324
1631632624639,39986,174213,180323
1631632624649,39976,174203,180314
1631632624659,39981,174231,180329
1631632624669,39972,174202,180323
1631632624679,39966,174174,180330
1631632624689,39964,174179,180336
1631632624699,39957,174203,180333
1631632624709,39949,174195,180329
1631632624719,39948,174202,180316
1631632624729,39944,174185,180321
1631632624739,39938,174160,180322
1631632624749,39944,174160,180305
1631632624759,39937,174162,180280
1631632624769,39931,174187,180302
1631632624779,39940,174147,180272
1631632624789,39938,174181,180286
1631632624799,39929,174192,180305
1631632624809,39923,174154,180299
1631632624819,39925,174172,180300
1631632624829,39925,174160,180289
1631632624839,39925,174153,180278
1631632624849,39919,174174,180295
1631632624859,39917,174164,180296
1631632624869,39921,174141,180305
1631632624879,39918,174160,180293
1631632624889,39915,174162,180281
1631632624899,39920,174138,180288
1631632624909,39920,174156,180299
1631632624919,39931,174182,180289
1631632624929,39915,174173,180294
1631632624939,39912,174155,180303
1631632624949,39906,174137,180307
1631632624959,39905,174167,180305
1631632624969,39911,174156,180276
1631632624979,39913,174173,180294
1631632624989,39915,174169,180297
1631632624999,39909,174186,180316
1631632625009,39907,174208,180317
1631632625019,39923,174192,180323
1631632625029,39915,174190,180302
1631632625039,39917,174216,180296
1631632625049,39922,174206,180300
1631632625059,39925,174211,180327
1631632625069,39914,174226,180319
1631632625079,39919,174222,180315
1631632625089,39928,174232,180335
1631632625099,39931,174223,180341
1631632625109,39929,174234,180327
1631632625119,39923,174237,180325
1631632625129,39926,174232,180320
1631632625139,39927,174243,180330
1631632625149,39940,174268,180336
1631632625159,39938,174265,180351
1631632625169,39936,174267,180351
1631632625179,39947,174290,180378
1631632625189,39949,174255,180382
1631632625199,39948,174290,180376
1631632625209,39952,174251,180400
1631632625219,39946,174274,180422
1631632625229,39950,174234,180424
1631632625239,39941,174249,180425
1631632625249,39929,174256,180417
1631632625259,39923,174231,180426
1631632625269,39906,174220,180414
1631632625279,39902,174218,180419
1631632625289,39891,174225,180427
1631632625299,39885,174233,180423
1631632625309,39887,174218,180427
1631632625319,39880,174218,180428
1631632625329,39871,174192,180421
1631632625339,39868,174227,180427
1631632625349,39859,174212,180424
1631632625359,39842,174222,180415
1631632625369,39839,174195,180426
1631632625379,39828,174193,180432
1631632625389,39834,174170,180408
1631632625399,39821,174185,180404
1631632625409,39810,174175,180411
1631632625419,39806,174169,180413
1631632625429,39808,174143,180409
1631632625439,39802,174161,180404
1631632625449,39795,174166,180398
1631632625459,39788,174160,180406
1631632625469,39786,174155,180400
1631632625479,39778,174183,180403
1631632625489,39775,174170,180396
1631632625499,39780,174167,180408
1631632625509,39758,174168,180398
1631632625519,39772,174148,180375
1631632625529,39766,174155,180409
1631632625539,39764,174165,180406
1631632625549,39755,174184,180403
1631632625559,39757,174166,180413
1631632625569,39759,174164,180392
1631632625579,39743,174176,180414
1631632625589,39757,174172,180392
1631632625599,39743,174182,180405
1631632625609,39745,174162,180397
1631632625619,39739,174168,180424
1631632625629,39731,174154,180409
1631632625639,39736,174186,180390
1631632625649,39733,174187,180417
1631632625659,39737,174171,180415
1631632625669,39736,174204,180403
1631632625679,39728,174186,180388
1631632625689,39731,174195,180394
1631632625699,39736,174187,180390
1631632625709,39735,174176,180414
1631632625719,39735,174194,180374
1631632625729,39748,174181,180401
1631632625739,39735,174186,180384
1631632625749,39744,174187,180392
1631632625759,39735,174211,180411
1631632625769,39730,174189,180406
1631632625779,39732,174207,180405
1631632625789,39743,174201,180384
1631632625799,39745,174201,180410
1631632625809,39732,174202,180416
1631632625819,39738,174210,180420
1631632625829,39748,174220,180398
1631632625839,39759,174222,180419
1631632625849,39759,174211,180444
1631632625859,39747,174229,180445
1631632625869,39749,174184,180455
1631632625879,39755,174180,180446
1631632625889,39736,174162,180439
1631632625899,39712,174159,180465
1631632625909,39713,174138,180461
1631632625919,39700,174140,180453
1631632625929,39693,174131,180446
1631632625939,39676,174145,180461
1631632625949,39683,174143,180459
1631632625959,39660,174117,180462
1631632625969,39661,174130,180459
1631632625979,39651,174102,180458
1631632625989,39646,174111,180465
1631632625999,39639,174108,180469
1631632626009,39627,174088,180461
1631632626019,39611,174087,180449
1631632626029,39623,174094,180423
1631632626039,39590,174033,180416
1631632626049,39591,174065,180421
1631632626059,39599,174038,180420
1631632626069,39569,174055,180399
1631632626079,39570,174044,180401
1631632626089,39572,174070,180392
1631632626099,39565,174068,180417
1631632626109,39570,174064,180435
1631632626119,39562,174067,180414
1631632626129,39567,174072,180435
1631632626139,39564,174070,180430
1631632626149,39557,174034,180416
1631632626159,39545,174066,180440
1631632626169,39549,174062,180420
1631632626179,39536,174031,180421
1631632626189,39539,174069,180427
1631632626199,39534,174044,180427
1631632626209,39560,174075,180419
1631632626219,39535,174034,180442
1631632626229,39535,174038,180429
1631632626239,39526,174071,180409
1631632626249,39528,174064,180418
1631632626259,39534,174040,180418
1631632626269,39532,174043,180420
1631632626279,39533,174044,180392
1631632626289,39517,174038,180408
1631632626299,39525,174034,180406
1631632626309,39529,174043,180391
1631632626319,39518,174031,180402
1631632626329,39520,174042,180401
1631632626339,39527,174021,180403
1631632626349,39524,174036,180403
1631632626359,39527,174042,180401
1631632626369,39524,174042,180405
1631632626379,39529,174028,180377
1631632626389,39527,174055,180431
1631632626399,39536,174037,180402
1631632626409,39533,174024,180415
1631632626419,39532,174045,180391
1631632626429,39538,174040,180398
1631632626439,39535,174048,180399
1631632626449,39537,174036,180401
1631632626459,39534,174081,180399
1631632626469,39541,174062,180386
1631632626479,39543,174057,180384
1631632626489,39539,174067,180371
1631632626499,39543,174080,180396
1631632626509,39545,174053,180384
1631632626519,39569,174076,180400
1631632626529,39557,174098,180388
1631632626539,39570,174080,180435
1631632626549,39556,174063,180433
1631632626559,39565,174061,180433
1631632626569,39557,174051,180438
1631632626579,39549,174042,180474
1631632626589,39539,174054,180442
1631632626599,39539,174009,180449
1631632626609,39518,174025,180429
1631632626619,39505,173997,180435
1631632626629,39502,173983,180430
1631632626639,39496,173967,180417
1631632626649,39488,173975,180420
1631632626659,39475,173963,180428
1631632626669,39471,173963,180426
1631632626679,39479,173968,180424
1631632626689,39463,173968,180405
1631632626699,39476,173958,180414
1631632626709,39452,173951,180432
1631632626719,39451,173939,180407
1631632626729,39435,173930,180397
1631632626739,39428,173904,180374
1631632626749,39430,173908,180373
1631632626759,39420,173907,180383
1631632626769,39424,173888,180390
1631632626779,39437,173908,180389
1631632626789,39423,173919,180372
1631632626799,39427,173921,180366
1631632626809,39421,173931,180381
1631632626819,39419,173897,180395
1631632626829,39413,173943,180394
1631632626839,39431,173926,180375
1631632626849,39413,173906,180382
1631632626859,39410,173921,180378
1631632626869,39409,173913,180380
1631632626879,39413,173925,180399
1631632626889,39407,173904,180380
1631632626899,39406,173905,180365
1631632626909,39409,173921,180364
1631632626919,39412,173920,180371
1631632626929,39406,173932,180377
1631632626939,39412,173926,180360
1631632626949,39417,173921,180368
1631632626959,39418,173911,180385
1631632626969,39406,173916,180381
1631632626979,39413,173925,180376
1631632626989,39410,173925,180374
1631632626999,39416,173923,180372
1631632627009,39423,173939,180360
1631632627019,39431,173951,180364
1631632627029,39418,173930,180370
1631632627039,39428,173902,180380
1631632627049,39428,173943,180365
1631632627059,39425,173952,180358
1631632627069,39434,173966,180376
1631632627079,39440,173962,180389
1631632627089,39441,173940,180364
1631632627099,39438,173955,180376
1631632627109,39453,173993,180363
1631632627119,39456,173980,180389
1631632627129,39451,173976,180385
1631632627139,39453,173974,180369
1631632627149,39452,173988,180377
1631632627159,39463,173988,180395
1631632627169,39465,174016,180371
1631632627179,39471,173990,180406
1631632627189,39474,173990,180377
1631632627199,39488,174007,180369
1631632627209,39485,173989,180382
1631632627219,39489,174009,180387
1631632627229,39488,174040,180401
1631632627239,39503,174050,180424
1631632627249,39508,174042,180429
1631632627259,39513,174041,180448
1631632627269,39513,174048,180443
1631632627279,39512,174038,180475
1631632627289,39499,174004,180464
1631632627299,39492,174025,180446
1631632627309,39488,174016,180427
1631632627319,39483,174017,180468
1631632627329,39489,173981,180460
1631632627339,39484,173988,180448
1631632627349,39463,173989,180480
1631632627359,39469,174000,180474
1631632627369,39474,174006,180477
1631632627379,39451,174020,180490
1631632627389,39453,174011,180477
1631632627399,39458,173997,180486
1631632627409,39450,173973,180470
1631632627419,39437,173983,180461
1631632627429,39440,173978,180464
1631632627439,39431,173987,180470
1631632627449,39437,173964,180471
1631632627459,39426,173952,180453
1631632627469,39418,173947,180441
1631632627479,39419,173979,180445
1631632627489,39424,173944,180447
1631632627499,39423,173963,180418
1631632627509,39421,173961,180441
1631632627519,39415,173970,180442
1631632627529,39433,173989,180442
1631632627539,39425,173955,180435
1631632627549,39419,173980,180456
1631632627559,39425,173980,180451
1631632627569,39430,173974,180464
1631632627579,39431,173973,180463
1631632627589,39430,173976,180459
1631632627599,39431,173970,180476
1631632627609,39427,173975,180456
1631632627619,39428,173999,180458
1631632627629,39427,173998,180457
1631632627639,39429,174010,180459
1631632627649,39436,173990,180449
1631632627659,39427,174000,180441
1631632627669,39445,174005,180440
1631632627679,39445,173992,180432
1631632627689,39434,173983,180434
1631632627699,39442,173975,180437
1631632627709,39442,174026,180440
1631632627719,39449,174004,180443
1631632627729,39459,174021,180460
1631632627739,39452,174018,180441
1631632627749,39457,174027,180451
1631632627759,39467,174028,180438
1631632627769,39460,174023,180443
1631632627779,39461,174049,180466
1631632627789,39469,174032,180464
1631632627799,39472,174040,180463
1631632627809,39488,174050,180467
1631632627819,39478,174065,180462
1631632627829,39497,174061,180458
1631632627839,39502,174072,180459
1631632627849,39496,174072,180457
1631632627859,39497,174076,180457
1631632627869,39503,174045,180456
1631632627879,39508,174081,180458
1631632627889,39513,174088,180448
1631632627899,39522,174055,180471
1631632627909,39521,174072,180448
1631632627919,39535,174103,180443
1631632627929,39532,174090,180468
1631632627939,39543,174115,180509
1631632627949,39551,174095,180504
1631632627959,39561,174112,180504
1631632627969,39550,174106,180514
1631632627979,39565,174102,180532
1631632627989,39562,174101,180534
1631632627999,39562,174099,180535
1631632628009,39559,174092,180537
1631632628019,39543,174071,180551
1631632628029,39544,174089,180537
1631632628039,39535,174100,180548
1631632628049,39539,174061,180541
1631632628059,39534,174081,180577
1631632628069,39527,174083,180575
1631632628079,39525,174091,180558
1631632628089,39528,174059,180579
1631632628099,39517,174053,180571
1631632628109,39510,174069,180577
1631632628119,39507,174098,180592
1631632628129,39518,174055,180588
1631632628139,39498,174050,180574
1631632628149,39498,174075,180571
1631632628159,39486,174073,180562
1631632628169,39496,174029,180547
1631632628179,39488,174039,180554
1631632628189,39482,174050,180578
1631632628199,39480,174051,180556
1631632628209,39487,174045,180558
1631632628219,39486,174064,180569
1631632628229,39483,174055,180570
1631632628239,39490,174062,180557
1631632628249,39493,174073,180565
1631632628259,39484,174051,180558
1631632628269,39492,174060,180560
1631632628279,39479,174056,180564
1631632628289,39487,174054,180563
1631632628299,39492,174067,180553
1631632628309,39498,174090,180574
1631632628319,39498,174076,180560
1631632628329,39492,174070,180548
1631632628339,39498,174046,180562
1631632628349,39493,174082,180566
1631632628359,39488,174076,180557
1631632628369,39496,174070,180544
1631632628379,39504,174060,180565
1631632628389,39496,174081,180551
1631632628399,39500,174090,180552
1631632628409,39506,174081,180582
1631632628419,39500,174093,180558
1631632628429,39504,174109,180565
1631632628439,39506,174121,180549
1631632628449,39512,174087,180547
1631632628459,39523,174095,180553
1631632628469,39513,174092,180538
1631632628479,39525,174097,180558
1631632628489,39522,174111,180555
1631632628499,39533,174094,180556
1631632628509,39528,174125,180539
1631632628519,39538,174116,180564
1631632628529,39550,174116,180548
1631632628539,39548,174128,180553
1631632628549,39559,174144,180557
1631632628559,39557,174144,180561
1631632628569,39562,174112,180567
1631632628579,39558,174114,180546
1631632628589,39564,174109,180537
1631632628599,39573,174121,180526
1631632628609,39565,174152,180543
1631632628619,39574,174156,180533
1631632628629,39585,174141,180547
1631632628639,39580,174166,180579
1631632628649,39595,174147,180540
1631632628659,39603,174173,180542
1631632628669,39600,174192,180564
1631632628679,39602,174200,180579
1631632628689,39614,174182,180593
1631632628699,39625,174195,180599
1631632628709,39631,174170,180599
1631632628719,39628,174197,180624
1631632628729,39632,174162,180626
1631632628739,39632,174194,180627
1631632628749,39632,174174,180626
1631632628759,39625,174141,180635
1631632628769,39617,174157,180640
1631632628779,39616,174169,180625
1631632628789,39632,174148,180627
1631632628799,39622,174149,180656
1631632628809,39618,174161,180647
1631632628819,39605,174149,180657
1631632628829,39610,174153,180651
1631632628839,39614,174183,180638
1631632628849,39603,174141,180674
1631632628859,39597,174131,180643
1631632628869,39596,174138,180646
1631632628879,39598,174107,180649
1631632628889,39588,174133,180657
1631632628899,39588,174130,180643
1631632628909,39572,174111,180652
1631632628919,39570,174120,180636
1631632628929,39568,174096,180627
1631632628939,39571,174086,180623
1631632628949,39564,174097,180620
1631632628959,39569,174127,180632
1631632628969,39568,174090,180633
1631632628979,39579,174127,180609
1631632628989,39585,174121,180635
1631632628999,39568,174096,180627
1631632629009,39568,174111,180639
1631632629019,39575,174110,180628
1631632629029,39584,174108,180641
1631632629039,39585,174117,180620
1631632629049,39589,174106,180644
1631632629059,39583,174090,180629
1631632629069,39584,174101,180620
1631632629079,39576,174120,180615
1631632629089,39586,174110,180631
1631632629099,39587,174128,180628
1631632629109,39586,174107,180645
1631632629119,39595,174160,180629
1631632629129,39584,174159,180625
1631632629139,39583,174111,180619
1631632629149,39594,174137,180648
1631632629159,39602,174134,180633
1631632629169,39592,174132,180626
1631632629179,39602,174137,180616
1631632629189,39604,174131,180630
1631632629199,39608,174144,180599
1631632629209,39610,174146,180617
1631632629219,39617,174121,180613
1631632629229,39619,174108,180618
1631632629239,39617,174124,180608
1631632629249,39623,174127,180585
1631632629259,39629,174133,180613
1631632629269,39632,174154,180602
1631632629279,39642,174150,180616
1631632629289,39637,174156,180601
1631632629299,39651,174126,180628
1631632629309,39648,174142,180602
1631632629319,39647,174180,180622
1631632629329,39642,174165,180584
1631632629339,39652,174154,180590
1631632629349,39664,174196,180602
1631632629359,39655,174153,180598
1631632629369,39666,174165,180595
1631632629379,39666,174144,180587
1631632629389,39676,174166,180591
1631632629399,39669,174162,180600
1631632629409,39676,174163,180570
1631632629419,39686,174167,180589
1631632629429,39696,174175,180593
1631632629439,39702,174191,180598
1631632629449,39705,174189,180619
1631632629459,39700,174177,180610
1631632629469,39719,174192,180608
1631632629479,39718,174189,180590
1631632629489,39717,174224,180614
1631632629499,39725,174204,180637
1631632629509,39737,174209,180631
1631632629519,39748,174244,180661
1631632629529,39744,174223,180674
1631632629539,39744,174204,180668
1631632629549,39747,174217,180676
1631632629559,39753,174207,180685
1631632629569,39750,174185,180687
1631632629579,39738,174188,180678
1631632629589,39737,174180,180700
1631632629599,39742,174206,180709
1631632629609,39720,174195,180684
1631632629619,39732,174209,180699
1631632629629,39729,174181,180679
1631632629639,39709,174171,180689
1631632629649,39724,174192,180702
1631632629659,39710,174179,180696
1631632629669,39715,174185,180689
1631632629679,39719,174148,180698
1631632629689,39720,174139,180697
1631632629699,39715,174150,180692
1631632629709,39712,174147,180683
1631632629719,39696,174137,180657
1631632629729,39698,174137,180657
1631632629739,39702,174140,180691
1631632629749,39704,174141,180674
1631632629759,39706,174115,180671
1631632629769,39709,174144,180665
1631632629779,39704,174127,180697
1631632629789,39709,174127,180706
1631632629799,39718,174123,180678
1631632629809,39718,174128,180694
1631632629819,39711,174133,180674
1631632629829,39713,174125,180684
1631632629839,39710,174129,180663
1631632629849,39711,174128,180660
1631632629859,39708,174129,180658
1631632629869,39706,174146,180669
1631632629879,39709,174149,180677
1631632629889,39702,174146,180670
1631632629899,39705,174158,180670
1631632629909,39707,174160,180680
1631632629919,39715,174173,180704
1631632629929,39724,174149,180683
1631632629939,39718,174160,180649
1631632629949,39703,174163,180676
1631632629959,39716,174187,180653
1631632629969,39716,174140,180662
1631632629979,39725,174133,180658
1631632629989,39720,174128,180657
1631632629999,39729,174135,180647
1631632630009,39720,174176,180658
1631632630019,39725,174143,180661
1631632630029,39733,174140,180656
1631632630039,39734,174180,180660
1631632630049,39734,174185,180674
1631632630059,39740,174201,180666
1631632630069,39738,174179,180650
1631632630079,39749,174202,180668
1631632630089,39747,174205,180669
1631632630099,39760,174190,180672
1631632630109,39755,174189,180654
1631632630119,39748,174194,180633
1631632630129,39759,174159,180659
1631632630139,39756,174184,180648
1631632630149,39760,174219,180639
1631632630159,39773,174202,180657
1631632630169,39767,174189,180652
1631632630179,39770,174183,180619
1631632630189,39773,174193,180645
1631632630199,39778,174197,180650
1631632630209,39785,174216,180648
1631632630219,39785,174209,180647
1631632630229,39793,174232,180663
1631632630239,39795,174212,180639
1631632630249,39802,174221,180661
1631632630259,39805,174226,180646
1631632630269,39813,174237,180660
1631632630279,39810,174248,180663
1631632630289,39820,174250,180672
1631632630299,39821,174249,180693
1631632630309,39823,174262,180692
1631632630319,39832,174263,180708
1631632630329,39838,174241,180737
1631632630339,39834,174239,180702
1631632630349,39835,174242,180728
1631632630359,39825,174196,180743
1631632630369,39815,174212,180734
1631632630379,39806,174208,180731
1631632630389,39812,174178,180706
1631632630399,39800,174180,180743
1631632630409,39788,174186,180721
1631632630419,39799,174191,180739
1631632630429,39787,174187,180726
1631632630439,39779,174167,180722
1631632630449,39776,174157,180714
1631632630459,39769,174165,180713
1631632630469,39761,174163,180704
1631632630479,39757,174132,180710
1631632630489,39766,174146,180709
1631632630499,39747,174140,180699
1631632630509,39747,174106,180712
1631632630519,39743,174123,180724
1631632630529,39736,174103,180699
1631632630539,39732,174129,180696
1631632630549,39731,174110,180689
1631632630559,39721,174104,180696
1631632630569,39728,174098,180694
1631632630579,39730,174093,180699
1631632630589,39729,174111,180690
1631632630599,39736,174125,180695
1631632630609,39725,174110,180679
1631632630619,39712,174077,180665
1631632630629,39715,174123,180677
1631632630639,39704,174087,180676
1631632630649,39710,174058,180682
1631632630659,39710,174084,180681
1631632630669,39709,174056,180683
1631632630679,39696,174086,180663
1631632630689,39705,174064,180681
1631632630699,39700,174079,180679
1631632630709,39687,174061,180649
1631632630719,39688,174070,180667
1631632630729,39702,174055,180655
1631632630739,39707,174072,180640
1631632630749,39694,174052,180653
1631632630759,39688,174071,180654
1631632630769,39683,174085,180659
1631632630779,39679,174086,180678
1631632630789,39690,174074,180650
1631632630799,39695,174074,180645
1631632630809,39702,174065,180660
1631632630819,39699,174051,180646
1631632630829,39699,174091,180638
1631632630839,39701,174075,180631
1631632630849,39699,174074,180645
1631632630859,39695,174094,180647
1631632630869,39697,174068,180648
1631632630879,39701,174071,180669
1631632630889,39713,174060,180653
1631632630899,39711,174057,180635
1631632630909,39699,174083,180637
1631632630919,39709,174080,180658
1631632630929,39708,174090,180634
1631632630939,39706,174107,180628
1631632630949,39708,174086,180631
1631632630959,39707,174092,180634
1631632630969,39704,174081,180646
1631632630979,39724,174117,180632
1631632630989,39717,174087,180652
1631632630999,39714,174135,180638
1631632631009,39722,174131,180632
1631632631019,39727,174134,180660
1631632631029,39730,174111,180637
1631632631039,39728,174126,180635
1631632631049,39724,174137,180653
1631632631059,39744,174150,180656
1631632631069,39753,174148,180649
1631632631079,39751,174146,180679
1631632631089,39751,174164,180682
1631632631099,39751,174139,180691
1631632631109,39752,174135,180694
1631632631119,39735,174116,180706
1631632631129,39747,174124,180736
1631632631139,39737,174110,180709
1631632631149,39729,174120,180710
1631632631159,39709,174074,180725
1631632631169,39706,174097,180715
1631632631179,39696,174081,180709
1631632631189,39691,174068,180726
1631632631199,39676,174055,180723
1631632631209,39678,174072,180746
1631632631219,39658,174067,180719
1631632631229,39654,174055,180742
1631632631239,39639,174008,180716
1631632631249,39641,174004,180712
1631632631259,39619,174006,180715
1631632631269,39612,174014,180726
1631632631279,39599,173969,180715
1631632631289,39599,173994,180706
1631632631299,39578,173959,180707
1631632631309,39576,173966,180698
1631632631319,39555,173953,180696
1631632631329,39559,173948,180680
1631632631339,39554,173957,180692
1631632631349,39543,173910,180668
1631632631359,39537,173913,180652
1631632631369,39530,173932,180665
1631632631379,39544,173917,180662
1631632631389,39532,173899,180633
1631632631399,39526,173931,180639
1631632631409,39515,173910,180654
1631632631419,39501,173920,180639
1631632631429,39504,173896,180635
1631632631439,39491,173895,180635
1631632631449,39484,173893,180651
1631632631459,39493,173866,180606
1631632631469,39480,173861,180620
1631632631479,39488,173857,180624
1631632631489,39476,173857,180633
1631632631499,39474,173877,180622
1631632631509,39462,173904,180613
1631632631519,39460,173851,180614
1631632631529,39458,173867,180613
1631632631539,39457,173857,180591
1631632631549,39454,173868,180590
1631632631559,39459,173855,180604
1631632631569,39461,173862,180587
1631632631579,39457,173840,180602
1631632631589,39443,173852,180578
1631632631599,39452,173854,180593
1631632631609,39445,173869,180595
1631632631619,39456,173873,180548
1631632631629,39438,173859,180579
1631632631639,39444,173862,180576
1631632631649,39451,173872,180586
1631632631659,39453,173892,180592
1631632631669,39452,173896,180578
1631632631679,39446,173868,180562
1631632631689,39448,173883,180590
1631632631699,39452,173876,180561
1631632631709,39464,173859,180565
1631632631719,39453,173888,180554
1631632631729,39458,173880,180575
1631632631739,39465,173910,180567
1631632631749,39453,173886,180554
1631632631759,39456,173877,180561
1631632631769,39452,173899,180573
1631632631779,39468,173888,180558
1631632631789,39470,173917,180553
1631632631799,39463,173902,180570
1631632631809,39460,173908,180542
1631632631819,39464,173905,180557
1631632631829,39474,173897,180561
1631632631839,39474,173893,180567
1631632631849,39472,173904,180558
1631632631859,39480,173934,180565
1631632631869,39482,173928,180598
1631632631879,39475,173929,180569
1631632631889,39499,173931,180582
1631632631899,39500,173911,180586
1631632631909,39480,173902,180614
1631632631919,39464,173903,180609
1631632631929,39451,173867,180609
1631632631939,39442,173893,180610
1631632631949,39435,173825,180602
1631632631959,39419,173824,180605
1631632631969,39415,173860,180607
1631632631979,39408,173836,180618
1631632631989,39394,173808,180605
1631632631999,39378,173828,180593
1631632632009,39377,173798,180602
1631632632019,39368,173802,180601
1631632632029,39348,173807,180607
1631632632039,39351,173777,180589
1631632632049,39334,173782,180593
1631632632059,39326,173750,180596
1631632632069,39307,173733,180592
1631632632079,39313,173738,180567
1631632632089,39299,173735,180566
1631632632099,39286,173737,180549
1631632632109,39285,173713,180554
1631632632119,39282,173697,180562
1631632632129,39273,173723,180554
1631632632139,39264,173709,180556
1631632632149,39257,173695,180556
1631632632159,39265,173711,180570
1631632632169,39250,173720,180530
1631632632179,39243,173715,180554
1631632632189,39252,173713,180550
1631632632199,39250,173707,180557
1631632632209,39239,173678,180510
1631632632219,39238,173681,180535
1631632632229,39237,173717,180535
1631632632239,39232,173682,180521
1631632632249,39231,173687,180540
1631632632259,39230,173716,180532
1631632632269,39217,173696,180519
1631632632279,39222,173698,180541
1631632632289,39217,173707,180539
1631632632299,39218,173696,180531
1631632632309,39213,173698,180524
1631632632319,39211,173693,180552
1631632632329,39216,173700,180530
1631632632339,39210,173686,180521
1631632632349,39215,173709,180512
1631632632359,39219,173675,180512
1631632632369,39213,173691,180523
1631632632379,39224,173681,180519
1631632632389,39216,173702,180491
1631632632399,39208,173690,180482
1631632632409,39216,173708,180528
1631632632419,39223,173670,180510
1631632632429,39223,173714,180512
1631632632439,39227,173716,180520
1631632632449,39232,173733,180527
1631632632459,39232,173713,180517
1631632632469,39228,173729,180530
1631632632479,39228,173757,180521
1631632632489,39234,173752,180521
1631632632499,39238,173748,180528
1631632632509,39233,173770,180510
1631632632519,39239,173753,180515
1631632632529,39235,173749,180525
1631632632539,39255,173737,180521
1631632632549,39262,173776,180524
1631632632559,39251,173782,180515
1631632632569,39257,173776,180547
1631632632579,39267,173816,180523
1631632632589,39274,173799,180520
1631632632599,39276,173808,180530
1631632632609,39285,173810,180549
1631632632619,39285,173809,180573
1631632632629,39292,173810,180579
1631632632639,39286,173782,180577
1631632632649,39280,173823,180600
1631632632659,39274,173781,180597
1631632632669,39263,173794,180596
1631632632679,39255,173778,180609
1631632632689,39235,173747,180623
1631632632699,39249,173767,180587
1631632632709,39226,173731,180601
1631632632719,39213,173747,180615
1631632632729,39209,173746,180601
1631632632739,39198,173718,180616
1631632632749,39200,173718,180580
1631632632759,39193,173723,180612
1631632632769,39185,173729,180611
1631632632779,39196,173702,180614
1631632632789,39181,173722,180600
1631632632799,39168,173730,180583
1631632632809,39158,173706,180593
1631632632819,39156,173686,180595
1631632632829,39151,173674,180573
1631632632839,39150,173686,180592
1631632632849,39145,173676,180590
1631632632859,39146,173686,180589
1631632632869,39154,173665,180592
1631632632879,39143,173700,180573
1631632632889,39145,173708,180576
1631632632899,39146,173704,180584
1631632632909,39149,173705,180606
1631632632919,39145,173702,180606
1631632632929,39150,173721,180601
1631632632939,39154,173721,180619
1631632632949,39151,173741,180588
1631632632959,39139,173707,180617
1631632632969,39140,173713,180606
1631632632979,39151,173740,180609
1631632632989,39133,173703,180606
1631632632999,39162,173728,180615
1631632633009,39158,173730,180610
1631632633019,39162,173731,180633
1631632633029,39167,173749,180610
1631632633039,39158,173749,180617
1631632633049,39158,173751,180631
1631632633059,39164,173750,180639
1631632633069,39170,173791,180597
1631632633079,39171,173771,180611
1631632633089,39180,173775,180600
1631632633099,39179,173779,180632
1631632633109,39183,173775,180613
1631632633119,39183,173763,180613
1631632633129,39189,173791,180633
1631632633139,39186,173817,180611
1631632633149,39206,173787,180620
1631632633159,39217,173798,180590
1631632633169,39213,173797,180627
1631632633179,39223,173816,180652
1631632633189,39213,173832,180637
1631632633199,39220,173810,180611
1631632633209,39226,173844,180618
1631632633219,39230,173859,180634
1631632633229,39243,173828,180637
1631632633239,39246,173832,180623
1631632633249,39248,173845,180629
1631632633259,39258,173871,180622
1631632633269,39263,173867,180654
1631632633279,39266,173870,180642
1631632633289,39267,173880,180647
1631632633299,39275,173883,180646
1631632633309,39279,173894,180653
1631632633319,39294,173923,180646
1631632633329,39305,173927,180705
1631632633339,39309,173932,180694
1631632633349,39310,173897,180678
1631632633359,39320,173916,180702
1631632633369,39319,173905,180690
1631632633379,39313,173900,180699
1631632633389,39306,173890,180709
1631632633399,39301,173880,180710
1631632633409,39293,173873,180701
1631632633419,39284,173828,180703
1631632633429,39291,173834,180704
1631632633439,39282,173845,180708
1631632633449,39282,173838,180703
1631632633459,39270,173859,180737
1631632633469,39268,173830,180718
1631632633479,39270,173832,180755
1631632633489,39271,173835,180728
1631632633499,39265,173866,180738
1631632633509,39255,173855,180727
1631632633519,39253,173830,180749
1631632633529,39241,173853,180742
1631632633539,39243,173847,180740
1631632633549,39246,173845,180732
1631632633559,39247,173813,180721
1631632633569,39239,173819,180713
1631632633579,39238,173826,180733
1631632633589,39246,173818,180723
1631632633599,39236,173821,180719
1631632633609,39240,173827,180724
1631632633619,39245,173853,180732
1631632633629,39245,173855,180744
1631632633639,39249,173878,180761
1631632633649,39252,173875,180779
1631632633659,39262,173891,180788
1631632633669,39277,173909,180790
1631632633679,39274,173915,180822
1631632633689,39284,173943,180801
1631632633699,39279,173957,180826
1631632633709,39286,173965,180827
1631632633719,39300,173951,180852
1631632633729,39300,174001,180857
1631632633739,39302,173993,180855
1631632633749,39312,174009,180847
1631632633759,39317,174004,180865
1631632633769,39312,174023,180860
1631632633779,39319,174025,180886
1631632633789,39326,174074,180897
1631632633799,39332,174113,180908
1631632633809,39347,174074,180897
1631632633819,39354,174093,180916
1631632633829,39367,174104,180916
1631632633839,39372,174132,180918
1631632633849,39371,174139,180941
1631632633859,39376,174130,180922
1631632633869,39387,174138,180942
1631632633879,39395,174153,180947
1631632633889,39400,174186,180974
1631632633899,39411,174215,180970
1631632633909,39413,174205,180982
1631632633919,39425,174230,180981
1631632633929,39425,174238,180990
1631632633939,39426,174245,180999
1631632633949,39444,174255,180996
1631632633959,39452,174276,181011
1631632633969,39442,174249,181014
1631632633979,39465,174293,181012
1631632633989,39467,174285,181022
1631632633999,39475,174315,181025
1631632634009,39495,174327,181017
1631632634019,39489,174336,181044
1631632634029,39500,174333,181035
1631632634039,39518,174374,181048
1631632634049,39530,174368,181077
1631632634059,39528,174401,181097
1631632634069,39549,174402,181121
1631632634079,39560,174414,181134
1631632634089,39561,174425,181136
1631632634099,39555,174438,181165
1631632634109,39561,174415,181180
1631632634119,39575,174412,181173
1631632634129,39568,174426,181201
1631632634139,39566,174437,181197
1631632634149,39565,174467,181219
1631632634159,39569,174471,181223
1631632634169,39561,174491,181222
1631632634179,39562,174491,181256
1631632634189,39569,174509,181257
1631632634199,39572,174507,181295
1631632634209,39576,174514,181294
1631632634219,39574,174511,181307
1631632634229,39589,174551,181314
1631632634239,39589,174547,181305
1631632634249,39590,174583,181338
1631632634259,39597,174572,181311
1631632634269,39599,174592,181343
1631632634279,39602,174578,181343
1631632634289,39587,174581,181338
1631632634299,39601,174590,181346
1631632634309,39602,174564,181324
1631632634319,39606,174570,181369
1631632634329,39615,174624,181333
1631632634339,39611,174611,181350
1631632634349,39617,174619,181378
1631632634359,39614,174640,181376
1631632634369,39630,174638,181408
1631632634379,39633,174668,181386
1631632634389,39639,174648,181414
1631632634399,39645,174659,181405
1631632634409,39648,174664,181393
1631632634419,39648,174651,181424
1631632634429,39652,174703,181424
1631632634439,39654,174720,181446
1631632634449,39664,174755,181475
1631632634459,39690,174804,181516
1631632634469,39701,174833,181529
1631632634479,39713,174891,181550
1631632634489,39724,174954,181634
1631632634499,39737,175051,181686
1631632634509,39769,175173,181781
1631632634519,39793,175246,181806
1631632634529,39814,175339,181904
1631632634539,39841,175393,181954
1631632634549,39856,175448,181979
1631632634559,39870,175496,182025
1631632634569,39889,175538,182068
1631632634579,39900,175600,182082
1631632634589,39910,175620,182130
1631632634599,39927,175678,182135
1631632634609,39940,175719,182180
1631632634619,39966,175733,182175
1631632634629,39969,175788,182221
1631632634639,39990,175819,182247
1631632634649,39994,175842,182305
1631632634659,40000,175857,182294
1631632634669,40015,175902,182319
1631632634679,40030,175920,182353
1631632634689,40053,175939,182365
1631632634699,40063,175945,182378
1631632634709,40074,175984,182383
1631632634719,40090,176029,182400
1631632634729,40102,176056,182442
1631632634739,40109,176061,182442
1631632634749,40117,176077,182451
1631632634759,40128,176098,182473
1631632634769,40143,176123,182502
1631632634779,40165,176165,182513
1631632634789,40182,176198,182590
1631632634799,40191,176241,182602
1631632634809,40201,176276,182640
1631632634819,40212,176257,182652
1631632634829,40228,176314,182691
1631632634839,40244,176313,182688
1631632634849,40237,176296,182706
1631632634859,40237,176334,182716
1631632634869,40247,176323,182722
1631632634879,40244,176315,182727
1631632634889,40236,176360,182736
1631632634899,40245,176341,182750
1631632634909,40245,176334,182749
1631632634919,40241,176350,182775
1631632634929,40254,176362,182775
1631632634939,40252,176385,182785
1631632634949,40267,176328,182790
1631632634959,40255,176348,182773
1631632634969,40270,176358,182773
1631632634979,40277,176386,182800
1631632634989,40273,176365,182787
1631632634999,40284,176352,182781
1631632635009,40272,176382,182812
1631632635019,40290,176394,182781
1631632635029,40290,176386,182796
1631632635039,40286,176400,182822
1631632635049,40304,176398,182812
1631632635059,40297,176422,182801
1631632635069,40300,176432,182822
1631632635079,40309,176443,182819
1631632635089,40308,176436,182830
1631632635099,40314,176429,182831
1631632635109,40317,176432,182831
1631632635119,40324,176435,182830
1631632635129,40341,176440,182823
1631632635139,40326,176438,182816
1631632635149,40332,176452,182826
1631632635159,40341,176461,182833
1631632635169,40340,176460,182837
1631632635179,40357,176459,182852
1631632635189,40359,176473,182844
1631632635199,40368,176457,182851
1631632635209,40372,176466,182836
1631632635219,40367,176489,182835
1631632635229,40379,176486,182848
1631632635239,40382,176479,182838
1631632635249,40398,176517,182832
1631632635259,40392,176475,182833
1631632635269,40385,176483,182848
1631632635279,40399,176496,182837
1631632635289,40407,176511,182841
1631632635299,40407,176513,182868
1631632635309,40416,176531,182838
1631632635319,40422,176536,182869
1631632635329,40431,176575,182877
1631632635339,40433,176581,182885
1631632635349,40443,176567,182881
1631632635359,40453,176570,182877
1631632635369,40449,176589,182864
1631632635379,40459,176587,182903
1631632635389,40460,176578,182896
1631632635399,40467,176592,182901
1631632635409,40471,176573,182859
1631632635419,40484,176606,182863
1631632635429,40489,176598,182879
1631632635439,40477,176630,182888
1631632635449,40497,176637,182898
1631632635459,40502,176630,182887
1631632635469,40496,176643,182887
1631632635479,40508,176638,182880
1631632635489,40509,176649,182892
1631632635499,40527,176669,182886
1631632635509,40523,176685,182882
1631632635519,40542,176668,182888
1631632635529,40551,176656,182922
1631632635539,40548,176696,182917
1631632635549,40559,176698,182941
1631632635559,40563,176690,182961
1631632635569,40572,176697,182948
1631632635579,40580,176679,182971
1631632635589,40582,176687,182969
1631632635599,40588,176698,182975
1631632635609,40584,176700,183003
1631632635619,40584,176694,182978
1631632635629,40589,176691,183004
1631632635639,40586,176696,183008
1631632635649,40583,176707,183001
1631632635659,40583,176749,183024
1631632635669,40592,176716,183030
1631632635679,40598,176714,183001
1631632635689,40590,176727,183035
1631632635699,40584,176729,183027
1631632635709,40590,176737,183018
1631632635719,40583,176730,183055
1631632635729,40590,176750,183035
1631632635739,40591,176750,183044
1631632635749,40602,176741,183030
1631632635759,40598,176756,183037
1631632635769,40589,176758,183020
1631632635779,40593,176779,183009
1631632635789,40590,176768,183048
1631632635799,40586,176773,183062
1631632635809,40591,176789,183048
1631632635819,40603,176797,183058
1631632635829,40596,176782,183054
1631632635839,40607,176806,183058
1631632635849,40603,176830,183051
1631632635859,40604,176792,183056
1631632635869,40610,176810,183059
1631632635879,40606,176803,183070
1631632635889,40615,176797,183060
1631632635899,40613,176808,183072
1631632635909,40627,176811,183057
1631632635919,40624,176808,183091
1631632635929,40618,176821,183064
1631632635939,40631,176821,183077
1631632635949,40637,176833,183064
1631632635959,40631,176837,183088
1631632635969,40633,176822,183073
1631632635979,40635,176854,183085
1631632635989,40647,176869,183070
1631632635999,40653,176842,183058
1631632636009,40645,176857,183083
1631632636019,40647,176868,183083
1631632636029,40654,176861,183057
1631632636039,40650,176865,183070
1631632636049,40650,176871,183077
1631632636059,40657,176850,183087
1631632636069,40674,176890,183068
1631632636079,40667,176865,183061
1631632636089,40667,176882,183071
1631632636099,40661,176909,183058
1631632636109,40670,176895,183076
1631632636119,40681,176901,183088
1631632636129,40677,176928,183065
1631632636139,40683,176911,183074
1631632636149,40684,176907,183068
1631632636159,40696,176916,183075
1631632636169,40707,176943,183068
1631632636179,40711,176939,183086
1631632636189,40710,176956,183090
1631632636199,40708,176970,183084
1631632636209,40707,176967,183060
1631632636219,40720,176997,183090
1631632636229,40724,176974,183105
1631632636239,40730,176981,183089
1631632636249,40737,176987,183094
1631632636259,40736,176972,183097
1631632636269,40751,176986,183097
1631632636279,40739,176986,183099
1631632636289,40747,177001,183103
1631632636299,40754,177001,183097
1631632636309,40765,177007,183108
1631632636319,40775,177021,183122
1631632636329,40774,176995,183139
1631632636339,40783,176996,183136
1631632636349,40786,177002,183138
1631632636359,40779,176990,183131
1631632636369,40775,176991,183144
1631632636379,40786,176975,183151
1631632636389,40774,176964,183147
1631632636399,40780,176953,183161
1631632636409,40769,176961,183174
1631632636419,40775,176966,183149
1631632636429,40772,176963,183174
1631632636439,40756,176935,183168
1631632636449,40755,176966,183170
1631632636459,40756,176942,183178
1631632636469,40747,176953,183162
1631632636479,40751,176946,183169
1631632636489,40736,176948,183196
1631632636499,40742,176933,183157
1631632636509,40732,176943,183165
1631632636519,40727,176901,183159
1631632636529,40719,176902,183156
1631632636539,40712,176893,183145
1631632636549,40701,176878,183131
1631632636559,40709,176909,183134
1631632636569,40714,176908,183129
1631632636579,40701,176898,183142
1631632636589,40699,176923,183142
1631632636599,40691,176927,183124
1631632636609,40694,176912,183146
1631632636619,40690,176917,183132
1631632636629,40695,176894,183146
1631632636639,40696,176914,183136
1631632636649,40696,176923,183113
1631632636659,40693,176938,183119
1631632636669,40680,176933,183124
1631632636679,40689,176911,183122
1631632636689,40676,176908,183127
1631632636699,40679,176910,183139
1631632636709,40671,176906,183117
1631632636719,40656,176915,183125
1631632636729,40676,176902,183117
1631632636739,40681,176934,183122
1631632636749,40669,176950,183121
1631632636759,40677,176936,183124
1631632636769,40671,176916,183118
1631632636779,40674,176891,183104
1631632636789,40675,176895,183132
1631632636799,40665,176900,183086
1631632636809,40671,176901,183113
1631632636819,40668,176908,183099
1631632636829,40671,176914,183083
1631632636839,40671,176908,183084
1631632636849,40663,176906,183097
1631632636859,40660,176886,183083
1631632636869,40663,176894,183092
1631632636879,40654,176910,183077
1631632636889,40658,176898,183091
1631632636899,40680,176916,183084
1631632636909,40676,176901,183076
1631632636919,40673,176929,183075
1631632636929,40667,176895,183103
1631632636939,40670,176890,183086
1631632636949,40672,176936,183090
1631632636959,40676,176907,183094
1631632636969,40664,176924,183100
1631632636979,40685,176933,183084
1631632636989,40696,176917,183071
1631632636999,40673,176939,183080
1631632637009,40676,176934,183076
1631632637019,40686,176930,183087
1631632637029,40684,176926,183091
1631632637039,40681,176948,183061
1631632637049,40687,176960,183080
1631632637059,40683,176944,183074
1631632637069,40688,176944,183107
1631632637079,40708,176954,183106
1631632637089,40699,176989,183080
1631632637099,40695,176987,183126
1631632637109,40704,176976,183135
1631632637119,40711,176969,183103
1631632637129,40711,176974,183138
1631632637139,40706,176966,183162
1631632637149,40694,176939,183160
1631632637159,40694,176929,183162
1631632637169,40683,176954,183166
1631632637179,40678,176933,183144
1631632637189,40671,176902,183164
1631632637199,40669,176926,183143
1631632637209,40642,176908,183157
1631632637219,40643,176909,183161
1631632637229,40631,176897,183138
1631632637239,40638,176906,183159
1631632637249,40618,176919,183166
1631632637259,40609,176895,183160
1631632637269,40603,176899,183143
1631632637279,40593,176897,183158
1631632637289,40584,176883,183145
1631632637299,40580,176865,183145
1631632637309,40562,176849,183150
1631632637319,40562,176863,183143
1631632637329,40549,176863,183124
1631632637339,40539,176850,183134
1631632637349,40540,176853,183138
1631632637359,40529,176859,183123
1631632637369,40531,176855,183130
1631632637379,40526,176867,183136
1631632637389,40520,176851,183130
1631632637399,40512,176848,183148
1631632637409,40509,176843,183133
1631632637419,40501,176845,183140
1631632637429,40493,176846,183118
1631632637439,40491,176845,183111
1631632637449,40482,176851,183120
1631632637459,40473,176836,183132
1631632637469,40462,176847,183112
1631632637479,40454,176843,183116
1631632637489,40451,176826,183114
1631632637499,40449,176849,183109
1631632637509,40445,176865,183110
1631632637519,40445,176840,183115
1631632637529,40452,176845,183104
1631632637539,40446,176835,183124
1631632637549,40438,176862,183112
1631632637559,40444,176857,183101
1631632637569,40437,176848,183114
1631632637579,40424,176814,183101
1631632637589,40432,176844,183102
1631632637599,40430,176827,183089
1631632637609,40429,176861,183100
1631632637619,40422,176829,183107
1631632637629,40425,176840,183100
1631632637639,40424,176838,183095
1631632637649,40420,176857,183088
1631632637659,40407,176847,183089
1631632637669,40412,176851,183115
1631632637679,40415,176863,183107
1631632637689,40421,176846,183122
1631632637699,40416,176859,183106
1631632637709,40411,176878,183121
1631632637719,40414,176870,183114
1631632637729,40419,176898,183082
1631632637739,40413,176867,183106
1631632637749,40403,176876,183105
1631632637759,40402,176880,183090
1631632637769,40404,176884,183084
1631632637779,40409,176877,183089
1631632637789,40418,176886,183104
1631632637799,40406,176887,183117
1631632637809,40409,176875,183108
1631632637819,40413,176878,183102
1631632637829,40419,176899,183099
1631632637839,40410,176902,183088
1631632637849,40417,176924,183091
1631632637859,40410,176913,183100
1631632637869,40411,176931,183134
1631632637879,40434,176897,183128
1631632637889,40417,176913,183137
1631632637899,40424,176930,183153
1631632637909,40419,176901,183152
1631632637919,40403,176920,183161
1631632637929,40401,176884,183169
1631632637939,40385,176863,183169
1631632637949,40378,176872,183166
1631632637959,40361,176861,183140
1631632637969,40350,176860,183162
1631632637979,40332,176864,183139
1631632637989,40320,176848,183154
1631632637999,40302,176832,183137
1631632638009,40304,176835,183170
1631632638019,40288,176834,183152
1631632638029,40265,176823,183157
1631632638039,40267,176811,183154
1631632638049,40256,176811,183129
1631632638059,40230,176794,183145
1631632638069,40230,176788,183140
1631632638079,40214,176778,183135
1631632638089,40201,176764,183132
1631632638099,40187,176778,183136
1631632638109,40177,176766,183118
1631632638119,40171,176777,183097
1631632638129,40164,176767,183113
1631632638139,40147,176755,183097
1631632638149,40138,176771,183110
1631632638159,40133,176777,183087
1631632638169,40121,176760,183123
1631632638179,40126,176769,183088
1631632638189,40110,176744,183107
1631632638199,40111,176764,183094
1631632638209,40091,176763,183108
1631632638219,40089,176771,183096
1631632638229,40092,176751,183093
1631632638239,40087,176755,183096
1631632638249,40079,176762,183081
1631632638259,40075,176766,183090
1631632638269,40073,176771,183056
1631632638279,40069,176777,183066
1631632638289,40065,176767,183093
1631632638299,40051,176771,183084
1631632638309,40045,176760,183098
1631632638319,40049,176778,183097
1631632638329,40051,176763,183095
1631632638339,40054,176791,183099
1631632638349,40045,176764,183100
1631632638359,40042,176773,183097
1631632638369,40032,176801,183084
1631632638379,40025,176785,183081
1631632638389,40039,176785,183058
1631632638399,40037,176812,183090
1631632638409,40035,176801,183066
1631632638419,40031,176813,183087
1631632638429,40030,176810,183076
1631632638439,40029,176800,183068
1631632638449,40039,176798,183100
1631632638459,40042,176813,183086
1631632638469,40031,176837,183085
1631632638479,40029,176845,183077
1631632638489,40032,176849,183080
1631632638499,40043,176837,183079
1631632638509,40037,176832,183081
1631632638519,40037,176830,183094
1631632638529,40033,176838,183049
1631632638539,40039,176850,183069
1631632638549,40040,176850,183081
1631632638559,40038,176839,183092
1631632638569,40050,176890,183086
1631632638579,40045,176876,183066
1631632638589,40053,176872,183071
1631632638599,40048,176869,183076
1631632638609,40057,176877,183079
1631632638619,40058,176885,183085
1631632638629,40057,176888,183091
1631632638639,40061,176897,183089
1631632638649,40072,176911,183091
1631632638659,40074,176911,183117
1631632638669,40085,176913,183126
1631632638679,40074,176900,183145
1631632638689,40061,176887,183150
1631632638699,40072,176892,183142
1631632638709,40050,176870,183130
1631632638719,40042,176864,183165
1631632638729,40040,176857,183149
1631632638739,40028,176846,183171
1631632638749,40020,176815,183167
1631632638759,40006,176808,183159
1631632638769,39981,176829,183151
1631632638779,39987,176813,183144
1631632638789,39972,176815,183170
1631632638799,39951,176800,183166
1631632638809,39945,176810,183190
1631632638819,39947,176812,183182
1631632638829,39931,176782,183158
1631632638839,39917,176797,183182
1631632638849,39919,176762,183153
1631632638859,39909,176775,183150
1631632638869,39885,176758,183168
1631632638879,39879,176731,183157
1631632638889,39880,176743,183137
1631632638899,39866,176742,183152
1631632638909,39865,176743,183144
1631632638919,39858,176746,183155
1631632638929,39862,176733,183154
1631632638939,39855,176720,183138
1631632638949,39845,176748,183150
1631632638959,39854,176732,183148
1631632638969,39851,176736,183165
1631632638979,39851,176725,183141
1631632638989,39846,176725,183159
1631632638999,39839,176727,183134
1631632639009,39832,176719,183124
1631632639019,39832,176703,183137
1631632639029,39830,176701,183131
1631632639039,39834,176708,183136
1631632639049,39831,176698,183122
1631632639059,39825,176721,183128
1631632639069,39825,176701,183132
1631632639079,39837,176708,183119
1631632639089,39831,176707,183119
1631632639099,39825,176705,183113
1631632639109,39828,176686,183106
1631632639119,39828,176704,183137
1631632639129,39829,176696,183131
1631632639139,39827,176702,183124
1631632639149,39832,176699,183109
1631632639159,39830,176710,183124
1631632639169,39834,176707,183113
1631632639179,39847,176721,183113
1631632639189,39843,176712,183093
1631632639199,39854,176716,183092
1631632639209,39847,176713,183119
1631632639219,39858,176697,183136
1631632639229,39866,176737,183120
1631632639239,39872,176711,183117
1631632639249,39865,176726,183111
1631632639259,39876,176753,183110
1631632639269,39878,176748,183114
1631632639279,39882,176756,183109
1631632639289,39886,176742,183136
1631632639299,39888,176725,183135
1631632639309,39909,176748,183115
1631632639319,39900,176769,183119
1631632639329,39893,176764,183117
1631632639339,39921,176753,183121
1631632639349,39914,176753,183107
1631632639359,39915,176780,183128
1631632639369,39929,176755,183100
1631632639379,39936,176778,183119
1631632639389,39946,176812,183134
1631632639399,39952,176780,183140
1631632639409,39963,176803,183141
1631632639419,39963,176796,183145
1631632639429,39964,176800,183137
1631632639439,39971,176812,183135
1631632639449,39981,176808,183154
1631632639459,39985,176815,183161
1631632639469,39987,176842,183184
1631632639479,40007,176833,183183
1631632639489,40011,176832,183180
1631632639499,39994,176840,183198
1631632639509,40011,176838,183237
1631632639519,39988,176833,183224
1631632639529,39982,176800,183223
1631632639539,39980,176799,183219
1631632639549,39975,176799,183227
1631632639559,39971,176793,183211
1631632639569,39973,176806,183235
1631632639579,39960,176782,183223
1631632639589,39959,176787,183228
1631632639599,39953,176788,183232
1631632639609,39945,176777,183236
1631632639619,39946,176767,183234
1631632639629,39948,176766,183212
1631632639639,39941,176768,183229
1631632639649,39948,176743,183212
1631632639659,39926,176741,183221
1631632639669,39935,176752,183218
1631632639679,39933,176733,183184
1631632639689,39933,176735,183216
1631632639699,39933,176737,183199
1631632639709,39931,176702,183216
1631632639719,39933,176712,183187
1631632639729,39939,176740,183206
1631632639739,39938,176730,183197
1631632639749,39941,176734,183204
1631632639759,39939,176732,183212
1631632639769,39946,176727,183205
1631632639779,39943,176742,183206
1631632639789,39938,176755,183207
1631632639799,39958,176745,183211
1631632639809,39954,176727,183205
1631632639819,39945,176711,183182
1631632639829,39958,176728,183177
1631632639839,39951,176724,183197
1631632639849,39952,176711,183213
1631632639859,39957,176751,183175
1631632639869,39962,176731,183195
1631632639879,39977,176755,183183
1631632639889,39972,176757,183183
1631632639899,39973,176778,183180
1631632639909,39982,176734,183201
1631632639919,39986,176748,183202
1631632639929,39988,176760,183185
1631632639939,39999,176742,183198
1631632639949,40012,176769,183194
1631632639959,40018,176773,183205
1631632639969,40010,176749,183203
1631632639979,40017,176777,183178
1631632639989,40033,176787,183200
1631632639999,40032,176778,183197
1631632640009,40034,176779,183197
1631632640019,40040,176806,183201
1631632640029,40041,176812,183196
1631632640039,40054,176817,183195
1631632640049,40053,176818,183201
1631632640059,40068,176831,183219
1631632640069,40076,176826,183192
1631632640079,40074,176829,183198
1631632640089,40081,176836,183212
1631632640099,40087,176839,183212
1631632640109,40100,176865,183189
1631632640119,40116,176855,183212
1631632640129,40110,176867,183223
1631632640139,40123,176891,183190
1631632640149,40125,176886,183221
1631632640159,40129,176881,183213
1631632640169,40139,176886,183212
1631632640179,40143,176898,183233
1631632640189,40165,176936,183233
1631632640199,40166,176910,183242
1631632640209,40184,176926,183237
1631632640219,40183,176956,183266
1631632640229,40196,176955,183284
1631632640239,40206,176950,183293
1631632640249,40216,176956,183321
1631632640259,40208,176958,183298
1631632640269,40220,176954,183308
1631632640279,40214,176941,183343
1631632640289,40222,176942,183335
1631632640299,40218,176929,183329
1631632640309,40220,176944,183333
1631632640319,40221,176929,183335
1631632640329,40205,176945,183352
1631632640339,40210,176914,183340
1631632640349,40213,176953,183344
1631632640359,40207,176927,183367
1631632640369,40212,176931,183348
1631632640379,40216,176931,183334
1631632640389,40223,176936,183363
1631632640399,40217,176932,183333
1631632640409,40216,176932,183340
1631632640419,40221,176931,183329
1631632640429,40219,176928,183344
1631632640439,40227,176927,183332
1631632640449,40241,176960,183337
1631632640459,40238,176946,183350
1631632640469,40231,176932,183329
1631632640479,40235,176964,183342
1631632640489,40238,176949,183345
1631632640499,40241,176955,183367
1631632640509,40247,176935,183364
1631632640519,40262,176977,183369
1631632640529,40267,176984,183362
1631632640539,40270,176963,183352
1631632640549,40271,176976,183379
1631632640559,40276,176985,183366
1631632640569,40278,176990,183382
1631632640579,40278,176959,183358
1631632640589,40285,176969,183348
1631632640599,40286,176969,183364
1631632640609,40285,176977,183360
1631632640619,40303,176998,183368
1631632640629,40309,176975,183364
1631632640639,40302,176994,183365
1631632640649,40313,176995,183367
1631632640659,40312,176995,183366
1631632640669,40318,177005,183365
1631632640679,40327,177009,183371
1631632640689,40326,177000,183364
1631632640699,40344,177006,183355
1631632640709,40343,176991,183355
1631632640719,40351,177037,183362
1631632640729,40357,177000,183366
1631632640739,40363,177014,183388
1631632640749,40364,177025,183351
1631632640759,40380,177044,183358
1631632640769,40390,177035,183365
1631632640779,40371,177040,183360
1631632640789,40392,177038,183359
1631632640799,40406,177058,183377
1631632640809,40413,177064,183367
1631632640819,40422,177068,183365
1631632640829,40422,177063,183391
1631632640839,40434,177069,183368
1631632640849,40442,177105,183379
1631632640859,40446,177088,183378
1631632640869,40459,177083,183383
1631632640879,40457,177093,183371
1631632640889,40454,177090,183390
1631632640899,40468,177129,183381
1631632640909,40476,177117,183406
1631632640919,40491,177140,183385
1631632640929,40498,177154,183408
1631632640939,40504,177140,183415
1631632640949,40531,177125,183446
1631632640959,40524,177135,183457
1631632640969,40525,177157,183479
1631632640979,40519,177142,183481
1631632640989,40532,177156,183483
1631632640999,40528,177151,183468
1631632641009,40535,177123,183489
1631632641019,40539,177144,183489
1631632641029,40538,177139,183502
1631632641039,40536,177133,183490
1631632641049,40542,177111,183485
1631632641059,40544,177119,183515
1631632641069,40540,177125,183490
1631632641079,40538,177133,183485
1631632641089,40549,177110,183488
1631632641099,40542,177115,183482
1631632641109,40545,177119,183483
1631632641119,40555,177092,183499
1631632641129,40539,177094,183490
1631632641139,40542,177111,183478
1631632641149,40541,177098,183465
1631632641159,40540,177103,183461
1631632641169,40547,177095,183479
1631632641179,40551,177108,183476
1631632641189,40556,177096,183487
1631632641199,40549,177104,183453
1631632641209,40554,177068,183466
1631632641219,40557,177115,183462
1631632641229,40564,177110,183490
1631632641239,40567,177122,183479
1631632641249,40581,177110,183460
1631632641259,40564,177114,183471
1631632641269,40570,177121,183472
1631632641279,40581,177142,183472
1631632641289,40577,177111,183448
1631632641299,40575,177124,183469
1631632641309,40584,177103,183456
1631632641319,40581,177115,183452
1631632641329,40595,177112,183466
1631632641339,40599,177136,183462
1631632641349,40600,177107,183436
1631632641359,40602,177124,183455
1631632641369,40596,177118,183483
1631632641379,40601,177134,183439
1631632641389,40609,177149,183439
1631632641399,40616,177152,183431
1631632641409,40618,177133,183434
1631632641419,40616,177151,183425
1631632641429,40628,177126,183435
1631632641439,40626,177155,183413
1631632641449,40628,177146,183424
1631632641459,40639,177153,183439
1631632641469,40634,177135,183417
1631632641479,40640,177190,183422
1631632641489,40652,177178,183436
1631632641499,40655,177143,183420
1631632641509,40664,177155,183451
1631632641519,40666,177190,183426
1631632641529,40672,177169,183424
1631632641539,40671,177207,183413
1631632641549,40682,177200,183411
1631632641559,40683,177198,183422
1631632641569,40690,177204,183437
1631632641579,40690,177197,183430
1631632641589,40705,177230,183433
1631632641599,40710,177220,183454
1631632641609,40717,177195,183422
1631632641619,40720,177244,183479
1631632641629,40723,177243,183466
1631632641639,40730,177247,183486
1631632641649,40738,177237,183482
1631632641659,40748,177244,183513
1631632641669,40742,177256,183512
1631632641679,40748,177228,183511
1631632641689,40746,177238,183500
1631632641699,40741,177242,183521
1631632641709,40743,177223,183508
1631632641719,40745,177231,183508
1631632641729,40745,177253,183544
1631632641739,40742,177248,183532
1631632641749,40740,177253,183526
1631632641759,40737,177282,183539
1631632641769,40741,177266,183548
1631632641779,40740,177257,183529
1631632641789,40733,177252,183520
1631632641799,40731,177248,183522
1631632641809,40739,177237,183523
1631632641819,40745,177234,183502
1631632641829,40741,177223,183494
1631632641839,40740,177197,183512
1631632641849,40733,177210,183479
1631632641859,40731,177199,183466
1631632641869,40727,177160,183485
1631632641879,40729,177183,183492
1631632641889,40735,177211,183477
1631632641899,40725,177159,183453
1631632641909,40740,177175,183472
1631632641919,40737,177188,183483
1631632641929,40738,177187,183463
1631632641939,40734,177178,183453
1631632641949,40738,177172,183475
1631632641959,40746,177186,183462
1631632641969,40746,177159,183458
1631632641979,40739,177183,183469
1631632641989,40753,177189,183476
1631632641999,40753,177196,183457
1631632642009,40755,177192,183444
1631632642019,40757,177178,183445
1631632642029,40747,177173,183449
1631632642039,40750,177187,183449
1631632642049,40776,177174,183466
1631632642059,40768,177171,183453
1631632642069,40764,177184,183449
1631632642079,40767,177193,183431
1631632642089,40768,177191,183458
1631632642099,40765,177173,183413
1631632642109,40764,177183,183425
1631632642119,40769,177182,183413
1631632642129,40773,177174,183425
1631632642139,40771,177207,183406
1631632642149,40789,177203,183405
1631632642159,40775,177224,183411
1631632642169,40787,177212,183435
1631632642179,40786,177194,183409
1631632642189,40801,177207,183424
1631632642199,40795,177217,183425
1631632642209,40808,177228,183406
1631632642219,40809,177229,183401
1631632642229,40818,177225,183403
1631632642239,40814,177235,183423
1631632642249,40822,177226,183394
1631632642259,40812,177243,183384
1631632642269,40819,177255,183394
1631632642279,40822,177241,183409
1631632642289,40826,177281,183402
1631632642299,40838,177249,183429
1631632642309,40846,177249,183413
1631632642319,40852,177283,183413
1631632642329,40856,177277,183407
1631632642339,40862,177296,183436
1631632642349,40865,177283,183453
1631632642359,40862,177240,183462
1631632642369,40859,177260,183457
1631632642379,40873,177240,183459
1631632642389,40873,177242,183458
1631632642399,40871,177257,183463
1631632642409,40868,177237,183473
1631632642419,40864,177224,183474
1631632642429,40870,177246,183458
1631632642439,40858,177227,183473
1631632642449,40855,177192,183462
1631632642459,40861,177201,183453
1631632642469,40852,177219,183475
1631632642479,40853,177204,183460
1631632642489,40848,177209,183444
1631632642499,40850,177200,183462
1631632642509,40840,177184,183445
1631632642519,40833,177172,183448
1631632642529,40830,177155,183449
1631632642539,40832,177172,183406
1631632642549,40831,177178,183451
1631632642559,40836,177178,183418
1631632642569,40813,177152,183435
1631632642579,40815,177154,183402
1631632642589,40819,177164,183396
1631632642599,40816,177168,183395
1631632642609,40823,177161,183427
1631632642619,40820,177175,183411
1631632642629,40814,177134,183396
1631632642639,40824,177160,183410
1631632642649,40822,177168,183404
1631632642659,40814,177170,183380
1631632642669,40823,177164,183388
1631632642679,40811,177152,183400
1631632642689,40815,177168,183389
1631632642699,40814,177161,183387
1631632642709,40814,177150,183389
1631632642719,40811,177162,183373
1631632642729,40826,177176,183382
1631632642739,40819,177153,183384
1631632642749,40812,177179,183388
1631632642759,40806,177172,183386
1631632642769,40814,177137,183367
1631632642779,40807,177162,183393
1631632642789,40823,177161,183364
1631632642799,40808,177134,183368
1631632642809,40821,177188,183364
1631632642819,40821,177178,183386
1631632642829,40817,177175,183352
1631632642839,40814,177168,183347
1631632642849,40817,177189,183350
1631632642859,40818,177174,183355
1631632642869,40830,177175,183342
1631632642879,40809,177159,183350
1631632642889,40827,177182,183353
1631632642899,40834,177198,183356
1631632642909,40831,177185,183339
1631632642919,40829,177202,183349
1631632642929,40831,177179,183341
1631632642939,40830,177185,183337
1631632642949,40830,177164,183340
1631632642959,40839,177212,183323
1631632642969,40842,177187,183329
1631632642979,40843,177176,183341
1631632642989,40844,177187,183305
1631632642999,40854,177200,183329
1631632643009,40850,177202,183318
1631632643019,40855,177179,183325
1631632643029,40863,177205,183341
1631632643039,40866,177211,183366
1631632643049,40869,177219,183336
1631632643059,40876,177203,183381
1631632643069,40874,177206,183399
1631632643079,40860,177196,183395
1631632643089,40857,177199,183361
1631632643099,40854,177181,183376
1631632643109,40852,177154,183390
1631632643119,40837,177164,183371
1631632643129,40841,177162,183371
1631632643139,40834,177179,183368
1631632643149,40833,177151,183421
1631632643159,40820,177155,183379
1631632643169,40817,177143,183372
1631632643179,40812,177146,183369
1631632643189,40809,177150,183377
1631632643199,40802,177155,183368
1631632643209,40796,177138,183353
1631632643219,40789,177142,183356
1631632643229,40783,177111,183352
1631632643239,40773,177101,183346
1631632643249,40764,177128,183355
1631632643259,40759,177099,183327
1631632643269,40761,177093,183328
1631632643279,40758,177109,183330
1631632643289,40755,177136,183327
1631632643299,40749,177114,183358
1631632643309,40753,177115,183349
1631632643319,40747,177107,183334
1631632643329,40734,177125,183335
1631632643339,40734,177098,183332
1631632643349,40740,177118,183330
1631632643359,40725,177092,183340
1631632643369,40730,177110,183341
1631632643379,40721,177116,183333
1631632643389,40729,177109,183330
1631632643399,40716,177122,183333
1631632643409,40719,177111,183336
1631632643419,40707,177107,183326
1631632643429,40718,177121,183340
1631632643439,40719,177114,183339
1631632643449,40712,177117,183336
1631632643459,40703,177140,183318
1631632643469,40696,177138,183310
1631632643479,40698,177112,183296
1631632643489,40689,177109,183307
1631632643499,40700,177117,183307
1631632643509,40687,177115,183316
1631632643519,40700,177106,183304
1631632643529,40693,177122,183309
1631632643539,40700,177127,183301
1631632643549,40704,177113,183305
1631632643559,40688,177109,183314
1631632643569,40688,177135,183303
1631632643579,40698,177134,183308
1631632643589,40694,177120,183308
1631632643599,40686,177141,183300
1631632643609,40685,177162,183297
1631632643619,40696,177152,183303
1631632643629,40682,177150,183292
1631632643639,40690,177164,183297
1631632643649,40681,177157,183300
1631632643659,40685,177174,183298
1631632643669,40681,177172,183294
1631632643679,40695,177162,183320
1631632643689,40703,177179,183309
1631632643699,40704,177152,183290
1631632643709,40699,177189,183292
1631632643719,40694,177191,183291
1631632643729,40697,177196,183306
1631632643739,40695,177183,183332
1631632643749,40700,177219,183353
1631632643759,40701,177198,183358
1631632643769,40705,177194,183343
1631632643779,40691,177180,183353
1631632643789,40691,177178,183354
1631632643799,40680,177166,183359
1631632643809,40677,177167,183367
1631632643819,40660,177159,183372
1631632643829,40647,177153,183354
1631632643839,40616,177118,183362
1631632643849,40621,177135,183366
1631632643859,40608,177129,183344
1631632643869,40602,177124,183338
1631632643879,40587,177124,183367
1631632643889,40574,177087,183353
1631632643899,40564,177086,183358
1631632643909,40559,177094,183324
1631632643919,40535,177088,183333
1631632643929,40529,177068,183350
1631632643939,40522,177077,183327
1631632643949,40519,177081,183314
1631632643959,40498,177063,183299
1631632643969,40496,177052,183325
1631632643979,40486,177071,183296
1631632643989,40486,177056,183330
1631632643999,40477,177064,183326
1631632644009,40474,177060,183298
1631632644019,40473,177063,183280
1631632644029,40464,177057,183325
1631632644039,40442,177048,183311
1631632644049,40447,177035,183293
1631632644059,40449,177038,183302
1631632644069,40439,177049,183300
1631632644079,40439,177027,183287
1631632644089,40426,177047,183296
1631632644099,40427,177015,183300
1631632644109,40415,177046,183267
1631632644119,40419,177044,183292
1631632644129,40404,177039,183285
1631632644139,40404,177024,183284
1631632644149,40397,177037,183290
1631632644159,40402,177024,183274
1631632644169,40389,177048,183279
1631632644179,40396,177032,183309
1631632644189,40376,177009,183286
1631632644199,40384,177056,183290
1631632644209,40382,177037,183277
1631632644219,40384,177060,183298
1631632644229,40384,177026,183272
1631632644239,40380,177024,183247
1631632644249,40373,177029,183273
1631632644259,40379,177056,183262
1631632644269,40372,177055,183270
1631632644279,40386,177055,183273
1631632644289,40369,177050,183263
1631632644299,40369,177051,183245
1631632644309,40374,177081,183266
1631632644319,40378,177049,183243
1631632644329,40387,177077,183248
1631632644339,40372,177078,183257
1631632644349,40386,177076,183247
1631632644359,40370,177041,183227
1631632644369,40373,177080,183268
1631632644379,40370,177078,183242
1631632644389,40384,177049,183266
1631632644399,40381,177103,183268
1631632644409,40389,177098,183262
1631632644419,40399,177094,183275
1631632644429,40398,177120,183293
1631632644439,40404,177094,183295
1631632644449,40398,177115,183322
1631632644459,40397,177090,183323
1631632644469,40381,177119,183317
1631632644479,40370,177058,183335
1631632644489,40368,177065,183324
1631632644499,40352,177034,183336
1631632644509,40335,177041,183316
1631632644519,40318,177055,183338
1631632644529,40306,177024,183324
1631632644539,40294,177007,183324
1631632644549,40286,177028,183314
1631632644559,40280,177024,183328
1631632644569,40264,176985,183319
1631632644579,40252,177003,183339
1631632644589,40237,176978,183323
1631632644599,40229,176974,183298
1631632644609,40218,176964,183309
1631632644619,40208,176959,183316
1631632644629,40204,176922,183314
1631632644639,40189,176902,183296
1631632644649,40181,176938,183292
1631632644659,40171,176942,183294
1631632644669,40171,176920,183274
1631632644679,40173,176912,183268
1631632644689,40159,176927,183272
1631632644699,40165,176910,183274
1631632644709,40154,176923,183279
1631632644719,40160,176916,183253
1631632644729,40153,176908,183281
1631632644739,40146,176917,183282
1631632644749,40137,176905,183278
1631632644759,40146,176925,183276
1631632644769,40145,176933,183281
1631632644779,40141,176921,183285
1631632644789,40131,176904,183267
1631632644799,40129,176932,183276
1631632644809,40131,176924,183263
1631632644819,40131,176901,183269
1631632644829,40124,176908,183268
1631632644839,40117,176898,183277
1631632644849,40122,176900,183257
1631632644859,40113,176875,183273
1631632644869,40111,176911,183277
1631632644879,40115,176907,183279
1631632644889,40122,176898,183265
1631632644899,40122,176913,183260
1631632644909,40124,176914,183263
1631632644919,40124,176923,183252
1631632644929,40122,176921,183267
1631632644939,40121,176924,183280
1631632644949,40130,176909,183266
1631632644959,40134,176929,183269
1631632644969,40129,176951,183255
1631632644979,40131,176938,183291
1631632644989,40130,176898,183276
1631632644999,40123,176929,183256
1631632645009,40144,176943,183242
1631632645019,40136,176952,183273
1631632645029,40137,176943,183265
1631632645039,40155,176946,183261
1631632645049,40153,176973,183263
1631632645059,40158,176976,183261
1631632645069,40162,176973,183263
1631632645079,40164,176966,183258
1631632645089,40184,176989,183274
1631632645099,40172,176990,183275
1631632645109,40180,177007,183278
1631632645119,40190,177015,183289
1631632645129,40182,177022,183285
1631632645139,40205,176993,183311
1631632645149,40200,176998,183328
1631632645159,40187,177009,183322
1631632645169,40179,176985,183326
1631632645179,40182,176958,183349
1631632645189,40171,176939,183353
1631632645199,40147,176958,183352
1631632645209,40143,176958,183322
1631632645219,40142,176931,183352
1631632645229,40123,176945,183349
1631632645239,40115,176929,183349
1631632645249,40100,176915,183340
1631632645259,40100,176931,183337
1631632645269,40093,176919,183349
1631632645279,40082,176901,183345
1631632645289,40082,176903,183348
1631632645299,40083,176891,183324
1631632645309,40064,176860,183340
1631632645319,40067,176882,183336
1631632645329,40061,176875,183326
1631632645339,40049,176832,183319
1631632645349,40043,176868,183338
1631632645359,40045,176872,183333
1631632645369,40045,176857,183313
1631632645379,40051,176853,183333
1631632645389,40040,176829,183327
1631632645399,40041,176862,183337
1631632645409,40045,176845,183338
1631632645419,40052,176867,183317
1631632645429,40045,176845,183325
1631632645439,40038,176837,183318
1631632645449,40050,176853,183329
1631632645459,40049,176845,183307
1631632645469,40030,176822,183307
1631632645479,40045,176803,183338
1631632645489,40053,176821,183305
1631632645499,40038,176837,183316
1631632645509,40042,176817,183308
1631632645519,40045,176817,183316
1631632645529,40047,176837,183324
1631632645539,40051,176826,183313
1631632645549,40062,176842,183338
1631632645559,40065,176817,183300
1631632645569,40064,176840,183315
1631632645579,40062,176849,183305
1631632645589,40068,176842,183331
1631632645599,40071,176833,183328
1631632645609,40081,176850,183286
1631632645619,40083,176854,183325
1631632645629,40090,176871,183308
1631632645639,40078,176874,183328
1631632645649,40096,176884,183287
1631632645659,40111,176888,183326
1631632645669,40106,176872,183327
1631632645679,40109,176890,183321
1631632645689,40116,176890,183330
1631632645699,40125,176933,183337
1631632645709,40136,176940,183343
1631632645719,40140,176941,183341
1631632645729,40144,176894,183334
1631632645739,40149,176932,183350
1631632645749,40152,176934,183345
1631632645759,40158,176929,183317
1631632645769,40162,176939,183340
1631632645779,40174,176934,183367
1631632645789,40192,176971,183322
1631632645799,40185,176948,183329
1631632645809,40184,176951,183332
1631632645819,40193,176966,183331
1631632645829,40207,176970,183333
1631632645839,40220,176983,183389
1631632645849,40224,176981,183390
1631632645859,40235,177013,183403
1631632645869,40231,176985,183398
1631632645879,40227,176994,183429
1631632645889,40238,177004,183434
1631632645899,40235,176973,183422
1631632645909,40223,176983,183432
1631632645919,40217,176945,183445
1631632645929,40205,176947,183416
1631632645939,40214,176942,183424
1631632645949,40208,176951,183417
1631632645959,40211,176950,183426
1631632645969,40200,176937,183458
1631632645979,40199,176931,183447
1631632645989,40204,176935,183421
1631632645999,40197,176912,183422
1631632646009,40190,176941,183414
1631632646019,40196,176916,183409
1631632646029,40195,176915,183410
1631632646039,40180,176907,183408
1631632646049,40200,176919,183400
1631632646059,40189,176912,183400
1631632646069,40185,176928,183395
1631632646079,40184,176913,183400
1631632646089,40188,176896,183396
1631632646099,40197,176915,183403
1631632646109,40197,176919,183404
1631632646119,40202,176922,183412
1631632646129,40202,176899,183398
1631632646139,40217,176896,183395
1631632646149,40209,176913,183400
1631632646159,40213,176903,183410
1631632646169,40210,176912,183412
1631632646179,40228,176903,183409
1631632646189,40224,176909,183418
1631632646199,40221,176909,183391
1631632646209,40234,176943,183389
1631632646219,40235,176921,183415
1631632646229,40242,176921,183406
1631632646239,40243,176936,183401
1631632646249,40240,176933,183403
1631632646259,40251,176940,183378
1631632646269,40259,176959,183391
1631632646279,40254,176960,183394
1631632646289,40274,176941,183393
1631632646299,40280,176939,183393
1631632646309,40272,176965,183405
1631632646319,40275,176928,183385
1631632646329,40287,176950,183387
1631632646339,40298,176952,183376
1631632646349,40296,176980,183392
1631632646359,40305,176965,183374
1631632646369,40316,176963,183370
1631632646379,40322,176985,183372
1631632646389,40325,177001,183395
1631632646399,40329,176982,183384
1631632646409,40330,177010,183389
1631632646419,40351,176985,183384
1631632646429,40348,177008,183397
1631632646439,40356,177021,183397
1631632646449,40376,176996,183412
1631632646459,40362,177031,183384
1631632646469,40370,177017,183391
1631632646479,40374,177020,183384
1631632646489,40386,177027,183373
1631632646499,40395,177011,183396
1631632646509,40399,177044,183386
1631632646519,40420,177033,183390
1631632646529,40425,177059,183418
1631632646539,40428,177057,183419
1631632646549,40443,177071,183426
1631632646559,40451,177071,183442
1631632646569,40457,177096,183464
1631632646579,40467,177097,183441
1631632646589,40469,177062,183464
1631632646599,40471,177078,183485
1631632646609,40460,177068,183473
1631632646619,40461,177092,183489
1631632646629,40470,177101,183497
1631632646639,40470,177083,183497
1631632646649,40463,177056,183512
1631632646659,40468,177089,183504
1631632646669,40476,177080,183486
1631632646679,40457,177083,183505
1631632646689,40480,177080,183496
1631632646699,40470,177078,183498
1631632646709,40477,177080,183485
1631632646719,40476,177067,183492
1631632646729,40477,177073,183489
1631632646739,40474,177089,183482
1631632646749,40482,177063,183485
1631632646759,40477,177088,183482
1631632646769,40482,177092,183494
1631632646779,40488,177065,183472
1631632646789,40492,177082,183488
1631632646799,40499,177108,183476
1631632646809,40510,177096,183487
1631632646819,40499,177115,183503
1631632646829,40509,177087,183487
1631632646839,40521,177122,183495
1631632646849,40518,177078,183515
1631632646859,40541,177096,183530
1631632646869,40524,177130,183494
1631632646879,40532,177135,183507
1631632646889,40534,177125,183514
1631632646899,40541,177112,183518
1631632646909,40549,177126,183517
1631632646919,40559,177133,183518
1631632646929,40551,177123,183493
1631632646939,40556,177139,183506
1631632646949,40562,177130,183521
1631632646959,40570,177148,183498
1631632646969,40568,177156,183499
1631632646979,40579,177158,183495
1631632646989,40583,177125,183483
1631632646999,40589,177168,183488
1631632647009,40594,177168,183485
1631632647019,40608,177158,183502
1631632647029,40611,177171,183476
1631632647039,40616,177174,183496
1631632647049,40620,177186,183492
1631632647059,40630,177188,183495
1631632647069,40626,177188,183488
1631632647079,40629,177197,183527
1631632647089,40651,177231,183522
1631632647099,40656,177221,183520
1631632647109,40661,177213,183505
1631632647119,40659,177235,183510
1631632647129,40671,177225,183519
1631632647139,40675,177260,183498
1631632647149,40670,177240,183519
1631632647159,40698,177250,183507
1631632647169,40690,177281,183498
1631632647179,40694,177272,183518
1631632647189,40707,177282,183493
1631632647199,40707,177265,183497
1631632647209,40722,177287,183493
1631632647219,40727,177275,183537
1631632647229,40740,177300,183519
1631632647239,40750,177337,183528
1631632647249,40742,177310,183552
1631632647259,40765,177318,183576
1631632647269,40760,177311,183576
1631632647279,40770,177322,183570
1631632647289,40777,177313,183616
1631632647299,40783,177331,183592
1631632647309,40778,177305,183572
1631632647319,40781,177279,183578
1631632647329,40779,177290,183574
1631632647339,40776,177318,183567
1631632647349,40788,177293,183594
1631632647359,40773,177286,183567
1631632647369,40777,177271,183604
1631632647379,40777,177279,183590
1631632647389,40772,177274,183573
1631632647399,40784,177279,183572
1631632647409,40779,177295,183587
1631632647419,40784,177296,183582
1631632647429,40786,177299,183566
1631632647439,40782,177273,183598
1631632647449,40783,177266,183563
1631632647459,40780,177288,183557
1631632647469,40782,177289,183560
1631632647479,40782,177304,183558
1631632647489,40787,177280,183575
1631632647499,40789,177295,183555
1631632647509,40796,177294,183549
1631632647519,40794,177308,183555
1631632647529,40798,177312,183575
1631632647539,40806,177309,183586
1631632647549,40807,177308,183550
1631632647559,40809,177299,183570
1631632647569,40813,177324,183570
1631632647579,40826,177300,183582
1631632647589,40825,177323,183554
1631632647599,40823,177306,183574
1631632647609,40811,177329,183566
1631632647619,40822,177320,183553
1631632647629,40828,177342,183579
1631632647639,40834,177316,183553
1631632647649,40843,177335,183579
1631632647659,40841,177352,183566
1631632647669,40835,177349,183564
1631632647679,40849,177345,183572
1631632647689,40850,177348,183558
1631632647699,40860,177375,183555
1631632647709,40862,177348,183552
1631632647719,40865,177373,183535
1631632647729,40873,177371,183575
1631632647739,40886,177382,183568
1631632647749,40891,177371,183572
1631632647759,40883,177382,183567
1631632647769,40887,177383,183567
1631632647779,40884,177405,183580
1631632647789,40895,177421,183571
1631632647799,40908,177449,183579
1631632647809,40915,177431,183573
1631632647819,40915,177448,183604
1631632647829,40910,177426,183564
1631632647839,40926,177445,183586
1631632647849,40919,177473,183585
1631632647859,40929,177439,183587
1631632647869,40939,177464,183570
1631632647879,40932,177432,183583
1631632647889,40952,177483,183576
1631632647899,40958,177487,183589
1631632647909,40955,177479,183590
1631632647919,40976,177483,183584
1631632647929,40970,177485,183624
1631632647939,40974,177525,183612
1631632647949,40982,177530,183632
1631632647959,40997,177520,183621
1631632647969,40988,177494,183640
1631632647979,41003,177538,183655
1631632647989,41015,177519,183665
1631632647999,41009,177491,183667
1631632648009,41010,177517,183651
1631632648019,41006,177541,183652
1631632648029,41003,177487,183655
1631632648039,41009,177491,183659
1631632648049,41013,177487,183670
1631632648059,41014,177505,183660
1631632648069,40993,177502,183667
1631632648079,41005,177461,183657
1631632648089,41005,177478,183676
1631632648099,41004,177486,183644
1631632648109,40994,177476,183648
1631632648119,40991,177453,183633
1631632648129,40994,177451,183644
1631632648139,40995,177452,183632
1631632648149,40988,177442,183637
1631632648159,40983,177455,183649
1631632648169,40991,177460,183659
1631632648179,40982,177467,183629
1631632648189,40989,177466,183643
1631632648199,40985,177464,183626
1631632648209,41000,177485,183629
1631632648219,41004,177501,183643
1631632648229,41011,177515,183634
1631632648239,41002,177515,183627
1631632648249,41000,177483,183635
1631632648259,41002,177483,183647
1631632648269,40999,177502,183633
1631632648279,41010,177504,183649
