timestamp,ecg_waveform
1629370423001,2047
1629370423005,2047
1629370423009,2047
1629370423013,2048
1629370423017,2048
1629370423021,2048
1629370423025,2048
1629370423029,2048
1629370423033,2048
1629370423037,2048
1629370423041,2049
1629370423045,2053
1629370423049,2057
1629370423053,2062
1629370423057,2068
1629370423061,2076
1629370423065,2091
1629370423069,2115
1629370423073,2146
1629370423077,2176
1629370423081,2190
1629370423085,2176
1629370423089,2132
1629370423093,2067
1629370423097,2002
1629370423101,1953
1629370423105,1932
1629370423109,1939
1629370423113,1961
1629370423117,1988
1629370423121,2011
1629370423125,2027
1629370423129,2039
1629370423133,2048
1629370423137,2055
1629370423141,2059
1629370423145,2061
1629370423149,2061
1629370423153,2062
1629370423157,2062
1629370423161,2062
1629370423165,2063
1629370423169,2063
1629370423173,2064
1629370423177,2065
1629370423181,2065
1629370423185,2066
1629370423189,2066
1629370423193,2067
1629370423197,2067
1629370423201,2067
1629370423205,2068
1629370423209,2068
1629370423213,2069
1629370423217,2070
1629370423221,2071
1629370423225,2072
1629370423229,2073
1629370423233,2074
1629370423237,2075
1629370423241,2075
1629370423245,2076
1629370423249,2077
1629370423253,2079
1629370423257,2081
1629370423261,2083
1629370423265,2084
1629370423269,2085
1629370423273,2087
1629370423277,2088
1629370423281,2090
1629370423285,2092
1629370423289,2094
1629370423293,2097
1629370423297,2099
1629370423301,2102
1629370423305,2104
1629370423309,2105
1629370423313,2107
1629370423317,2108
1629370423321,2108
1629370423325,2109
1629370423329,2109
1629370423333,2110
1629370423337,2111
1629370423341,2112
1629370423345,2112
1629370423349,2111
1629370423353,2108
1629370423357,2104
1629370423361,2100
1629370423365,2094
1629370423369,2089
1629370423373,2084
1629370423377,2078
1629370423381,2072
1629370423385,2066
1629370423389,2061
1629370423393,2056
1629370423397,2052
1629370423401,2048
1629370423405,2046
1629370423409,2044
1629370423413,2042
1629370423417,2041
1629370423421,2039
1629370423425,2039
1629370423429,2038
1629370423433,2036
1629370423437,2035
1629370423441,2034
1629370423445,2034
1629370423449,2034
1629370423453,2034
1629370423457,2034
1629370423461,2035
1629370423465,2035
1629370423469,2035
1629370423473,2035
1629370423477,2035
1629370423481,2035
1629370423485,2035
1629370423489,2035
1629370423493,2036
1629370423497,2038
1629370423501,2038
1629370423505,2039
1629370423509,2038
1629370423513,2038
1629370423517,2038
1629370423521,2038
1629370423525,2038
1629370423529,2038
1629370423533,2039
1629370423537,2040
1629370423541,2041
1629370423545,2041
1629370423549,2041
1629370423553,2041
1629370423557,2041
1629370423561,2040
1629370423565,2040
1629370423569,2040
1629370423573,2040
1629370423577,2041
1629370423581,2042
1629370423585,2042
1629370423589,2043
1629370423593,2042
1629370423597,2042
1629370423601,2041
1629370423605,2041
1629370423609,2042
1629370423613,2042
1629370423617,2042
1629370423621,2043
1629370423625,2043
1629370423629,2044
1629370423633,2044
1629370423637,2044
1629370423641,2043
1629370423645,2043
1629370423649,2042
1629370423653,2042
1629370423657,2043
1629370423661,2043
1629370423665,2043
1629370423669,2043
1629370423673,2043
1629370423677,2043
1629370423681,2043
1629370423685,2043
1629370423689,2043
1629370423693,2043
1629370423697,2043
1629370423701,2044
1629370423705,2044
1629370423709,2044
1629370423713,2043
1629370423717,2043
1629370423721,2043
1629370423725,2043
1629370423729,2043
1629370423733,2044
1629370423737,2044
1629370423741,2044
1629370423745,2045
1629370423749,2045
1629370423753,2045
1629370423757,2045
1629370423761,2044
1629370423765,2044
1629370423769,2044
1629370423773,2044
1629370423777,2044
1629370423781,2045
1629370423785,2045
1629370423789,2045
1629370423793,2046
1629370423797,2046
1629370423801,2046
1629370423805,2046
1629370423809,2046
1629370423813,2047
1629370423817,2047
1629370423821,2047
1629370423825,2047
1629370423829,2046
1629370423833,2046
1629370423837,2046
1629370423841,2046
1629370423845,2046
1629370423849,2047
1629370423853,2048
1629370423857,2048
1629370423861,2048
1629370423865,2048
1629370423869,2048
1629370423873,2048
1629370423877,2048
1629370423881,2048
1629370423885,2048
1629370423889,2048
1629370423893,2049
1629370423897,2050
1629370423901,2050
1629370423905,2050
1629370423909,2050
1629370423913,2048
1629370423917,2048
1629370423921,2047
1629370423925,2048
1629370423929,2048
1629370423933,2050
1629370423937,2051
1629370423941,2052
1629370423945,2051
1629370423949,2050
1629370423953,2049
1629370423957,2048
1629370423961,2048
1629370423965,2048
1629370423969,2048
1629370423973,2048
1629370423977,2048
1629370423981,2048
1629370423985,2048
1629370423989,2048
1629370423993,2048
1629370423997,2047
1629370424001,2047
1629370424005,2048
1629370424009,2048
1629370424013,2048
1629370424017,2048
1629370424021,2048
1629370424025,2049
1629370424029,2049
1629370424033,2049
1629370424037,2049
1629370424041,2048
1629370424045,2048
1629370424049,2049
1629370424053,2053
1629370424057,2057
1629370424061,2062
1629370424065,2067
1629370424069,2074
1629370424073,2086
1629370424077,2105
1629370424081,2133
1629370424085,2164
1629370424089,2186
1629370424093,2186
1629370424097,2156
1629370424101,2101
1629370424105,2036
1629370424109,1979
1629370424113,1946
1629370424117,1942
1629370424121,1960
1629370424125,1987
1629370424129,2014
1629370424133,2033
1629370424137,2045
1629370424141,2053
1629370424145,2059
1629370424149,2062
1629370424153,2064
1629370424157,2064
1629370424161,2065
1629370424165,2065
1629370424169,2066
1629370424173,2067
1629370424177,2068
1629370424181,2068
1629370424185,2069
1629370424189,2069
1629370424193,2070
1629370424197,2070
1629370424201,2070
1629370424205,2070
1629370424209,2071
1629370424213,2072
1629370424217,2073
1629370424221,2074
1629370424225,2074
1629370424229,2075
1629370424233,2075
1629370424237,2075
1629370424241,2076
1629370424245,2077
1629370424249,2078
1629370424253,2079
1629370424257,2081
1629370424261,2082
1629370424265,2083
1629370424269,2084
1629370424273,2086
1629370424277,2087
1629370424281,2089
1629370424285,2091
1629370424289,2093
1629370424293,2095
1629370424297,2097
1629370424301,2099
1629370424305,2100
1629370424309,2102
1629370424313,2104
1629370424317,2105
1629370424321,2106
1629370424325,2108
1629370424329,2109
1629370424333,2111
1629370424337,2113
1629370424341,2114
1629370424345,2114
1629370424349,2113
1629370424353,2113
1629370424357,2112
1629370424361,2111
1629370424365,2109
1629370424369,2105
1629370424373,2101
1629370424377,2096
1629370424381,2091
1629370424385,2086
1629370424389,2080
1629370424393,2074
1629370424397,2069
1629370424401,2064
1629370424405,2060
1629370424409,2057
1629370424413,2054
1629370424417,2051
1629370424421,2049
1629370424425,2048
1629370424429,2046
1629370424433,2045
1629370424437,2043
1629370424441,2042
1629370424445,2042
1629370424449,2041
1629370424453,2041
1629370424457,2041
1629370424461,2041
1629370424465,2041
1629370424469,2040
1629370424473,2040
1629370424477,2039
1629370424481,2039
1629370424485,2039
1629370424489,2039
1629370424493,2040
1629370424497,2041
1629370424501,2042
1629370424505,2042
1629370424509,2042
1629370424513,2042
1629370424517,2041
1629370424521,2041
1629370424525,2041
1629370424529,2042
1629370424533,2043
1629370424537,2044
1629370424541,2045
1629370424545,2044
1629370424549,2044
1629370424553,2043
1629370424557,2042
1629370424561,2042
1629370424565,2043
1629370424569,2043
1629370424573,2044
1629370424577,2045
1629370424581,2045
1629370424585,2045
1629370424589,2044
1629370424593,2044
1629370424597,2043
1629370424601,2043
1629370424605,2044
1629370424609,2044
1629370424613,2045
1629370424617,2046
1629370424621,2046
1629370424625,2045
1629370424629,2045
1629370424633,2045
1629370424637,2045
1629370424641,2044
1629370424645,2044
1629370424649,2044
1629370424653,2044
1629370424657,2045
1629370424661,2045
1629370424665,2045
1629370424669,2045
1629370424673,2044
1629370424677,2044
1629370424681,2044
1629370424685,2044
1629370424689,2044
1629370424693,2045
1629370424697,2045
1629370424701,2045
1629370424705,2046
1629370424709,2045
1629370424713,2045
1629370424717,2045
1629370424721,2044
1629370424725,2045
1629370424729,2045
1629370424733,2045
1629370424737,2046
1629370424741,2047
1629370424745,2047
1629370424749,2047
1629370424753,2046
1629370424757,2045
1629370424761,2045
1629370424765,2046
1629370424769,2046
1629370424773,2047
1629370424777,2048
1629370424781,2048
1629370424785,2048
1629370424789,2047
1629370424793,2047
1629370424797,2047
1629370424801,2047
1629370424805,2047
1629370424809,2047
1629370424813,2047
1629370424817,2048
1629370424821,2048
1629370424825,2048
1629370424829,2048
1629370424833,2048
1629370424837,2048
1629370424841,2048
1629370424845,2048
1629370424849,2048
1629370424853,2048
1629370424857,2048
1629370424861,2048
1629370424865,2049
1629370424869,2049
1629370424873,2048
1629370424877,2048
1629370424881,2048
1629370424885,2048
1629370424889,2048
1629370424893,2048
1629370424897,2049
1629370424901,2050
1629370424905,2050
1629370424909,2050
1629370424913,2050
1629370424917,2050
1629370424921,2050
1629370424925,2050
1629370424929,2051
1629370424933,2052
1629370424937,2052
1629370424941,2053
1629370424945,2053
1629370424949,2053
1629370424953,2053
1629370424957,2052
1629370424961,2051
1629370424965,2049
1629370424969,2049
1629370424973,2049
1629370424977,2050
1629370424981,2052
1629370424985,2054
1629370424989,2054
1629370424993,2053
1629370424997,2052
1629370425001,2051
1629370425005,2050
1629370425009,2050
1629370425013,2051
1629370425017,2051
1629370425021,2051
1629370425025,2050
1629370425029,2049
1629370425033,2049
1629370425037,2049
1629370425041,2049
1629370425045,2049
1629370425049,2049
1629370425053,2049
1629370425057,2050
1629370425061,2050
1629370425065,2050
1629370425069,2051
1629370425073,2051
1629370425077,2051
1629370425081,2051
1629370425085,2051
1629370425089,2051
1629370425093,2051
1629370425097,2053
1629370425101,2056
1629370425105,2059
1629370425109,2063
1629370425113,2067
1629370425117,2074
1629370425121,2087
1629370425125,2107
1629370425129,2136
1629370425133,2167
1629370425137,2188
1629370425141,2187
1629370425145,2157
1629370425149,2102
1629370425153,2038
1629370425157,1982
1629370425161,1951
1629370425165,1947
1629370425169,1963
1629370425173,1989
1629370425177,2013
1629370425181,2030
1629370425185,2042
1629370425189,2050
1629370425193,2057
1629370425197,2061
1629370425201,2064
1629370425205,2065
1629370425209,2065
1629370425213,2066
1629370425217,2067
1629370425221,2068
1629370425225,2069
1629370425229,2069
1629370425233,2069
1629370425237,2069
1629370425241,2070
1629370425245,2071
1629370425249,2071
1629370425253,2072
1629370425257,2072
1629370425261,2073
1629370425265,2074
1629370425269,2075
1629370425273,2075
1629370425277,2075
1629370425281,2075
1629370425285,2075
1629370425289,2076
1629370425293,2078
1629370425297,2080
1629370425301,2081
1629370425305,2082
1629370425309,2083
1629370425313,2085
1629370425317,2086
1629370425321,2087
1629370425325,2088
1629370425329,2089
1629370425333,2090
1629370425337,2093
1629370425341,2095
1629370425345,2098
1629370425349,2100
1629370425353,2101
1629370425357,2102
1629370425361,2104
1629370425365,2106
1629370425369,2108
1629370425373,2110
1629370425377,2112
1629370425381,2113
1629370425385,2114
1629370425389,2115
1629370425393,2115
1629370425397,2115
1629370425401,2115
1629370425405,2114
1629370425409,2113
1629370425413,2112
1629370425417,2109
1629370425421,2105
1629370425425,2100
1629370425429,2094
1629370425433,2088
1629370425437,2082
1629370425441,2076
1629370425445,2071
1629370425449,2066
1629370425453,2063
1629370425457,2060
1629370425461,2058
1629370425465,2055
1629370425469,2052
1629370425473,2049
1629370425477,2047
1629370425481,2046
1629370425485,2045
1629370425489,2045
1629370425493,2044
1629370425497,2044
1629370425501,2043
1629370425505,2043
1629370425509,2043
1629370425513,2042
1629370425517,2042
1629370425521,2042
1629370425525,2042
1629370425529,2042
1629370425533,2043
1629370425537,2043
1629370425541,2044
1629370425545,2044
1629370425549,2043
1629370425553,2043
1629370425557,2042
1629370425561,2042
1629370425565,2043
1629370425569,2043
1629370425573,2043
1629370425577,2044
1629370425581,2044
1629370425585,2044
1629370425589,2044
1629370425593,2045
1629370425597,2045
1629370425601,2045
1629370425605,2045
1629370425609,2045
1629370425613,2046
1629370425617,2046
1629370425621,2047
1629370425625,2047
1629370425629,2047
1629370425633,2046
1629370425637,2046
1629370425641,2045
1629370425645,2046
1629370425649,2046
1629370425653,2047
1629370425657,2047
1629370425661,2047
1629370425665,2047
1629370425669,2047
1629370425673,2047
1629370425677,2047
1629370425681,2046
1629370425685,2046
1629370425689,2046
1629370425693,2046
1629370425697,2047
1629370425701,2047
1629370425705,2047
1629370425709,2047
1629370425713,2046
1629370425717,2046
1629370425721,2045
1629370425725,2045
1629370425729,2045
1629370425733,2046
1629370425737,2046
1629370425741,2046
1629370425745,2046
1629370425749,2046
1629370425753,2046
1629370425757,2046
1629370425761,2046
1629370425765,2046
1629370425769,2046
1629370425773,2046
1629370425777,2046
1629370425781,2047
1629370425785,2048
1629370425789,2047
1629370425793,2047
1629370425797,2047
1629370425801,2046
1629370425805,2046
1629370425809,2047
1629370425813,2047
1629370425817,2048
1629370425821,2048
1629370425825,2048
1629370425829,2048
1629370425833,2048
1629370425837,2048
1629370425841,2047
1629370425845,2047
1629370425849,2047
1629370425853,2048
1629370425857,2048
1629370425861,2048
1629370425865,2048
1629370425869,2048
1629370425873,2048
1629370425877,2048
1629370425881,2048
1629370425885,2048
1629370425889,2047
1629370425893,2048
1629370425897,2048
1629370425901,2048
1629370425905,2049
1629370425909,2048
1629370425913,2048
1629370425917,2048
1629370425921,2048
1629370425925,2048
1629370425929,2048
1629370425933,2048
1629370425937,2049
1629370425941,2050
1629370425945,2051
1629370425949,2051
1629370425953,2051
1629370425957,2050
1629370425961,2050
1629370425965,2050
1629370425969,2049
1629370425973,2049
1629370425977,2048
1629370425981,2048
1629370425985,2049
1629370425989,2050
1629370425993,2051
1629370425997,2051
1629370426001,2051
1629370426005,2051
1629370426009,2050
1629370426013,2049
1629370426017,2049
1629370426021,2049
1629370426025,2049
1629370426029,2048
1629370426033,2048
1629370426037,2048
1629370426041,2047
1629370426045,2047
1629370426049,2048
1629370426053,2048
1629370426057,2048
1629370426061,2048
1629370426065,2048
1629370426069,2048
1629370426073,2048
1629370426077,2048
1629370426081,2048
1629370426085,2048
1629370426089,2048
1629370426093,2048
1629370426097,2049
1629370426101,2049
1629370426105,2049
1629370426109,2050
1629370426113,2052
1629370426117,2056
1629370426121,2061
1629370426125,2068
1629370426129,2078
1629370426133,2095
1629370426137,2120
1629370426141,2151
1629370426145,2179
1629370426149,2190
1629370426153,2175
1629370426157,2130
1629370426161,2068
1629370426165,2006
1629370426169,1961
1629370426173,1944
1629370426177,1950
1629370426181,1971
1629370426185,1997
1629370426189,2017
1629370426193,2032
1629370426197,2042
1629370426201,2050
1629370426205,2056
1629370426209,2060
1629370426213,2062
1629370426217,2063
1629370426221,2064
1629370426225,2064
1629370426229,2065
1629370426233,2065
1629370426237,2065
1629370426241,2066
1629370426245,2067
1629370426249,2067
1629370426253,2068
1629370426257,2069
1629370426261,2069
1629370426265,2069
1629370426269,2070
1629370426273,2070
1629370426277,2070
1629370426281,2071
1629370426285,2072
1629370426289,2073
1629370426293,2074
1629370426297,2075
1629370426301,2076
1629370426305,2077
1629370426309,2077
1629370426313,2078
1629370426317,2079
1629370426321,2079
1629370426325,2081
1629370426329,2082
1629370426333,2084
1629370426337,2086
1629370426341,2088
1629370426345,2090
1629370426349,2091
1629370426353,2093
1629370426357,2095
1629370426361,2097
1629370426365,2099
1629370426369,2101
1629370426373,2102
1629370426377,2105
1629370426381,2106
1629370426385,2108
1629370426389,2109
1629370426393,2110
1629370426397,2110
1629370426401,2110
1629370426405,2111
1629370426409,2111
1629370426413,2111
1629370426417,2111
1629370426421,2109
1629370426425,2107
1629370426429,2103
1629370426433,2098
1629370426437,2093
1629370426441,2087
1629370426445,2082
1629370426449,2076
1629370426453,2071
1629370426457,2067
1629370426461,2063
1629370426465,2059
1629370426469,2055
1629370426473,2052
1629370426477,2049
1629370426481,2048
1629370426485,2046
1629370426489,2044
1629370426493,2044
1629370426497,2043
1629370426501,2042
1629370426505,2041
1629370426509,2041
1629370426513,2040
1629370426517,2040
1629370426521,2039
1629370426525,2039
1629370426529,2039
1629370426533,2039
1629370426537,2039
1629370426541,2039
1629370426545,2039
1629370426549,2039
1629370426553,2039
1629370426557,2039
1629370426561,2039
1629370426565,2039
1629370426569,2040
1629370426573,2040
1629370426577,2041
1629370426581,2041
1629370426585,2042
1629370426589,2042
1629370426593,2042
1629370426597,2042
1629370426601,2041
1629370426605,2041
1629370426609,2041
1629370426613,2042
1629370426617,2042
1629370426621,2043
1629370426625,2044
1629370426629,2044
1629370426633,2043
1629370426637,2042
1629370426641,2042
1629370426645,2042
1629370426649,2043
1629370426653,2043
1629370426657,2044
1629370426661,2044
1629370426665,2044
1629370426669,2044
1629370426673,2043
1629370426677,2043
1629370426681,2043
1629370426685,2043
1629370426689,2043
1629370426693,2044
1629370426697,2044
1629370426701,2044
1629370426705,2044
1629370426709,2043
1629370426713,2043
1629370426717,2043
1629370426721,2043
1629370426725,2043
1629370426729,2043
1629370426733,2043
1629370426737,2044
1629370426741,2043
1629370426745,2043
1629370426749,2043
1629370426753,2043
1629370426757,2043
1629370426761,2043
1629370426765,2043
1629370426769,2043
1629370426773,2044
1629370426777,2044
1629370426781,2044
1629370426785,2044
1629370426789,2044
1629370426793,2044
1629370426797,2044
1629370426801,2044
1629370426805,2044
1629370426809,2044
1629370426813,2044
1629370426817,2045
1629370426821,2045
1629370426825,2045
1629370426829,2045
1629370426833,2046
1629370426837,2046
1629370426841,2045
1629370426845,2045
1629370426849,2045
1629370426853,2045
1629370426857,2046
1629370426861,2046
1629370426865,2046
1629370426869,2046
1629370426873,2046
1629370426877,2045
1629370426881,2045
1629370426885,2046
1629370426889,2046
1629370426893,2047
1629370426897,2047
1629370426901,2048
1629370426905,2048
1629370426909,2047
1629370426913,2046
1629370426917,2046
1629370426921,2046
1629370426925,2046
1629370426929,2047
1629370426933,2047
1629370426937,2048
1629370426941,2048
1629370426945,2048
1629370426949,2049
1629370426953,2049
1629370426957,2049
1629370426961,2049
1629370426965,2049
1629370426969,2049
1629370426973,2049
1629370426977,2049
1629370426981,2048
1629370426985,2048
1629370426989,2048
1629370426993,2048
1629370426997,2048
1629370427001,2049
1629370427005,2049
1629370427009,2049
1629370427013,2049
1629370427017,2048
1629370427021,2048
1629370427025,2048
1629370427029,2048
1629370427033,2048
1629370427037,2048
1629370427041,2046
1629370427045,2046
1629370427049,2045
1629370427053,2046
1629370427057,2047
1629370427061,2048
1629370427065,2048
1629370427069,2047
1629370427073,2047
1629370427077,2046
1629370427081,2046
1629370427085,2046
1629370427089,2047
1629370427093,2048
1629370427097,2048
1629370427101,2048
1629370427105,2048
1629370427109,2048
1629370427113,2048
1629370427117,2049
1629370427121,2052
1629370427125,2056
1629370427129,2061
1629370427133,2068
1629370427137,2079
1629370427141,2097
1629370427145,2123
1629370427149,2154
1629370427153,2181
1629370427157,2190
1629370427161,2171
1629370427165,2125
1629370427169,2061
1629370427173,2001
1629370427177,1960
1629370427181,1945
1629370427185,1955
1629370427189,1978
1629370427193,2003
1629370427197,2023
1629370427201,2036
1629370427205,2046
1629370427209,2052
1629370427213,2057
1629370427217,2060
1629370427221,2062
1629370427225,2063
1629370427229,2063
1629370427233,2063
1629370427237,2063
1629370427241,2064
1629370427245,2065
1629370427249,2065
1629370427253,2066
1629370427257,2067
1629370427261,2068
1629370427265,2068
1629370427269,2068
1629370427273,2069
1629370427277,2068
1629370427281,2068
1629370427285,2069
1629370427289,2070
1629370427293,2071
1629370427297,2072
1629370427301,2073
1629370427305,2074
1629370427309,2074
1629370427313,2075
1629370427317,2075
1629370427321,2076
1629370427325,2077
1629370427329,2079
1629370427333,2080
1629370427337,2082
1629370427341,2084
1629370427345,2085
1629370427349,2087
1629370427353,2088
1629370427357,2089
1629370427361,2091
1629370427365,2093
1629370427369,2095
1629370427373,2098
1629370427377,2100
1629370427381,2101
1629370427385,2103
1629370427389,2104
1629370427393,2106
1629370427397,2107
1629370427401,2108
1629370427405,2109
1629370427409,2110
1629370427413,2110
1629370427417,2111
1629370427421,2111
1629370427425,2110
1629370427429,2108
1629370427433,2105
1629370427437,2101
1629370427441,2096
1629370427445,2091
1629370427449,2086
1629370427453,2080
1629370427457,2075
1629370427461,2070
1629370427465,2066
1629370427469,2061
1629370427473,2057
1629370427477,2053
1629370427481,2050
1629370427485,2048
1629370427489,2045
1629370427493,2044
1629370427497,2043
1629370427501,2042
1629370427505,2041
1629370427509,2040
1629370427513,2039
1629370427517,2039
1629370427521,2038
1629370427525,2038
1629370427529,2038
1629370427533,2039
1629370427537,2039
1629370427541,2039
1629370427545,2039
1629370427549,2038
1629370427553,2038
1629370427557,2038
1629370427561,2038
1629370427565,2039
1629370427569,2039
1629370427573,2040
1629370427577,2040
1629370427581,2040
1629370427585,2040
1629370427589,2040
1629370427593,2040
1629370427597,2040
1629370427601,2040
1629370427605,2040
1629370427609,2040
1629370427613,2040
1629370427617,2040
1629370427621,2041
1629370427625,2041
1629370427629,2042
1629370427633,2041
1629370427637,2041
1629370427641,2040
1629370427645,2040
1629370427649,2040
1629370427653,2041
1629370427657,2042
1629370427661,2043
1629370427665,2043
1629370427669,2043
1629370427673,2043
1629370427677,2042
1629370427681,2042
1629370427685,2042
1629370427689,2042
1629370427693,2042
1629370427697,2042
1629370427701,2042
1629370427705,2043
1629370427709,2042
1629370427713,2042
1629370427717,2041
1629370427721,2041
1629370427725,2041
1629370427729,2041
1629370427733,2042
1629370427737,2042
1629370427741,2043
1629370427745,2043
1629370427749,2043
1629370427753,2043
1629370427757,2042
1629370427761,2041
1629370427765,2041
1629370427769,2041
1629370427773,2042
1629370427777,2043
1629370427781,2044
1629370427785,2044
1629370427789,2044
1629370427793,2044
1629370427797,2043
1629370427801,2043
1629370427805,2043
1629370427809,2043
1629370427813,2043
1629370427817,2043
1629370427821,2044
1629370427825,2044
1629370427829,2044
1629370427833,2044
1629370427837,2044
1629370427841,2044
1629370427845,2043
1629370427849,2043
1629370427853,2043
1629370427857,2044
1629370427861,2044
1629370427865,2045
1629370427869,2045
1629370427873,2045
1629370427877,2045
1629370427881,2044
1629370427885,2045
1629370427889,2045
1629370427893,2045
1629370427897,2046
1629370427901,2046
1629370427905,2046
1629370427909,2046
1629370427913,2046
1629370427917,2046
1629370427921,2046
1629370427925,2046
1629370427929,2045
1629370427933,2046
1629370427937,2046
1629370427941,2046
1629370427945,2046
1629370427949,2046
1629370427953,2046
1629370427957,2046
1629370427961,2045
1629370427965,2046
1629370427969,2046
1629370427973,2046
1629370427977,2047
1629370427981,2047
1629370427985,2047
1629370427989,2047
1629370427993,2047
1629370427997,2048
1629370428001,2048
1629370428005,2048
1629370428009,2049
1629370428013,2049
1629370428017,2048
1629370428021,2048
1629370428025,2048
1629370428029,2048
1629370428033,2048
1629370428037,2046
1629370428041,2046
1629370428045,2047
1629370428049,2048
1629370428053,2051
1629370428057,2053
1629370428061,2053
1629370428065,2052
1629370428069,2050
1629370428073,2048
1629370428077,2047
1629370428081,2046
1629370428085,2047
1629370428089,2048
1629370428093,2049
1629370428097,2049
1629370428101,2048
1629370428105,2048
1629370428109,2047
1629370428113,2046
1629370428117,2045
1629370428121,2045
1629370428125,2045
1629370428129,2046
1629370428133,2048
1629370428137,2049
1629370428141,2049
1629370428145,2049
1629370428149,2049
1629370428153,2050
1629370428157,2050
1629370428161,2051
1629370428165,2052
1629370428169,2053
1629370428173,2057
1629370428177,2061
1629370428181,2066
1629370428185,2073
1629370428189,2085
1629370428193,2104
1629370428197,2130
1629370428201,2160
1629370428205,2182
1629370428209,2185
1629370428213,2159
1629370428217,2107
1629370428221,2044
1629370428225,1986
1629370428229,1949
1629370428233,1940
1629370428237,1951
1629370428241,1973
1629370428245,1997
1629370428249,2014
1629370428253,2026
1629370428257,2037
1629370428261,2045
1629370428265,2048
1629370428269,2049
1629370428273,2049
1629370428277,2049
1629370428281,2053
1629370428285,2059
1629370428289,2065
1629370428293,2067
1629370428297,2063
1629370428301,2055
1629370428305,2045
1629370428309,2035
1629370428313,2030
1629370428317,2027
1629370428321,2027
1629370428325,2028
1629370428329,2030
1629370428333,2032
1629370428337,2035
1629370428341,2038
1629370428345,2041
1629370428349,2042
1629370428353,2043
1629370428357,2043
1629370428361,2043
1629370428365,2045
1629370428369,2047
1629370428373,2050
1629370428377,2054
1629370428381,2057
1629370428385,2060
1629370428389,2062
1629370428393,2064
1629370428397,2067
1629370428401,2071
1629370428405,2075
1629370428409,2079
1629370428413,2083
1629370428417,2088
1629370428421,2092
1629370428425,2095
1629370428429,2097
1629370428433,2098
1629370428437,2100
1629370428441,2102
1629370428445,2105
1629370428449,2108
1629370428453,2110
1629370428457,2112
1629370428461,2113
1629370428465,2114
1629370428469,2115
1629370428473,2115
1629370428477,2114
1629370428481,2111
1629370428485,2108
1629370428489,2104
1629370428493,2100
1629370428497,2096
1629370428501,2091
1629370428505,2085
1629370428509,2079
1629370428513,2073
1629370428517,2068
1629370428521,2064
1629370428525,2061
1629370428529,2058
1629370428533,2056
1629370428537,2053
1629370428541,2051
1629370428545,2049
1629370428549,2048
1629370428553,2048
1629370428557,2047
1629370428561,2046
1629370428565,2045
1629370428569,2045
1629370428573,2044
1629370428577,2045
1629370428581,2046
1629370428585,2047
1629370428589,2047
1629370428593,2047
1629370428597,2046
1629370428601,2046
1629370428605,2045
1629370428609,2045
1629370428613,2047
1629370428617,2048
1629370428621,2048
1629370428625,2049
1629370428629,2050
1629370428633,2050
1629370428637,2050
1629370428641,2049
1629370428645,2048
1629370428649,2048
1629370428653,2048
1629370428657,2048
1629370428661,2048
1629370428665,2049
1629370428669,2048
1629370428673,2048
1629370428677,2048
1629370428681,2047
1629370428685,2047
1629370428689,2046
1629370428693,2045
1629370428697,2045
1629370428701,2045
1629370428705,2046
1629370428709,2047
1629370428713,2048
1629370428717,2047
1629370428721,2045
1629370428725,2042
1629370428729,2040
1629370428733,2040
1629370428737,2040
1629370428741,2041
1629370428745,2041
1629370428749,2041
1629370428753,2041
1629370428757,2040
1629370428761,2039
1629370428765,2038
1629370428769,2037
1629370428773,2036
1629370428777,2036
1629370428781,2038
1629370428785,2039
1629370428789,2039
1629370428793,2039
1629370428797,2038
1629370428801,2038
1629370428805,2038
1629370428809,2039
1629370428813,2040
1629370428817,2041
1629370428821,2041
1629370428825,2041
1629370428829,2041
1629370428833,2040
1629370428837,2039
1629370428841,2038
1629370428845,2038
1629370428849,2038
1629370428853,2039
1629370428857,2039
1629370428861,2039
1629370428865,2038
1629370428869,2038
1629370428873,2038
1629370428877,2039
1629370428881,2040
1629370428885,2040
1629370428889,2041
1629370428893,2041
1629370428897,2042
1629370428901,2042
1629370428905,2041
1629370428909,2041
1629370428913,2040
1629370428917,2040
1629370428921,2041
1629370428925,2043
1629370428929,2044
1629370428933,2045
1629370428937,2046
1629370428941,2047
1629370428945,2047
1629370428949,2048
1629370428953,2048
1629370428957,2048
1629370428961,2048
1629370428965,2048
1629370428969,2048
1629370428973,2048
1629370428977,2048
1629370428981,2048
1629370428985,2048
1629370428989,2048
1629370428993,2049
1629370428997,2050
1629370429001,2051
1629370429005,2052
1629370429009,2053
1629370429013,2054
1629370429017,2055
1629370429021,2056
1629370429025,2056
1629370429029,2056
1629370429033,2056
1629370429037,2054
1629370429041,2053
1629370429045,2052
1629370429049,2051
1629370429053,2053
1629370429057,2055
1629370429061,2058
1629370429065,2060
1629370429069,2060
1629370429073,2059
1629370429077,2057
1629370429081,2056
1629370429085,2055
1629370429089,2056
1629370429093,2057
1629370429097,2056
1629370429101,2056
1629370429105,2055
1629370429109,2054
1629370429113,2054
1629370429117,2053
1629370429121,2053
1629370429125,2053
1629370429129,2053
1629370429133,2054
1629370429137,2055
1629370429141,2055
1629370429145,2055
1629370429149,2055
1629370429153,2054
1629370429157,2054
1629370429161,2054
1629370429165,2054
1629370429169,2054
1629370429173,2056
1629370429177,2059
1629370429181,2064
1629370429185,2068
1629370429189,2073
1629370429193,2082
1629370429197,2096
1629370429201,2119
1629370429205,2150
1629370429209,2181
1629370429213,2198
1629370429217,2190
1629370429221,2153
1629370429225,2092
1629370429229,2026
1629370429233,1974
1629370429237,1949
1629370429241,1950
1629370429245,1970
1629370429249,1995
1629370429253,2018
1629370429257,2034
1629370429261,2047
1629370429265,2056
1629370429269,2063
1629370429273,2067
1629370429277,2068
1629370429281,2068
1629370429285,2068
1629370429289,2069
1629370429293,2070
1629370429297,2071
1629370429301,2073
1629370429305,2073
1629370429309,2072
1629370429313,2072
1629370429317,2071
1629370429321,2071
1629370429325,2071
1629370429329,2072
1629370429333,2073
1629370429337,2075
1629370429341,2076
1629370429345,2077
1629370429349,2077
1629370429353,2078
1629370429357,2078
1629370429361,2079
1629370429365,2080
1629370429369,2080
1629370429373,2081
1629370429377,2083
1629370429381,2083
1629370429385,2084
1629370429389,2085
1629370429393,2086
1629370429397,2087
1629370429401,2088
1629370429405,2090
1629370429409,2092
1629370429413,2094
1629370429417,2097
1629370429421,2099
1629370429425,2101
1629370429429,2103
1629370429433,2105
1629370429437,2106
1629370429441,2107
1629370429445,2108
1629370429449,2109
1629370429453,2110
1629370429457,2112
1629370429461,2113
1629370429465,2115
1629370429469,2116
1629370429473,2115
1629370429477,2114
1629370429481,2112
1629370429485,2110
1629370429489,2107
1629370429493,2105
1629370429497,2101
1629370429501,2096
1629370429505,2091
1629370429509,2084
1629370429513,2078
1629370429517,2072
1629370429521,2066
1629370429525,2061
1629370429529,2056
1629370429533,2053
1629370429537,2050
1629370429541,2048
1629370429545,2047
1629370429549,2046
1629370429553,2046
1629370429557,2044
1629370429561,2042
1629370429565,2040
1629370429569,2038
1629370429573,2037
1629370429577,2038
1629370429581,2039
1629370429585,2040
1629370429589,2040
1629370429593,2039
1629370429597,2037
1629370429601,2037
1629370429605,2037
1629370429609,2038
1629370429613,2039
1629370429617,2039
1629370429621,2040
1629370429625,2040
1629370429629,2040
1629370429633,2039
1629370429637,2039
1629370429641,2038
1629370429645,2038
1629370429649,2038
1629370429653,2039
1629370429657,2040
1629370429661,2040
1629370429665,2041
1629370429669,2040
1629370429673,2040
1629370429677,2040
1629370429681,2040
1629370429685,2040
1629370429689,2040
1629370429693,2040
1629370429697,2041
1629370429701,2042
1629370429705,2043
1629370429709,2043
1629370429713,2043
1629370429717,2043
1629370429721,2043
1629370429725,2042
1629370429729,2041
1629370429733,2041
1629370429737,2041
1629370429741,2041
1629370429745,2042
1629370429749,2042
1629370429753,2042
1629370429757,2042
1629370429761,2042
1629370429765,2043
1629370429769,2043
1629370429773,2042
1629370429777,2041
1629370429781,2041
1629370429785,2041
1629370429789,2042
1629370429793,2043
1629370429797,2043
1629370429801,2043
1629370429805,2042
1629370429809,2041
1629370429813,2041
1629370429817,2041
1629370429821,2041
1629370429825,2041
1629370429829,2041
1629370429833,2041
1629370429837,2040
1629370429841,2040
1629370429845,2041
1629370429849,2041
1629370429853,2042
1629370429857,2043
1629370429861,2043
1629370429865,2043
1629370429869,2042
1629370429873,2041
1629370429877,2040
1629370429881,2040
1629370429885,2041
1629370429889,2043
1629370429893,2043
1629370429897,2044
1629370429901,2044
1629370429905,2044
1629370429909,2044
1629370429913,2044
1629370429917,2044
1629370429921,2044
1629370429925,2043
1629370429929,2042
1629370429933,2042
1629370429937,2042
1629370429941,2042
1629370429945,2043
1629370429949,2043
1629370429953,2044
1629370429957,2044
1629370429961,2044
1629370429965,2044
1629370429969,2044
1629370429973,2044
1629370429977,2045
1629370429981,2045
1629370429985,2045
1629370429989,2045
1629370429993,2044
1629370429997,2044
1629370430001,2043
1629370430005,2044
1629370430009,2044
1629370430013,2045
1629370430017,2046
1629370430021,2046
1629370430025,2046
1629370430029,2045
1629370430033,2044
1629370430037,2043
1629370430041,2043
1629370430045,2045
1629370430049,2047
1629370430053,2048
1629370430057,2049
1629370430061,2049
1629370430065,2048
1629370430069,2048
1629370430073,2046
1629370430077,2045
1629370430081,2045
1629370430085,2045
1629370430089,2045
1629370430093,2047
1629370430097,2048
1629370430101,2048
1629370430105,2048
1629370430109,2047
1629370430113,2046
1629370430117,2045
1629370430121,2045
1629370430125,2047
1629370430129,2048
1629370430133,2048
1629370430137,2048
1629370430141,2046
1629370430145,2044
1629370430149,2044
1629370430153,2043
1629370430157,2043
1629370430161,2044
1629370430165,2044
1629370430169,2044
1629370430173,2043
1629370430177,2043
1629370430181,2043
1629370430185,2044
1629370430189,2045
1629370430193,2046
1629370430197,2046
1629370430201,2046
1629370430205,2045
1629370430209,2045
1629370430213,2046
1629370430217,2048
1629370430221,2051
1629370430225,2055
1629370430229,2059
1629370430233,2066
1629370430237,2078
1629370430241,2097
1629370430245,2124
1629370430249,2156
1629370430253,2181
1629370430257,2185
1629370430261,2160
1629370430265,2108
1629370430269,2042
1629370430273,1982
1629370430277,1945
1629370430281,1937
1629370430285,1953
1629370430289,1978
1629370430293,2005
1629370430297,2024
1629370430301,2036
1629370430305,2045
1629370430309,2051
1629370430313,2055
1629370430317,2058
1629370430321,2059
1629370430325,2059
1629370430329,2060
1629370430333,2061
1629370430337,2062
1629370430341,2063
1629370430345,2063
1629370430349,2062
1629370430353,2062
1629370430357,2062
1629370430361,2062
1629370430365,2063
1629370430369,2065
1629370430373,2067
1629370430377,2068
1629370430381,2068
1629370430385,2069
1629370430389,2069
1629370430393,2069
1629370430397,2069
1629370430401,2069
1629370430405,2070
1629370430409,2071
1629370430413,2073
1629370430417,2075
1629370430421,2076
1629370430425,2076
1629370430429,2076
1629370430433,2077
1629370430437,2078
1629370430441,2080
1629370430445,2082
1629370430449,2084
1629370430453,2087
1629370430457,2089
1629370430461,2091
1629370430465,2092
1629370430469,2094
1629370430473,2095
1629370430477,2097
1629370430481,2099
1629370430485,2101
1629370430489,2103
1629370430493,2105
1629370430497,2107
1629370430501,2107
1629370430505,2107
1629370430509,2107
1629370430513,2106
1629370430517,2106
1629370430521,2106
1629370430525,2105
1629370430529,2104
1629370430533,2102
1629370430537,2098
1629370430541,2093
1629370430545,2086
1629370430549,2079
1629370430553,2072
1629370430557,2067
1629370430561,2063
1629370430565,2059
1629370430569,2055
1629370430573,2051
1629370430577,2048
1629370430581,2046
1629370430585,2044
1629370430589,2043
1629370430593,2041
1629370430597,2039
1629370430601,2037
1629370430605,2036
1629370430609,2035
1629370430613,2035
1629370430617,2035
1629370430621,2035
1629370430625,2035
1629370430629,2035
1629370430633,2035
1629370430637,2034
1629370430641,2035
1629370430645,2035
1629370430649,2034
1629370430653,2034
1629370430657,2034
1629370430661,2034
1629370430665,2035
1629370430669,2035
1629370430673,2036
1629370430677,2036
1629370430681,2036
1629370430685,2036
1629370430689,2036
1629370430693,2036
1629370430697,2037
1629370430701,2037
1629370430705,2037
1629370430709,2036
1629370430713,2036
1629370430717,2036
1629370430721,2036
1629370430725,2037
1629370430729,2037
1629370430733,2037
1629370430737,2037
1629370430741,2036
1629370430745,2037
1629370430749,2037
1629370430753,2038
1629370430757,2038
1629370430761,2038
1629370430765,2037
1629370430769,2036
1629370430773,2037
1629370430777,2038
1629370430781,2039
1629370430785,2040
1629370430789,2040
1629370430793,2039
1629370430797,2038
1629370430801,2037
1629370430805,2036
1629370430809,2036
1629370430813,2036
1629370430817,2037
1629370430821,2038
1629370430825,2039
1629370430829,2038
1629370430833,2038
1629370430837,2037
1629370430841,2036
1629370430845,2036
1629370430849,2037
1629370430853,2038
1629370430857,2038
1629370430861,2038
1629370430865,2038
1629370430869,2038
1629370430873,2038
1629370430877,2037
1629370430881,2037
1629370430885,2037
1629370430889,2037
1629370430893,2037
1629370430897,2037
1629370430901,2037
1629370430905,2037
1629370430909,2037
1629370430913,2038
1629370430917,2038
1629370430921,2038
1629370430925,2038
1629370430929,2038
1629370430933,2037
1629370430937,2038
1629370430941,2038
1629370430945,2038
1629370430949,2038
1629370430953,2039
1629370430957,2039
1629370430961,2039
1629370430965,2039
1629370430969,2038
1629370430973,2039
1629370430977,2039
1629370430981,2040
1629370430985,2041
1629370430989,2041
1629370430993,2040
1629370430997,2039
1629370431001,2038
1629370431005,2038
1629370431009,2039
1629370431013,2040
1629370431017,2041
1629370431021,2041
1629370431025,2041
1629370431029,2041
1629370431033,2041
1629370431037,2041
1629370431041,2041
1629370431045,2041
1629370431049,2040
1629370431053,2040
1629370431057,2040
1629370431061,2040
1629370431065,2042
1629370431069,2043
1629370431073,2044
1629370431077,2043
1629370431081,2042
1629370431085,2041
1629370431089,2040
1629370431093,2041
1629370431097,2042
1629370431101,2043
1629370431105,2043
1629370431109,2043
1629370431113,2043
1629370431117,2042
1629370431121,2042
1629370431125,2042
1629370431129,2042
1629370431133,2043
1629370431137,2045
1629370431141,2046
1629370431145,2048
1629370431149,2048
1629370431153,2047
1629370431157,2044
1629370431161,2042
1629370431165,2041
1629370431169,2041
1629370431173,2044
1629370431177,2047
1629370431181,2048
1629370431185,2048
1629370431189,2047
1629370431193,2045
1629370431197,2042
1629370431201,2041
1629370431205,2041
1629370431209,2042
1629370431213,2044
1629370431217,2045
1629370431221,2045
1629370431225,2044
1629370431229,2042
1629370431233,2041
1629370431237,2040
1629370431241,2040
1629370431245,2041
1629370431249,2042
1629370431253,2043
1629370431257,2043
1629370431261,2043
1629370431265,2043
1629370431269,2043
1629370431273,2044
1629370431277,2043
1629370431281,2043
1629370431285,2043
1629370431289,2043
1629370431293,2045
1629370431297,2047
1629370431301,2050
1629370431305,2054
1629370431309,2059
1629370431313,2069
1629370431317,2086
1629370431321,2111
1629370431325,2142
1629370431329,2171
1629370431333,2185
1629370431337,2173
1629370431341,2132
1629370431345,2070
1629370431349,2006
1629370431353,1958
1629370431357,1937
1629370431361,1942
1629370431365,1964
1629370431369,1991
1629370431373,2014
1629370431377,2030
1629370431381,2041
1629370431385,2048
1629370431389,2052
1629370431393,2054
1629370431397,2055
1629370431401,2055
1629370431405,2056
1629370431409,2057
1629370431413,2059
1629370431417,2060
1629370431421,2061
1629370431425,2061
1629370431429,2060
1629370431433,2059
1629370431437,2059
1629370431441,2059
1629370431445,2060
1629370431449,2061
1629370431453,2062
1629370431457,2062
1629370431461,2063
1629370431465,2064
1629370431469,2065
1629370431473,2066
1629370431477,2066
1629370431481,2067
1629370431485,2067
1629370431489,2067
1629370431493,2068
1629370431497,2069
1629370431501,2071
1629370431505,2073
1629370431509,2074
1629370431513,2075
1629370431517,2075
1629370431521,2076
1629370431525,2078
1629370431529,2080
1629370431533,2083
1629370431537,2086
1629370431541,2088
1629370431545,2090
1629370431549,2092
1629370431553,2093
1629370431557,2093
1629370431561,2094
1629370431565,2097
1629370431569,2099
1629370431573,2102
1629370431577,2105
1629370431581,2106
1629370431585,2107
1629370431589,2106
1629370431593,2105
1629370431597,2104
1629370431601,2103
1629370431605,2102
1629370431609,2100
1629370431613,2098
1629370431617,2094
1629370431621,2088
1629370431625,2082
1629370431629,2076
1629370431633,2071
1629370431637,2067
1629370431641,2063
1629370431645,2059
1629370431649,2055
1629370431653,2052
1629370431657,2049
1629370431661,2047
1629370431665,2045
1629370431669,2043
1629370431673,2041
1629370431677,2040
1629370431681,2039
1629370431685,2039
1629370431689,2039
1629370431693,2039
1629370431697,2037
1629370431701,2036
1629370431705,2036
1629370431709,2037
1629370431713,2038
1629370431717,2039
1629370431721,2039
1629370431725,2039
1629370431729,2038
1629370431733,2038
1629370431737,2039
1629370431741,2040
1629370431745,2040
1629370431749,2040
1629370431753,2040
1629370431757,2039
1629370431761,2039
1629370431765,2040
1629370431769,2040
1629370431773,2040
1629370431777,2040
1629370431781,2041
1629370431785,2042
1629370431789,2042
1629370431793,2043
1629370431797,2042
1629370431801,2041
1629370431805,2040
1629370431809,2040
1629370431813,2041
1629370431817,2043
1629370431821,2044
1629370431825,2044
1629370431829,2044
1629370431833,2043
1629370431837,2042
1629370431841,2041
1629370431845,2041
1629370431849,2042
1629370431853,2043
1629370431857,2044
1629370431861,2045
1629370431865,2044
1629370431869,2043
1629370431873,2043
1629370431877,2042
1629370431881,2042
1629370431885,2043
1629370431889,2043
1629370431893,2044
1629370431897,2044
1629370431901,2044
1629370431905,2043
1629370431909,2043
1629370431913,2043
1629370431917,2043
1629370431921,2044
1629370431925,2045
1629370431929,2045
1629370431933,2044
1629370431937,2044
1629370431941,2043
1629370431945,2043
1629370431949,2043
1629370431953,2043
1629370431957,2043
1629370431961,2044
1629370431965,2044
1629370431969,2045
1629370431973,2046
1629370431977,2046
1629370431981,2046
1629370431985,2045
1629370431989,2043
1629370431993,2043
1629370431997,2042
1629370432001,2043
1629370432005,2045
1629370432009,2046
1629370432013,2047
1629370432017,2047
1629370432021,2046
1629370432025,2045
1629370432029,2045
1629370432033,2045
1629370432037,2045
1629370432041,2045
1629370432045,2045
1629370432049,2045
1629370432053,2046
1629370432057,2047
1629370432061,2047
1629370432065,2048
1629370432069,2048
1629370432073,2048
1629370432077,2048
1629370432081,2047
1629370432085,2046
1629370432089,2046
1629370432093,2046
1629370432097,2048
1629370432101,2049
1629370432105,2050
1629370432109,2050
1629370432113,2049
1629370432117,2048
1629370432121,2047
1629370432125,2047
1629370432129,2047
1629370432133,2047
1629370432137,2048
1629370432141,2048
1629370432145,2049
1629370432149,2050
1629370432153,2050
1629370432157,2049
1629370432161,2048
1629370432165,2048
1629370432169,2048
1629370432173,2048
1629370432177,2050
1629370432181,2051
1629370432185,2052
1629370432189,2052
1629370432193,2052
1629370432197,2052
1629370432201,2051
1629370432205,2051
1629370432209,2050
1629370432213,2051
1629370432217,2052
1629370432221,2052
1629370432225,2052
1629370432229,2051
1629370432233,2051
1629370432237,2050
1629370432241,2050
1629370432245,2050
1629370432249,2051
1629370432253,2051
1629370432257,2052
1629370432261,2054
1629370432265,2055
1629370432269,2056
1629370432273,2056
1629370432277,2055
1629370432281,2053
1629370432285,2051
1629370432289,2051
1629370432293,2051
1629370432297,2051
1629370432301,2052
1629370432305,2051
1629370432309,2051
1629370432313,2050
1629370432317,2049
1629370432321,2049
1629370432325,2049
1629370432329,2049
1629370432333,2050
1629370432337,2050
1629370432341,2051
1629370432345,2051
1629370432349,2051
1629370432353,2051
1629370432357,2051
1629370432361,2051
1629370432365,2051
1629370432369,2050
1629370432373,2051
1629370432377,2052
1629370432381,2055
1629370432385,2059
1629370432389,2062
1629370432393,2065
1629370432397,2070
1629370432401,2079
1629370432405,2095
1629370432409,2120
1629370432413,2152
1629370432417,2182
1629370432421,2197
1629370432425,2185
1629370432429,2143
1629370432433,2080
1629370432437,2016
1629370432441,1969
1629370432445,1949
1629370432449,1955
1629370432453,1976
1629370432457,2001
1629370432461,2022
1629370432465,2036
1629370432469,2046
1629370432473,2053
1629370432477,2059
1629370432481,2062
1629370432485,2064
1629370432489,2065
1629370432493,2067
1629370432497,2068
1629370432501,2069
1629370432505,2069
1629370432509,2069
1629370432513,2069
1629370432517,2070
1629370432521,2070
1629370432525,2071
1629370432529,2071
1629370432533,2072
1629370432537,2072
1629370432541,2073
1629370432545,2074
1629370432549,2075
1629370432553,2075
1629370432557,2074
1629370432561,2075
1629370432565,2076
1629370432569,2078
1629370432573,2080
1629370432577,2082
1629370432581,2083
1629370432585,2083
1629370432589,2083
1629370432593,2084
1629370432597,2084
1629370432601,2085
1629370432605,2086
1629370432609,2087
1629370432613,2089
1629370432617,2092
1629370432621,2095
1629370432625,2098
1629370432629,2099
1629370432633,2100
1629370432637,2101
1629370432641,2103
1629370432645,2105
1629370432649,2107
1629370432653,2110
1629370432657,2111
1629370432661,2112
1629370432665,2113
1629370432669,2114
1629370432673,2115
1629370432677,2116
1629370432681,2115
1629370432685,2114
1629370432689,2113
1629370432693,2111
1629370432697,2108
1629370432701,2105
1629370432705,2100
1629370432709,2094
1629370432713,2088
1629370432717,2081
1629370432721,2076
1629370432725,2072
1629370432729,2068
1629370432733,2065
1629370432737,2061
1629370432741,2057
1629370432745,2054
1629370432749,2050
1629370432753,2048
1629370432757,2045
1629370432761,2043
1629370432765,2043
1629370432769,2043
1629370432773,2043
1629370432777,2043
1629370432781,2042
1629370432785,2041
1629370432789,2039
1629370432793,2039
1629370432797,2039
1629370432801,2039
1629370432805,2039
1629370432809,2039
1629370432813,2039
1629370432817,2039
1629370432821,2040
1629370432825,2041
1629370432829,2041
1629370432833,2041
1629370432837,2040
1629370432841,2039
1629370432845,2039
1629370432849,2040
1629370432853,2041
1629370432857,2041
1629370432861,2042
1629370432865,2041
1629370432869,2041
1629370432873,2041
1629370432877,2041
1629370432881,2041
1629370432885,2040
1629370432889,2040
1629370432893,2040
1629370432897,2041
1629370432901,2042
1629370432905,2043
1629370432909,2043
1629370432913,2043
1629370432917,2042
1629370432921,2041
1629370432925,2041
1629370432929,2042
1629370432933,2043
1629370432937,2043
1629370432941,2044
1629370432945,2044
1629370432949,2043
1629370432953,2042
1629370432957,2042
1629370432961,2041
1629370432965,2041
1629370432969,2042
1629370432973,2043
1629370432977,2044
1629370432981,2043
1629370432985,2043
1629370432989,2042
1629370432993,2042
1629370432997,2042
1629370433001,2042
1629370433005,2043
1629370433009,2043
1629370433013,2043
1629370433017,2043
1629370433021,2043
1629370433025,2043
1629370433029,2043
1629370433033,2043
1629370433037,2043
1629370433041,2042
1629370433045,2041
1629370433049,2041
1629370433053,2041
1629370433057,2042
1629370433061,2042
1629370433065,2043
1629370433069,2043
1629370433073,2043
1629370433077,2042
1629370433081,2041
1629370433085,2041
1629370433089,2041
1629370433093,2042
1629370433097,2043
1629370433101,2044
1629370433105,2045
1629370433109,2044
1629370433113,2043
1629370433117,2042
1629370433121,2041
1629370433125,2042
1629370433129,2043
1629370433133,2045
1629370433137,2046
1629370433141,2046
1629370433145,2046
1629370433149,2045
1629370433153,2044
1629370433157,2044
1629370433161,2044
1629370433165,2044
1629370433169,2044
1629370433173,2044
1629370433177,2045
1629370433181,2045
1629370433185,2046
1629370433189,2045
1629370433193,2045
1629370433197,2044
1629370433201,2044
1629370433205,2044
1629370433209,2044
1629370433213,2045
1629370433217,2044
1629370433221,2045
1629370433225,2046
1629370433229,2046
1629370433233,2047
1629370433237,2046
1629370433241,2046
1629370433245,2046
1629370433249,2046
1629370433253,2046
1629370433257,2046
1629370433261,2047
1629370433265,2047
1629370433269,2047
1629370433273,2047
1629370433277,2047
1629370433281,2048
1629370433285,2048
1629370433289,2048
1629370433293,2049
1629370433297,2050
1629370433301,2050
1629370433305,2050
1629370433309,2050
1629370433313,2050
1629370433317,2048
1629370433321,2047
1629370433325,2046
1629370433329,2045
1629370433333,2047
1629370433337,2049
1629370433341,2052
1629370433345,2053
1629370433349,2052
1629370433353,2051
1629370433357,2050
1629370433361,2049
1629370433365,2050
1629370433369,2050
1629370433373,2049
1629370433377,2048
1629370433381,2048
1629370433385,2047
1629370433389,2048
1629370433393,2048
1629370433397,2048
1629370433401,2048
1629370433405,2047
1629370433409,2046
1629370433413,2045
1629370433417,2046
1629370433421,2047
1629370433425,2048
1629370433429,2048
1629370433433,2048
1629370433437,2048
1629370433441,2048
1629370433445,2047
1629370433449,2046
1629370433453,2046
1629370433457,2048
1629370433461,2052
1629370433465,2057
1629370433469,2061
1629370433473,2067
1629370433477,2076
1629370433481,2092
1629370433485,2117
1629370433489,2149
1629370433493,2178
1629370433497,2190
1629370433501,2174
1629370433505,2128
1629370433509,2063
1629370433513,2001
1629370433517,1958
1629370433521,1942
1629370433525,1950
1629370433529,1973
1629370433533,1998
1629370433537,2019
1629370433541,2034
1629370433545,2045
1629370433549,2052
1629370433553,2057
1629370433557,2059
1629370433561,2058
1629370433565,2058
1629370433569,2059
1629370433573,2060
1629370433577,2062
1629370433581,2064
1629370433585,2065
1629370433589,2065
1629370433593,2065
1629370433597,2063
1629370433601,2062
1629370433605,2062
1629370433609,2064
1629370433613,2066
1629370433617,2069
1629370433621,2070
1629370433625,2071
1629370433629,2070
1629370433633,2069
1629370433637,2068
1629370433641,2068
1629370433645,2069
1629370433649,2070
1629370433653,2073
1629370433657,2076
1629370433661,2078
1629370433665,2079
1629370433669,2080
1629370433673,2081
1629370433677,2081
1629370433681,2082
1629370433685,2084
1629370433689,2086
1629370433693,2088
1629370433697,2089
1629370433701,2091
1629370433705,2092
1629370433709,2093
1629370433713,2095
1629370433717,2098
1629370433721,2100
1629370433725,2103
1629370433729,2105
1629370433733,2107
1629370433737,2109
1629370433741,2110
1629370433745,2111
1629370433749,2112
1629370433753,2112
1629370433757,2112
1629370433761,2111
1629370433765,2110
1629370433769,2107
1629370433773,2105
1629370433777,2102
1629370433781,2099
1629370433785,2094
1629370433789,2088
1629370433793,2082
1629370433797,2075
1629370433801,2069
1629370433805,2064
1629370433809,2060
1629370433813,2057
1629370433817,2053
1629370433821,2050
1629370433825,2048
1629370433829,2045
1629370433833,2043
1629370433837,2042
1629370433841,2042
1629370433845,2041
1629370433849,2040
1629370433853,2040
1629370433857,2040
1629370433861,2041
1629370433865,2041
1629370433869,2042
1629370433873,2041
1629370433877,2040
1629370433881,2039
1629370433885,2039
1629370433889,2040
1629370433893,2041
1629370433897,2042
1629370433901,2042
1629370433905,2041
1629370433909,2041
1629370433913,2041
1629370433917,2041
1629370433921,2042
1629370433925,2042
1629370433929,2042
1629370433933,2042
1629370433937,2043
1629370433941,2043
1629370433945,2042
1629370433949,2041
1629370433953,2041
1629370433957,2040
1629370433961,2039
1629370433965,2039
1629370433969,2039
1629370433973,2040
1629370433977,2040
1629370433981,2040
1629370433985,2040
1629370433989,2040
1629370433993,2039
1629370433997,2038
1629370434001,2037
1629370434005,2037
1629370434009,2036
1629370434013,2037
1629370434017,2037
1629370434021,2038
1629370434025,2039
1629370434029,2039
1629370434033,2039
1629370434037,2038
1629370434041,2037
1629370434045,2037
1629370434049,2037
1629370434053,2038
1629370434057,2040
1629370434061,2041
1629370434065,2041
1629370434069,2041
1629370434073,2041
1629370434077,2041
1629370434081,2040
1629370434085,2039
1629370434089,2038
1629370434093,2037
1629370434097,2038
1629370434101,2040
1629370434105,2041
1629370434109,2040
1629370434113,2040
1629370434117,2039
1629370434121,2039
1629370434125,2040
1629370434129,2041
1629370434133,2042
1629370434137,2042
1629370434141,2042
1629370434145,2042
1629370434149,2042
1629370434153,2042
1629370434157,2043
1629370434161,2044
1629370434165,2044
1629370434169,2045
1629370434173,2045
1629370434177,2045
1629370434181,2046
1629370434185,2048
1629370434189,2050
1629370434193,2052
1629370434197,2053
1629370434201,2054
1629370434205,2054
1629370434209,2054
1629370434213,2054
1629370434217,2053
1629370434221,2052
1629370434225,2052
1629370434229,2050
1629370434233,2049
1629370434237,2048
1629370434241,2047
1629370434245,2047
1629370434249,2047
1629370434253,2048
1629370434257,2048
1629370434261,2049
1629370434265,2048
1629370434269,2048
1629370434273,2047
1629370434277,2046
1629370434281,2047
1629370434285,2048
1629370434289,2050
1629370434293,2052
1629370434297,2053
1629370434301,2053
1629370434305,2052
1629370434309,2052
1629370434313,2052
1629370434317,2052
1629370434321,2051
1629370434325,2051
1629370434329,2050
1629370434333,2050
1629370434337,2052
1629370434341,2054
1629370434345,2055
1629370434349,2054
1629370434353,2052
1629370434357,2048
1629370434361,2047
1629370434365,2046
1629370434369,2046
1629370434373,2046
1629370434377,2046
1629370434381,2046
1629370434385,2046
1629370434389,2046
1629370434393,2045
1629370434397,2044
1629370434401,2042
1629370434405,2040
1629370434409,2039
1629370434413,2040
1629370434417,2041
1629370434421,2042
1629370434425,2042
1629370434429,2042
1629370434433,2043
1629370434437,2043
1629370434441,2044
1629370434445,2045
1629370434449,2046
1629370434453,2047
1629370434457,2048
1629370434461,2048
1629370434465,2048
1629370434469,2047
1629370434473,2046
1629370434477,2045
1629370434481,2045
1629370434485,2045
1629370434489,2045
1629370434493,2044
1629370434497,2043
1629370434501,2043
1629370434505,2045
1629370434509,2048
1629370434513,2053
1629370434517,2057
1629370434521,2063
1629370434525,2074
1629370434529,2093
1629370434533,2119
1629370434537,2151
1629370434541,2174
1629370434545,2177
1629370434549,2151
1629370434553,2099
1629370434557,2034
1629370434561,1974
1629370434565,1937
1629370434569,1927
1629370434573,1941
1629370434577,1967
1629370434581,1994
1629370434585,2016
1629370434589,2029
1629370434593,2039
1629370434597,2045
1629370434601,2048
1629370434605,2049
1629370434609,2050
1629370434613,2050
1629370434617,2050
1629370434621,2051
1629370434625,2052
1629370434629,2054
1629370434633,2055
1629370434637,2056
1629370434641,2056
1629370434645,2057
1629370434649,2057
1629370434653,2058
1629370434657,2059
1629370434661,2060
1629370434665,2061
1629370434669,2062
1629370434673,2061
1629370434677,2060
1629370434681,2058
1629370434685,2055
1629370434689,2053
1629370434693,2051
1629370434697,2051
1629370434701,2051
1629370434705,2052
1629370434709,2053
1629370434713,2054
1629370434717,2055
1629370434721,2057
1629370434725,2060
1629370434729,2063
1629370434733,2067
1629370434737,2071
1629370434741,2075
1629370434745,2079
1629370434749,2083
1629370434753,2086
1629370434757,2088
1629370434761,2091
1629370434765,2093
1629370434769,2096
1629370434773,2099
1629370434777,2102
1629370434781,2103
1629370434785,2103
1629370434789,2103
1629370434793,2102
1629370434797,2102
1629370434801,2102
1629370434805,2102
1629370434809,2101
1629370434813,2100
1629370434817,2097
1629370434821,2093
1629370434825,2089
1629370434829,2085
1629370434833,2080
1629370434837,2073
1629370434841,2067
1629370434845,2061
1629370434849,2055
1629370434853,2052
1629370434857,2049
1629370434861,2047
1629370434865,2043
1629370434869,2040
1629370434873,2037
1629370434877,2033
1629370434881,2032
1629370434885,2031
1629370434889,2031
1629370434893,2030
1629370434897,2029
1629370434901,2029
1629370434905,2029
1629370434909,2029
1629370434913,2029
1629370434917,2029
1629370434921,2028
1629370434925,2028
1629370434929,2027
1629370434933,2028
1629370434937,2028
1629370434941,2028
1629370434945,2028
1629370434949,2027
1629370434953,2027
1629370434957,2027
1629370434961,2027
1629370434965,2028
1629370434969,2028
1629370434973,2029
1629370434977,2029
1629370434981,2029
1629370434985,2030
1629370434989,2031
1629370434993,2031
1629370434997,2031
1629370435001,2031
1629370435005,2032
1629370435009,2033
1629370435013,2035
1629370435017,2036
1629370435021,2036
1629370435025,2037
1629370435029,2037
1629370435033,2037
1629370435037,2038
1629370435041,2038
1629370435045,2038
1629370435049,2037
1629370435053,2036
1629370435057,2035
1629370435061,2035
1629370435065,2035
1629370435069,2035
1629370435073,2035
1629370435077,2035
1629370435081,2035
1629370435085,2036
1629370435089,2036
1629370435093,2037
1629370435097,2038
1629370435101,2038
1629370435105,2037
1629370435109,2037
1629370435113,2036
1629370435117,2036
1629370435121,2035
1629370435125,2035
1629370435129,2035
1629370435133,2036
1629370435137,2036
1629370435141,2036
1629370435145,2037
1629370435149,2037
1629370435153,2037
1629370435157,2037
1629370435161,2037
1629370435165,2037
1629370435169,2038
1629370435173,2039
1629370435177,2039
1629370435181,2040
1629370435185,2040
1629370435189,2040
1629370435193,2041
1629370435197,2041
1629370435201,2041
1629370435205,2042
1629370435209,2042
1629370435213,2043
1629370435217,2043
1629370435221,2044
1629370435225,2044
1629370435229,2044
1629370435233,2045
1629370435237,2044
1629370435241,2044
1629370435245,2045
1629370435249,2045
1629370435253,2046
1629370435257,2046
1629370435261,2046
1629370435265,2046
1629370435269,2045
1629370435273,2045
1629370435277,2044
1629370435281,2045
1629370435285,2045
1629370435289,2045
1629370435293,2045
1629370435297,2045
1629370435301,2044
1629370435305,2044
1629370435309,2044
1629370435313,2044
1629370435317,2043
1629370435321,2043
1629370435325,2043
1629370435329,2043
1629370435333,2043
1629370435337,2044
1629370435341,2044
1629370435345,2044
1629370435349,2044
1629370435353,2044
1629370435357,2044
1629370435361,2044
1629370435365,2044
1629370435369,2044
1629370435373,2045
1629370435377,2046
1629370435381,2047
1629370435385,2047
1629370435389,2048
1629370435393,2047
1629370435397,2046
1629370435401,2044
1629370435405,2043
1629370435409,2043
1629370435413,2044
1629370435417,2046
1629370435421,2048
1629370435425,2048
1629370435429,2047
1629370435433,2046
1629370435437,2044
1629370435441,2043
1629370435445,2042
1629370435449,2042
1629370435453,2042
1629370435457,2042
1629370435461,2041
1629370435465,2041
1629370435469,2040
1629370435473,2039
1629370435477,2039
1629370435481,2039
1629370435485,2039
1629370435489,2039
1629370435493,2040
1629370435497,2040
1629370435501,2040
1629370435505,2041
1629370435509,2041
1629370435513,2041
1629370435517,2041
1629370435521,2041
1629370435525,2041
1629370435529,2041
1629370435533,2042
1629370435537,2044
1629370435541,2047
1629370435545,2051
1629370435549,2055
1629370435553,2062
1629370435557,2074
1629370435561,2093
1629370435565,2120
1629370435569,2153
1629370435573,2180
1629370435577,2187
1629370435581,2167
1629370435585,2119
1629370435589,2056
1629370435593,1998
1629370435597,1958
1629370435601,1946
1629370435605,1956
1629370435609,1977
1629370435613,2001
1629370435617,2020
1629370435621,2033
1629370435625,2044
1629370435629,2051
1629370435633,2055
1629370435637,2057
1629370435641,2058
1629370435645,2059
1629370435649,2059
1629370435653,2060
1629370435657,2061
1629370435661,2062
1629370435665,2062
1629370435669,2062
1629370435673,2062
1629370435677,2062
1629370435681,2062
1629370435685,2062
1629370435689,2062
1629370435693,2063
1629370435697,2064
1629370435701,2065
1629370435705,2066
1629370435709,2066
1629370435713,2066
1629370435717,2066
1629370435721,2066
1629370435725,2067
1629370435729,2068
1629370435733,2069
1629370435737,2070
1629370435741,2072
1629370435745,2073
1629370435749,2074
1629370435753,2075
1629370435757,2076
1629370435761,2077
1629370435765,2078
1629370435769,2079
1629370435773,2082
1629370435777,2084
1629370435781,2086
1629370435785,2088
1629370435789,2090
1629370435793,2091
1629370435797,2092
1629370435801,2093
1629370435805,2095
1629370435809,2096
1629370435813,2098
1629370435817,2100
1629370435821,2101
1629370435825,2102
1629370435829,2103
1629370435833,2103
1629370435837,2102
1629370435841,2101
1629370435845,2099
1629370435849,2097
1629370435853,2093
1629370435857,2089
1629370435861,2085
1629370435865,2079
1629370435869,2074
1629370435873,2068
1629370435877,2063
1629370435881,2058
1629370435885,2054
1629370435889,2050
1629370435893,2048
1629370435897,2045
1629370435901,2042
1629370435905,2040
1629370435909,2038
1629370435913,2036
1629370435917,2035
1629370435921,2034
1629370435925,2034
1629370435929,2033
1629370435933,2033
1629370435937,2033
1629370435941,2033
1629370435945,2033
1629370435949,2032
1629370435953,2032
1629370435957,2032
1629370435961,2032
1629370435965,2032
1629370435969,2032
1629370435973,2032
1629370435977,2033
1629370435981,2034
1629370435985,2034
1629370435989,2035
1629370435993,2034
1629370435997,2034
1629370436001,2034
1629370436005,2034
1629370436009,2034
1629370436013,2035
1629370436017,2036
1629370436021,2037
1629370436025,2037
1629370436029,2037
1629370436033,2037
1629370436037,2037
1629370436041,2037
1629370436045,2037
1629370436049,2038
1629370436053,2038
1629370436057,2039
1629370436061,2039
1629370436065,2040
1629370436069,2040
1629370436073,2040
1629370436077,2039
1629370436081,2039
1629370436085,2039
1629370436089,2039
1629370436093,2040
1629370436097,2041
1629370436101,2041
1629370436105,2042
1629370436109,2041
1629370436113,2041
1629370436117,2041
1629370436121,2040
1629370436125,2041
1629370436129,2041
1629370436133,2041
1629370436137,2041
1629370436141,2041
1629370436145,2042
1629370436149,2042
1629370436153,2042
1629370436157,2041
1629370436161,2041
1629370436165,2040
1629370436169,2040
1629370436173,2040
1629370436177,2041
1629370436181,2041
1629370436185,2041
1629370436189,2041
1629370436193,2041
1629370436197,2041
1629370436201,2041
1629370436205,2041
1629370436209,2041
1629370436213,2041
1629370436217,2041
1629370436221,2042
1629370436225,2042
1629370436229,2042
1629370436233,2042
1629370436237,2041
1629370436241,2042
1629370436245,2042
1629370436249,2042
1629370436253,2043
1629370436257,2043
1629370436261,2044
1629370436265,2044
1629370436269,2044
1629370436273,2044
1629370436277,2044
1629370436281,2044
1629370436285,2044
1629370436289,2044
1629370436293,2045
1629370436297,2045
1629370436301,2046
1629370436305,2047
1629370436309,2047
1629370436313,2047
1629370436317,2046
1629370436321,2046
1629370436325,2046
1629370436329,2046
1629370436333,2046
1629370436337,2047
1629370436341,2047
1629370436345,2048
1629370436349,2048
1629370436353,2048
1629370436357,2048
1629370436361,2048
1629370436365,2048
1629370436369,2049
1629370436373,2050
1629370436377,2050
1629370436381,2050
1629370436385,2050
1629370436389,2048
1629370436393,2048
1629370436397,2048
1629370436401,2048
1629370436405,2048
1629370436409,2050
1629370436413,2051
1629370436417,2051
1629370436421,2050
1629370436425,2050
1629370436429,2049
1629370436433,2049
1629370436437,2049
1629370436441,2049
1629370436445,2048
1629370436449,2048
1629370436453,2048
1629370436457,2048
1629370436461,2048
1629370436465,2047
1629370436469,2047
1629370436473,2047
1629370436477,2047
1629370436481,2047
1629370436485,2047
1629370436489,2046
1629370436493,2047
1629370436497,2047
1629370436501,2047
1629370436505,2048
1629370436509,2047
1629370436513,2047
1629370436517,2047
1629370436521,2046
1629370436525,2047
1629370436529,2048
1629370436533,2052
1629370436537,2057
1629370436541,2061
1629370436545,2068
1629370436549,2080
1629370436553,2099
1629370436557,2126
1629370436561,2159
1629370436565,2184
1629370436569,2190
1629370436573,2167
1629370436577,2117
1629370436581,2053
1629370436585,1995
1629370436589,1957
1629370436593,1945
1629370436597,1955
1629370436601,1976
1629370436605,2000
1629370436609,2017
1629370436613,2030
1629370436617,2042
1629370436621,2049
1629370436625,2054
1629370436629,2057
1629370436633,2058
1629370436637,2058
1629370436641,2058
1629370436645,2059
1629370436649,2059
1629370436653,2060
1629370436657,2061
1629370436661,2061
1629370436665,2061
1629370436669,2061
1629370436673,2061
1629370436677,2061
1629370436681,2062
1629370436685,2063
1629370436689,2064
1629370436693,2065
1629370436697,2066
1629370436701,2067
1629370436705,2068
1629370436709,2068
1629370436713,2069
1629370436717,2069
1629370436721,2070
1629370436725,2071
1629370436729,2072
1629370436733,2073
1629370436737,2075
1629370436741,2076
1629370436745,2077
1629370436749,2079
1629370436753,2080
1629370436757,2081
1629370436761,2083
1629370436765,2085
1629370436769,2087
1629370436773,2089
1629370436777,2091
1629370436781,2093
1629370436785,2095
1629370436789,2097
1629370436793,2099
1629370436797,2101
1629370436801,2102
1629370436805,2103
1629370436809,2104
1629370436813,2105
1629370436817,2106
1629370436821,2107
1629370436825,2108
1629370436829,2108
1629370436833,2107
1629370436837,2105
1629370436841,2102
1629370436845,2098
1629370436849,2093
1629370436853,2088
1629370436857,2083
1629370436861,2078
1629370436865,2073
1629370436869,2068
1629370436873,2063
1629370436877,2058
1629370436881,2054
1629370436885,2051
1629370436889,2048
1629370436893,2047
1629370436897,2045
1629370436901,2043
1629370436905,2042
1629370436909,2041
1629370436913,2040
1629370436917,2038
1629370436921,2038
1629370436925,2037
1629370436929,2036
1629370436933,2036
1629370436937,2037
1629370436941,2037
1629370436945,2038
1629370436949,2038
1629370436953,2037
1629370436957,2037
1629370436961,2036
1629370436965,2036
1629370436969,2036
1629370436973,2037
1629370436977,2038
1629370436981,2038
1629370436985,2039
1629370436989,2039
1629370436993,2039
1629370436997,2038
1629370437001,2038
1629370437005,2038
1629370437009,2038
1629370437013,2039
1629370437017,2040
1629370437021,2040
1629370437025,2040
1629370437029,2040
1629370437033,2040
1629370437037,2040
1629370437041,2040
1629370437045,2040
1629370437049,2040
1629370437053,2041
1629370437057,2041
1629370437061,2041
1629370437065,2041
1629370437069,2041
1629370437073,2042
1629370437077,2041
1629370437081,2041
1629370437085,2041
1629370437089,2041
1629370437093,2042
1629370437097,2042
1629370437101,2042
1629370437105,2043
1629370437109,2042
1629370437113,2042
1629370437117,2041
1629370437121,2041
1629370437125,2041
1629370437129,2041
1629370437133,2041
1629370437137,2042
1629370437141,2042
1629370437145,2043
1629370437149,2042
1629370437153,2042
1629370437157,2041
1629370437161,2041
1629370437165,2041
1629370437169,2041
1629370437173,2042
1629370437177,2042
1629370437181,2043
1629370437185,2043
1629370437189,2042
1629370437193,2042
1629370437197,2042
1629370437201,2041
1629370437205,2042
1629370437209,2042
1629370437213,2043
1629370437217,2043
1629370437221,2043
1629370437225,2043
1629370437229,2043
1629370437233,2043
1629370437237,2042
1629370437241,2042
1629370437245,2043
1629370437249,2043
1629370437253,2044
1629370437257,2044
1629370437261,2044
1629370437265,2044
1629370437269,2044
1629370437273,2044
1629370437277,2043
1629370437281,2043
1629370437285,2043
1629370437289,2044
1629370437293,2044
1629370437297,2045
1629370437301,2045
1629370437305,2045
1629370437309,2044
1629370437313,2044
1629370437317,2044
1629370437321,2044
1629370437325,2045
1629370437329,2045
1629370437333,2045
1629370437337,2045
1629370437341,2046
1629370437345,2046
1629370437349,2046
1629370437353,2046
1629370437357,2046
1629370437361,2046
1629370437365,2046
1629370437369,2046
1629370437373,2047
1629370437377,2047
1629370437381,2047
1629370437385,2047
1629370437389,2047
1629370437393,2047
1629370437397,2046
1629370437401,2046
1629370437405,2047
1629370437409,2048
1629370437413,2048
1629370437417,2049
1629370437421,2049
1629370437425,2049
1629370437429,2049
1629370437433,2049
1629370437437,2048
1629370437441,2048
1629370437445,2048
1629370437449,2048
1629370437453,2048
1629370437457,2048
1629370437461,2048
1629370437465,2050
1629370437469,2051
1629370437473,2051
1629370437477,2050
1629370437481,2049
1629370437485,2048
1629370437489,2048
1629370437493,2048
1629370437497,2048
1629370437501,2048
1629370437505,2048
1629370437509,2047
1629370437513,2047
1629370437517,2046
1629370437521,2046
1629370437525,2046
1629370437529,2046
1629370437533,2046
1629370437537,2047
1629370437541,2047
1629370437545,2047
1629370437549,2047
1629370437553,2047
1629370437557,2047
1629370437561,2047
1629370437565,2048
1629370437569,2048
1629370437573,2048
1629370437577,2048
1629370437581,2048
1629370437585,2050
1629370437589,2052
1629370437593,2056
1629370437597,2060
1629370437601,2066
1629370437605,2076
1629370437609,2092
1629370437613,2116
1629370437617,2147
1629370437621,2176
1629370437625,2191
1629370437629,2180
1629370437633,2140
1629370437637,2080
1629370437641,2017
1629370437645,1970
1629370437649,1948
1629370437653,1952
1629370437657,1972
1629370437661,1998
1629370437665,2019
1629370437669,2034
1629370437673,2044
1629370437677,2051
1629370437681,2056
1629370437685,2059
1629370437689,2060
1629370437693,2061
1629370437697,2062
1629370437701,2063
1629370437705,2064
1629370437709,2064
1629370437713,2065
1629370437717,2065
1629370437721,2065
1629370437725,2065
1629370437729,2065
1629370437733,2066
1629370437737,2067
1629370437741,2068
1629370437745,2068
1629370437749,2069
1629370437753,2070
1629370437757,2070
1629370437761,2070
1629370437765,2070
1629370437769,2071
1629370437773,2072
1629370437777,2073
1629370437781,2074
1629370437785,2075
1629370437789,2076
1629370437793,2077
1629370437797,2078
1629370437801,2078
1629370437805,2080
1629370437809,2081
1629370437813,2083
1629370437817,2085
1629370437821,2087
1629370437825,2089
1629370437829,2091
1629370437833,2092
1629370437837,2094
1629370437841,2096
1629370437845,2098
1629370437849,2099
1629370437853,2101
1629370437857,2103
1629370437861,2105
1629370437865,2106
1629370437869,2107
1629370437873,2108
1629370437877,2108
1629370437881,2109
1629370437885,2109
1629370437889,2109
1629370437893,2108
1629370437897,2106
1629370437901,2103
1629370437905,2099
1629370437909,2094
1629370437913,2089
1629370437917,2083
1629370437921,2077
1629370437925,2072
1629370437929,2067
1629370437933,2062
1629370437937,2058
1629370437941,2055
1629370437945,2052
1629370437949,2049
1629370437953,2048
1629370437957,2046
1629370437961,2044
1629370437965,2042
1629370437969,2041
1629370437973,2041
1629370437977,2040
1629370437981,2040
1629370437985,2039
1629370437989,2039
1629370437993,2038
1629370437997,2038
1629370438001,2037
1629370438005,2037
1629370438009,2037
1629370438013,2038
1629370438017,2038
1629370438021,2038
1629370438025,2039
1629370438029,2039
1629370438033,2039
1629370438037,2039
1629370438041,2038
1629370438045,2039
1629370438049,2039
1629370438053,2039
1629370438057,2040
1629370438061,2040
1629370438065,2041
1629370438069,2041
1629370438073,2040
1629370438077,2040
1629370438081,2040
1629370438085,2040
1629370438089,2040
1629370438093,2041
1629370438097,2042
1629370438101,2042
1629370438105,2042
1629370438109,2042
1629370438113,2042
1629370438117,2041
1629370438121,2041
1629370438125,2042
1629370438129,2042
1629370438133,2043
1629370438137,2043
1629370438141,2043
1629370438145,2043
1629370438149,2043
1629370438153,2043
1629370438157,2042
1629370438161,2042
1629370438165,2042
1629370438169,2042
1629370438173,2043
1629370438177,2043
1629370438181,2043
1629370438185,2043
1629370438189,2043
1629370438193,2043
1629370438197,2043
1629370438201,2043
1629370438205,2043
1629370438209,2043
1629370438213,2043
1629370438217,2044
1629370438221,2044
1629370438225,2044
1629370438229,2044
1629370438233,2044
1629370438237,2043
1629370438241,2042
1629370438245,2042
1629370438249,2042
1629370438253,2043
1629370438257,2043
1629370438261,2044
1629370438265,2044
1629370438269,2044
1629370438273,2044
1629370438277,2043
1629370438281,2043
1629370438285,2043
1629370438289,2043
1629370438293,2044
1629370438297,2044
1629370438301,2045
1629370438305,2045
1629370438309,2045
1629370438313,2045
1629370438317,2045
1629370438321,2044
1629370438325,2044
1629370438329,2044
1629370438333,2045
1629370438337,2045
1629370438341,2046
1629370438345,2045
1629370438349,2045
1629370438353,2045
1629370438357,2045
1629370438361,2045
1629370438365,2045
1629370438369,2046
1629370438373,2046
1629370438377,2046
1629370438381,2047
1629370438385,2047
1629370438389,2047
1629370438393,2047
1629370438397,2046
1629370438401,2046
1629370438405,2046
1629370438409,2046
1629370438413,2047
1629370438417,2047
1629370438421,2048
1629370438425,2048
1629370438429,2047
1629370438433,2047
1629370438437,2046
1629370438441,2046
1629370438445,2047
1629370438449,2048
1629370438453,2048
1629370438457,2048
1629370438461,2048
1629370438465,2048
1629370438469,2048
1629370438473,2048
1629370438477,2048
1629370438481,2048
1629370438485,2047
1629370438489,2047
1629370438493,2048
1629370438497,2048
1629370438501,2049
1629370438505,2049
1629370438509,2049
1629370438513,2049
1629370438517,2048
1629370438521,2049
1629370438525,2049
1629370438529,2050
1629370438533,2051
1629370438537,2052
1629370438541,2052
1629370438545,2053
1629370438549,2053
1629370438553,2053
1629370438557,2053
1629370438561,2052
1629370438565,2051
1629370438569,2050
1629370438573,2050
1629370438577,2050
1629370438581,2052
1629370438585,2053
1629370438589,2054
1629370438593,2054
1629370438597,2053
1629370438601,2052
1629370438605,2051
1629370438609,2050
1629370438613,2050
1629370438617,2051
1629370438621,2051
1629370438625,2051
1629370438629,2050
1629370438633,2049
1629370438637,2048
1629370438641,2048
1629370438645,2048
1629370438649,2048
1629370438653,2049
1629370438657,2049
1629370438661,2050
1629370438665,2051
1629370438669,2051
1629370438673,2051
1629370438677,2051
1629370438681,2050
1629370438685,2051
1629370438689,2051
1629370438693,2051
1629370438697,2052
1629370438701,2052
1629370438705,2053
1629370438709,2055
1629370438713,2058
1629370438717,2062
1629370438721,2066
1629370438725,2074
1629370438729,2087
1629370438733,2107
1629370438737,2136
1629370438741,2167
1629370438745,2190
1629370438749,2191
1629370438753,2164
1629370438757,2111
1629370438761,2047
1629370438765,1991
1629370438769,1957
1629370438773,1951
1629370438777,1966
1629370438781,1991
1629370438785,2015
1629370438789,2033
1629370438793,2044
1629370438797,2052
1629370438801,2058
1629370438805,2062
1629370438809,2064
1629370438813,2065
1629370438817,2066
1629370438821,2067
1629370438825,2068
1629370438829,2068
1629370438833,2069
1629370438837,2069
1629370438841,2069
1629370438845,2070
1629370438849,2070
1629370438853,2071
1629370438857,2072
1629370438861,2072
1629370438865,2073
1629370438869,2073
1629370438873,2074
1629370438877,2075
1629370438881,2075
1629370438885,2076
1629370438889,2076
1629370438893,2077
1629370438897,2078
1629370438901,2079
1629370438905,2080
1629370438909,2081
1629370438913,2081
1629370438917,2081
1629370438921,2082
1629370438925,2084
1629370438929,2085
1629370438933,2087
1629370438937,2089
1629370438941,2091
1629370438945,2093
1629370438949,2095
1629370438953,2097
1629370438957,2098
1629370438961,2100
1629370438965,2101
1629370438969,2103
1629370438973,2105
1629370438977,2107
1629370438981,2109
1629370438985,2111
1629370438989,2112
1629370438993,2113
1629370438997,2114
1629370439001,2114
1629370439005,2114
1629370439009,2114
1629370439013,2113
1629370439017,2112
1629370439021,2110
1629370439025,2106
1629370439029,2102
1629370439033,2097
1629370439037,2091
1629370439041,2086
1629370439045,2080
1629370439049,2075
1629370439053,2071
1629370439057,2067
1629370439061,2063
1629370439065,2060
1629370439069,2057
1629370439073,2054
1629370439077,2051
1629370439081,2049
1629370439085,2048
1629370439089,2047
1629370439093,2047
1629370439097,2047
1629370439101,2046
1629370439105,2045
1629370439109,2044
1629370439113,2043
1629370439117,2042
1629370439121,2042
1629370439125,2043
1629370439129,2043
1629370439133,2044
1629370439137,2044
1629370439141,2044
1629370439145,2045
1629370439149,2045
1629370439153,2045
1629370439157,2045
1629370439161,2045
1629370439165,2045
1629370439169,2045
1629370439173,2046
1629370439177,2046
1629370439181,2046
1629370439185,2046
1629370439189,2046
1629370439193,2046
1629370439197,2046
1629370439201,2046
1629370439205,2046
1629370439209,2046
1629370439213,2046
1629370439217,2047
1629370439221,2047
1629370439225,2048
1629370439229,2048
1629370439233,2048
1629370439237,2047
1629370439241,2047
1629370439245,2047
1629370439249,2047
1629370439253,2048
1629370439257,2048
1629370439261,2048
1629370439265,2048
1629370439269,2048
1629370439273,2048
1629370439277,2048
1629370439281,2047
1629370439285,2047
1629370439289,2047
1629370439293,2048
1629370439297,2048
1629370439301,2048
1629370439305,2048
1629370439309,2048
1629370439313,2048
1629370439317,2048
1629370439321,2048
1629370439325,2048
1629370439329,2048
1629370439333,2048
1629370439337,2048
1629370439341,2048
1629370439345,2048
1629370439349,2048
1629370439353,2048
1629370439357,2048
1629370439361,2048
1629370439365,2048
1629370439369,2047
1629370439373,2048
1629370439377,2048
1629370439381,2048
1629370439385,2048
1629370439389,2048
1629370439393,2048
1629370439397,2048
1629370439401,2048
1629370439405,2048
1629370439409,2048
1629370439413,2048
1629370439417,2048
1629370439421,2048
1629370439425,2048
1629370439429,2048
1629370439433,2048
1629370439437,2048
1629370439441,2048
1629370439445,2048
1629370439449,2048
1629370439453,2049
1629370439457,2049
1629370439461,2048
1629370439465,2048
1629370439469,2048
1629370439473,2049
1629370439477,2049
1629370439481,2049
1629370439485,2049
1629370439489,2048
1629370439493,2048
1629370439497,2048
1629370439501,2049
1629370439505,2050
1629370439509,2050
1629370439513,2049
1629370439517,2049
1629370439521,2048
1629370439525,2048
1629370439529,2048
1629370439533,2048
1629370439537,2049
1629370439541,2050
1629370439545,2050
1629370439549,2050
1629370439553,2050
1629370439557,2049
1629370439561,2049
1629370439565,2049
1629370439569,2049
1629370439573,2049
1629370439577,2050
1629370439581,2050
1629370439585,2050
1629370439589,2050
1629370439593,2050
1629370439597,2049
1629370439601,2048
1629370439605,2048
1629370439609,2049
1629370439613,2049
1629370439617,2050
1629370439621,2051
1629370439625,2051
1629370439629,2050
1629370439633,2051
1629370439637,2051
1629370439641,2052
1629370439645,2052
1629370439649,2052
1629370439653,2053
1629370439657,2053
1629370439661,2053
1629370439665,2052
1629370439669,2051
1629370439673,2050
1629370439677,2049
1629370439681,2049
1629370439685,2050
1629370439689,2051
1629370439693,2053
1629370439697,2054
1629370439701,2053
1629370439705,2052
1629370439709,2051
1629370439713,2050
1629370439717,2049
1629370439721,2049
1629370439725,2049
1629370439729,2049
1629370439733,2049
1629370439737,2049
1629370439741,2049
1629370439745,2049
1629370439749,2048
1629370439753,2048
1629370439757,2048
1629370439761,2048
1629370439765,2048
1629370439769,2049
1629370439773,2049
1629370439777,2050
1629370439781,2050
1629370439785,2050
1629370439789,2050
1629370439793,2050
1629370439797,2050
1629370439801,2050
1629370439805,2049
1629370439809,2050
1629370439813,2052
1629370439817,2056
1629370439821,2061
1629370439825,2066
1629370439829,2072
1629370439833,2084
1629370439837,2102
1629370439841,2129
1629370439845,2161
1629370439849,2185
1629370439853,2190
1629370439857,2166
1629370439861,2116
1629370439865,2052
1629370439869,1994
1629370439873,1957
1629370439877,1947
1629370439881,1959
1629370439885,1982
1629370439889,2007
1629370439893,2026
1629370439897,2039
1629370439901,2048
1629370439905,2056
1629370439909,2060
1629370439913,2063
1629370439917,2063
1629370439921,2064
1629370439925,2064
1629370439929,2065
1629370439933,2066
1629370439937,2067
1629370439941,2068
1629370439945,2068
1629370439949,2069
1629370439953,2069
1629370439957,2069
1629370439961,2070
1629370439965,2070
1629370439969,2070
1629370439973,2071
1629370439977,2071
1629370439981,2072
1629370439985,2073
1629370439989,2074
1629370439993,2074
1629370439997,2074
1629370440001,2075
1629370440005,2076
1629370440009,2076
1629370440013,2078
1629370440017,2079
1629370440021,2080
1629370440025,2082
1629370440029,2083
1629370440033,2084
1629370440037,2085
1629370440041,2086
1629370440045,2088
1629370440049,2090
1629370440053,2092
1629370440057,2094
1629370440061,2096
1629370440065,2098
1629370440069,2100
1629370440073,2102
1629370440077,2103
1629370440081,2105
1629370440085,2106
1629370440089,2107
1629370440093,2109
1629370440097,2110
1629370440101,2112
1629370440105,2113
1629370440109,2112
1629370440113,2112
1629370440117,2110
1629370440121,2109
1629370440125,2107
1629370440129,2104
1629370440133,2100
1629370440137,2095
1629370440141,2090
1629370440145,2084
1629370440149,2078
1629370440153,2073
1629370440157,2068
1629370440161,2063
1629370440165,2059
1629370440169,2055
1629370440173,2052
1629370440177,2050
1629370440181,2048
1629370440185,2047
1629370440189,2046
1629370440193,2044
1629370440197,2042
1629370440201,2041
1629370440205,2040
1629370440209,2039
1629370440213,2040
1629370440217,2040
1629370440221,2040
1629370440225,2040
1629370440229,2040
1629370440233,2040
1629370440237,2039
1629370440241,2038
1629370440245,2038
1629370440249,2039
1629370440253,2040
1629370440257,2040
1629370440261,2041
1629370440265,2041
1629370440269,2041
1629370440273,2041
1629370440277,2040
1629370440281,2040
1629370440285,2040
1629370440289,2040
1629370440293,2041
1629370440297,2041
1629370440301,2042
1629370440305,2042
1629370440309,2042
1629370440313,2042
1629370440317,2042
1629370440321,2042
1629370440325,2042
1629370440329,2042
1629370440333,2043
1629370440337,2043
1629370440341,2043
1629370440345,2043
1629370440349,2043
1629370440353,2043
1629370440357,2043
1629370440361,2044
1629370440365,2043
1629370440369,2043
1629370440373,2043
1629370440377,2043
1629370440381,2044
1629370440385,2044
1629370440389,2044
1629370440393,2044
1629370440397,2044
1629370440401,2043
1629370440405,2043
1629370440409,2043
1629370440413,2043
1629370440417,2044
1629370440421,2044
1629370440425,2044
1629370440429,2044
1629370440433,2043
1629370440437,2043
1629370440441,2043
1629370440445,2043
1629370440449,2043
1629370440453,2043
1629370440457,2043
1629370440461,2044
1629370440465,2044
1629370440469,2044
1629370440473,2043
1629370440477,2042
1629370440481,2042
1629370440485,2042
1629370440489,2043
1629370440493,2043
1629370440497,2044
1629370440501,2044
1629370440505,2044
1629370440509,2044
1629370440513,2044
1629370440517,2044
1629370440521,2044
1629370440525,2044
1629370440529,2044
1629370440533,2044
1629370440537,2044
1629370440541,2044
1629370440545,2045
1629370440549,2045
1629370440553,2045
1629370440557,2045
1629370440561,2044
1629370440565,2044
1629370440569,2044
1629370440573,2044
1629370440577,2045
1629370440581,2045
1629370440585,2046
1629370440589,2046
1629370440593,2045
1629370440597,2045
1629370440601,2045
1629370440605,2045
1629370440609,2045
1629370440613,2046
1629370440617,2046
1629370440621,2046
1629370440625,2047
1629370440629,2046
1629370440633,2046
1629370440637,2046
1629370440641,2046
1629370440645,2045
1629370440649,2045
1629370440653,2046
1629370440657,2046
1629370440661,2046
1629370440665,2046
1629370440669,2046
1629370440673,2046
1629370440677,2045
1629370440681,2045
1629370440685,2045
1629370440689,2046
1629370440693,2046
1629370440697,2047
1629370440701,2047
1629370440705,2047
1629370440709,2047
1629370440713,2047
1629370440717,2047
1629370440721,2046
1629370440725,2046
1629370440729,2047
1629370440733,2047
1629370440737,2048
1629370440741,2048
1629370440745,2048
1629370440749,2047
1629370440753,2047
1629370440757,2047
1629370440761,2047
1629370440765,2048
1629370440769,2048
1629370440773,2048
1629370440777,2048
1629370440781,2048
1629370440785,2048
1629370440789,2049
1629370440793,2049
1629370440797,2049
1629370440801,2049
1629370440805,2049
1629370440809,2049
1629370440813,2049
1629370440817,2048
1629370440821,2048
1629370440825,2048
1629370440829,2048
1629370440833,2048
1629370440837,2049
1629370440841,2050
1629370440845,2050
1629370440849,2049
1629370440853,2048
1629370440857,2048
1629370440861,2048
1629370440865,2048
1629370440869,2048
1629370440873,2048
1629370440877,2047
1629370440881,2046
1629370440885,2046
1629370440889,2046
1629370440893,2046
1629370440897,2046
1629370440901,2047
1629370440905,2047
1629370440909,2047
1629370440913,2047
1629370440917,2047
1629370440921,2046
1629370440925,2046
1629370440929,2046
1629370440933,2047
1629370440937,2047
1629370440941,2048
1629370440945,2048
1629370440949,2048
1629370440953,2048
1629370440957,2048
1629370440961,2050
1629370440965,2053
1629370440969,2057
1629370440973,2063
1629370440977,2071
1629370440981,2085
1629370440985,2106
1629370440989,2135
1629370440993,2165
1629370440997,2186
1629370441001,2185
1629370441005,2155
1629370441009,2100
1629370441013,2037
1629370441017,1982
1629370441021,1952
1629370441025,1948
1629370441029,1964
1629370441033,1989
1629370441037,2013
1629370441041,2030
1629370441045,2041
1629370441049,2049
1629370441053,2055
1629370441057,2059
1629370441061,2061
1629370441065,2062
1629370441069,2062
1629370441073,2062
1629370441077,2062
1629370441081,2063
1629370441085,2063
1629370441089,2064
1629370441093,2065
1629370441097,2066
1629370441101,2066
1629370441105,2067
1629370441109,2067
1629370441113,2067
1629370441117,2067
1629370441121,2068
1629370441125,2068
1629370441129,2069
1629370441133,2070
1629370441137,2071
1629370441141,2071
1629370441145,2072
1629370441149,2073
1629370441153,2073
1629370441157,2074
1629370441161,2075
1629370441165,2076
1629370441169,2077
1629370441173,2079
1629370441177,2081
1629370441181,2082
1629370441185,2083
1629370441189,2085
1629370441193,2086
1629370441197,2088
1629370441201,2089
1629370441205,2091
1629370441209,2093
1629370441213,2095
1629370441217,2097
1629370441221,2100
1629370441225,2102
1629370441229,2103
1629370441233,2104
1629370441237,2105
1629370441241,2106
1629370441245,2107
1629370441249,2108
1629370441253,2109
1629370441257,2110
1629370441261,2110
1629370441265,2110
1629370441269,2108
1629370441273,2106
1629370441277,2102
1629370441281,2097
1629370441285,2092
1629370441289,2087
1629370441293,2082
1629370441297,2076
1629370441301,2071
1629370441305,2067
1629370441309,2062
1629370441313,2058
1629370441317,2054
1629370441321,2050
1629370441325,2048
1629370441329,2046
1629370441333,2044
1629370441337,2043
1629370441341,2042
1629370441345,2040
1629370441349,2039
1629370441353,2038
1629370441357,2037
1629370441361,2037
1629370441365,2037
1629370441369,2037
1629370441373,2037
1629370441377,2037
1629370441381,2037
1629370441385,2038
1629370441389,2037
1629370441393,2037
1629370441397,2037
1629370441401,2037
1629370441405,2037
1629370441409,2037
1629370441413,2038
1629370441417,2038
1629370441421,2038
1629370441425,2039
1629370441429,2039
1629370441433,2039
1629370441437,2039
1629370441441,2039
1629370441445,2039
1629370441449,2039
1629370441453,2039
1629370441457,2039
1629370441461,2039
1629370441465,2040
1629370441469,2040
1629370441473,2040
1629370441477,2040
1629370441481,2040
1629370441485,2040
1629370441489,2040
1629370441493,2040
1629370441497,2041
1629370441501,2041
1629370441505,2041
1629370441509,2041
1629370441513,2041
1629370441517,2041
1629370441521,2041
1629370441525,2041
1629370441529,2041
1629370441533,2041
1629370441537,2041
1629370441541,2041
1629370441545,2041
1629370441549,2041
1629370441553,2041
1629370441557,2041
1629370441561,2041
1629370441565,2041
1629370441569,2040
1629370441573,2041
1629370441577,2041
1629370441581,2042
1629370441585,2042
1629370441589,2042
1629370441593,2042
1629370441597,2041
1629370441601,2041
1629370441605,2041
1629370441609,2040
1629370441613,2040
1629370441617,2041
1629370441621,2041
1629370441625,2042
1629370441629,2042
1629370441633,2042
1629370441637,2041
1629370441641,2041
1629370441645,2041
1629370441649,2041
1629370441653,2041
1629370441657,2042
1629370441661,2042
1629370441665,2042
1629370441669,2042
1629370441673,2042
1629370441677,2042
1629370441681,2042
1629370441685,2042
1629370441689,2042
1629370441693,2042
1629370441697,2043
1629370441701,2043
1629370441705,2043
1629370441709,2043
1629370441713,2043
1629370441717,2043
1629370441721,2043
1629370441725,2043
1629370441729,2043
1629370441733,2044
1629370441737,2044
1629370441741,2044
1629370441745,2044
1629370441749,2044
1629370441753,2044
1629370441757,2044
1629370441761,2043
1629370441765,2043
1629370441769,2043
1629370441773,2044
1629370441777,2045
1629370441781,2045
1629370441785,2045
1629370441789,2045
1629370441793,2045
1629370441797,2045
1629370441801,2044
1629370441805,2044
1629370441809,2045
1629370441813,2045
1629370441817,2046
1629370441821,2046
1629370441825,2046
1629370441829,2046
1629370441833,2046
1629370441837,2045
1629370441841,2045
1629370441845,2045
1629370441849,2045
1629370441853,2046
1629370441857,2046
1629370441861,2047
1629370441865,2047
1629370441869,2046
1629370441873,2046
1629370441877,2046
1629370441881,2046
1629370441885,2046
1629370441889,2046
1629370441893,2047
1629370441897,2047
1629370441901,2047
1629370441905,2047
1629370441909,2047
1629370441913,2047
1629370441917,2047
1629370441921,2047
1629370441925,2047
1629370441929,2047
1629370441933,2047
1629370441937,2047
1629370441941,2047
1629370441945,2048
1629370441949,2048
1629370441953,2048
1629370441957,2048
1629370441961,2048
1629370441965,2048
1629370441969,2048
1629370441973,2049
1629370441977,2050
1629370441981,2049
1629370441985,2048
1629370441989,2048
1629370441993,2047
1629370441997,2047
1629370442001,2048
1629370442005,2049
1629370442009,2050
1629370442013,2051
1629370442017,2050
1629370442021,2049
1629370442025,2048
1629370442029,2048
1629370442033,2048
1629370442037,2048
1629370442041,2047
1629370442045,2047
1629370442049,2046
1629370442053,2046
1629370442057,2047
1629370442061,2047
1629370442065,2047
1629370442069,2047
1629370442073,2047
1629370442077,2046
1629370442081,2046
1629370442085,2046
1629370442089,2046
1629370442093,2046
1629370442097,2047
1629370442101,2047
1629370442105,2048
1629370442109,2048
1629370442113,2048
1629370442117,2047
1629370442121,2047
1629370442125,2048
1629370442129,2049
1629370442133,2053
1629370442137,2058
1629370442141,2063
1629370442145,2073
1629370442149,2088
1629370442153,2111
1629370442157,2141
1629370442161,2171
1629370442165,2187
1629370442169,2178
1629370442173,2141
1629370442177,2082
1629370442181,2020
1629370442185,1971
1629370442189,1948
1629370442193,1951
1629370442197,1971
1629370442201,1997
1629370442205,2019
1629370442209,2035
1629370442213,2045
1629370442217,2052
1629370442221,2057
1629370442225,2059
1629370442229,2060
1629370442233,2060
1629370442237,2060
1629370442241,2060
1629370442245,2061
1629370442249,2062
1629370442253,2063
1629370442257,2064
1629370442261,2064
1629370442265,2065
1629370442269,2065
1629370442273,2065
1629370442277,2065
1629370442281,2066
1629370442285,2066
1629370442289,2067
1629370442293,2068
1629370442297,2069
1629370442301,2070
1629370442305,2070
1629370442309,2071
1629370442313,2071
1629370442317,2071
1629370442321,2071
1629370442325,2072
1629370442329,2073
1629370442333,2075
1629370442337,2076
1629370442341,2078
1629370442345,2079
1629370442349,2081
1629370442353,2082
1629370442357,2083
1629370442361,2084
1629370442365,2086
1629370442369,2088
1629370442373,2090
1629370442377,2092
1629370442381,2094
1629370442385,2096
1629370442389,2098
1629370442393,2100
1629370442397,2101
1629370442401,2102
1629370442405,2104
1629370442409,2105
1629370442413,2106
1629370442417,2107
1629370442421,2108
1629370442425,2109
1629370442429,2109
1629370442433,2108
1629370442437,2106
1629370442441,2103
1629370442445,2099
1629370442449,2095
1629370442453,2091
1629370442457,2086
1629370442461,2080
1629370442465,2075
1629370442469,2070
1629370442473,2065
1629370442477,2060
1629370442481,2056
1629370442485,2052
1629370442489,2048
1629370442493,2047
1629370442497,2045
1629370442501,2044
1629370442505,2043
1629370442509,2041
1629370442513,2040
1629370442517,2038
1629370442521,2037
1629370442525,2037
1629370442529,2037
1629370442533,2037
1629370442537,2037
1629370442541,2037
1629370442545,2037
1629370442549,2037
1629370442553,2037
1629370442557,2037
1629370442561,2036
1629370442565,2036
1629370442569,2037
1629370442573,2037
1629370442577,2038
1629370442581,2038
1629370442585,2038
1629370442589,2038
1629370442593,2039
1629370442597,2038
1629370442601,2038
1629370442605,2038
1629370442609,2038
1629370442613,2039
1629370442617,2039
1629370442621,2039
1629370442625,2040
1629370442629,2040
1629370442633,2040
1629370442637,2039
1629370442641,2039
1629370442645,2039
1629370442649,2039
1629370442653,2040
1629370442657,2041
1629370442661,2041
1629370442665,2041
1629370442669,2041
1629370442673,2040
1629370442677,2040
1629370442681,2040
1629370442685,2040
1629370442689,2040
1629370442693,2041
1629370442697,2041
1629370442701,2042
1629370442705,2042
1629370442709,2041
1629370442713,2041
1629370442717,2040
1629370442721,2040
1629370442725,2040
1629370442729,2040
1629370442733,2041
1629370442737,2041
1629370442741,2041
1629370442745,2041
1629370442749,2041
1629370442753,2041
1629370442757,2040
1629370442761,2040
1629370442765,2040
1629370442769,2040
1629370442773,2041
1629370442777,2041
1629370442781,2042
1629370442785,2042
1629370442789,2042
1629370442793,2041
1629370442797,2041
1629370442801,2040
1629370442805,2041
1629370442809,2041
1629370442813,2041
1629370442817,2042
1629370442821,2042
1629370442825,2042
1629370442829,2042
1629370442833,2042
1629370442837,2042
1629370442841,2041
1629370442845,2041
1629370442849,2041
1629370442853,2042
1629370442857,2042
1629370442861,2042
1629370442865,2042
1629370442869,2042
1629370442873,2042
1629370442877,2042
1629370442881,2042
1629370442885,2042
1629370442889,2042
1629370442893,2042
1629370442897,2043
1629370442901,2043
1629370442905,2044
1629370442909,2043
1629370442913,2043
1629370442917,2042
1629370442921,2042
1629370442925,2042
1629370442929,2043
1629370442933,2043
1629370442937,2044
1629370442941,2044
1629370442945,2044
1629370442949,2044
1629370442953,2044
1629370442957,2044
1629370442961,2044
1629370442965,2044
1629370442969,2044
1629370442973,2044
1629370442977,2044
1629370442981,2045
1629370442985,2045
1629370442989,2045
1629370442993,2045
1629370442997,2045
1629370443001,2044
1629370443005,2044
1629370443009,2044
1629370443013,2045
1629370443017,2045
1629370443021,2045
1629370443025,2045
1629370443029,2046
1629370443033,2046
1629370443037,2045
1629370443041,2045
1629370443045,2045
1629370443049,2046
1629370443053,2046
1629370443057,2046
1629370443061,2046
1629370443065,2047
1629370443069,2047
1629370443073,2047
1629370443077,2047
1629370443081,2047
1629370443085,2047
1629370443089,2047
1629370443093,2048
1629370443097,2048
1629370443101,2049
1629370443105,2048
1629370443109,2048
1629370443113,2048
1629370443117,2048
1629370443121,2048
1629370443125,2047
1629370443129,2047
1629370443133,2047
1629370443137,2048
1629370443141,2048
1629370443145,2049
1629370443149,2050
1629370443153,2050
1629370443157,2049
1629370443161,2048
1629370443165,2048
1629370443169,2048
1629370443173,2048
1629370443177,2048
1629370443181,2048
1629370443185,2047
1629370443189,2046
1629370443193,2046
1629370443197,2046
1629370443201,2045
1629370443205,2045
1629370443209,2045
1629370443213,2046
1629370443217,2046
1629370443221,2047
1629370443225,2047
1629370443229,2047
1629370443233,2047
1629370443237,2047
1629370443241,2047
1629370443245,2047
1629370443249,2048
1629370443253,2048
1629370443257,2048
1629370443261,2048
1629370443265,2049
1629370443269,2052
1629370443273,2056
1629370443277,2060
1629370443281,2066
1629370443285,2076
1629370443289,2092
1629370443293,2118
1629370443297,2150
1629370443301,2178
1629370443305,2189
1629370443309,2173
1629370443313,2130
1629370443317,2069
1629370443321,2009
1629370443325,1966
1629370443329,1948
1629370443333,1955
1629370443337,1976
1629370443341,2000
1629370443345,2019
1629370443349,2033
1629370443353,2043
1629370443357,2050
1629370443361,2056
1629370443365,2059
1629370443369,2061
1629370443373,2062
1629370443377,2062
1629370443381,2063
1629370443385,2064
1629370443389,2064
1629370443393,2065
1629370443397,2065
1629370443401,2065
1629370443405,2066
1629370443409,2066
1629370443413,2067
1629370443417,2068
1629370443421,2069
1629370443425,2070
1629370443429,2070
1629370443433,2070
1629370443437,2070
1629370443441,2070
1629370443445,2071
1629370443449,2071
1629370443453,2073
1629370443457,2074
1629370443461,2075
1629370443465,2076
1629370443469,2077
1629370443473,2077
1629370443477,2077
1629370443481,2078
1629370443485,2080
1629370443489,2082
1629370443493,2085
1629370443497,2087
1629370443501,2089
1629370443505,2090
1629370443509,2091
1629370443513,2092
1629370443517,2094
1629370443521,2096
1629370443525,2098
1629370443529,2100
1629370443533,2102
1629370443537,2104
1629370443541,2105
1629370443545,2107
1629370443549,2108
1629370443553,2109
1629370443557,2110
1629370443561,2110
1629370443565,2109
1629370443569,2109
1629370443573,2108
1629370443577,2107
1629370443581,2105
1629370443585,2102
1629370443589,2098
1629370443593,2092
1629370443597,2086
1629370443601,2079
1629370443605,2073
1629370443609,2068
1629370443613,2064
1629370443617,2061
1629370443621,2058
1629370443625,2054
1629370443629,2051
1629370443633,2048
1629370443637,2046
1629370443641,2044
1629370443645,2043
1629370443649,2042
1629370443653,2041
1629370443657,2040
1629370443661,2039
1629370443665,2039
1629370443669,2038
1629370443673,2038
1629370443677,2038
1629370443681,2037
1629370443685,2037
1629370443689,2037
1629370443693,2037
1629370443697,2038
1629370443701,2038
1629370443705,2038
1629370443709,2038
1629370443713,2038
1629370443717,2037
1629370443721,2037
1629370443725,2037
1629370443729,2037
1629370443733,2038
1629370443737,2039
1629370443741,2039
1629370443745,2039
1629370443749,2039
1629370443753,2039
1629370443757,2039
1629370443761,2039
1629370443765,2039
1629370443769,2039
1629370443773,2040
1629370443777,2040
1629370443781,2041
1629370443785,2041
1629370443789,2040
1629370443793,2040
1629370443797,2040
1629370443801,2040
1629370443805,2040
1629370443809,2040
1629370443813,2040
1629370443817,2041
1629370443821,2041
1629370443825,2041
1629370443829,2040
1629370443833,2040
1629370443837,2040
1629370443841,2040
1629370443845,2039
1629370443849,2039
1629370443853,2040
1629370443857,2040
1629370443861,2041
1629370443865,2041
1629370443869,2041
1629370443873,2041
1629370443877,2041
1629370443881,2040
1629370443885,2040
1629370443889,2039
1629370443893,2040
1629370443897,2040
1629370443901,2041
1629370443905,2041
1629370443909,2040
1629370443913,2040
1629370443917,2039
1629370443921,2039
1629370443925,2039
1629370443929,2040
1629370443933,2040
1629370443937,2040
1629370443941,2040
1629370443945,2040
1629370443949,2040
1629370443953,2040
1629370443957,2040
1629370443961,2040
1629370443965,2040
1629370443969,2040
1629370443973,2041
1629370443977,2041
1629370443981,2041
1629370443985,2041
1629370443989,2041
1629370443993,2041
1629370443997,2041
1629370444001,2041
1629370444005,2041
1629370444009,2040
1629370444013,2040
1629370444017,2041
1629370444021,2041
1629370444025,2042
1629370444029,2042
1629370444033,2041
1629370444037,2041
1629370444041,2041
1629370444045,2041
1629370444049,2042
1629370444053,2043
1629370444057,2043
1629370444061,2043
1629370444065,2043
1629370444069,2043
1629370444073,2043
1629370444077,2042
1629370444081,2042
1629370444085,2042
1629370444089,2041
1629370444093,2042
1629370444097,2043
1629370444101,2044
1629370444105,2044
1629370444109,2044
1629370444113,2043
1629370444117,2043
1629370444121,2043
1629370444125,2043
1629370444129,2043
1629370444133,2044
1629370444137,2044
1629370444141,2044
1629370444145,2044
1629370444149,2044
1629370444153,2044
1629370444157,2044
1629370444161,2044
1629370444165,2044
1629370444169,2043
1629370444173,2044
1629370444177,2045
1629370444181,2045
1629370444185,2045
1629370444189,2045
1629370444193,2046
1629370444197,2046
1629370444201,2046
1629370444205,2046
1629370444209,2047
1629370444213,2048
1629370444217,2048
1629370444221,2048
1629370444225,2048
1629370444229,2047
1629370444233,2046
1629370444237,2044
1629370444241,2044
1629370444245,2045
1629370444249,2046
1629370444253,2047
1629370444257,2048
1629370444261,2048
1629370444265,2048
1629370444269,2047
1629370444273,2046
1629370444277,2045
1629370444281,2045
1629370444285,2045
1629370444289,2044
1629370444293,2044
1629370444297,2044
1629370444301,2044
1629370444305,2044
1629370444309,2044
1629370444313,2044
1629370444317,2043
1629370444321,2043
1629370444325,2043
1629370444329,2044
1629370444333,2044
1629370444337,2045
1629370444341,2045
1629370444345,2045
1629370444349,2045
1629370444353,2045
1629370444357,2045
1629370444361,2045
1629370444365,2045
1629370444369,2046
1629370444373,2048
1629370444377,2051
1629370444381,2056
1629370444385,2061
1629370444389,2067
1629370444393,2079
1629370444397,2097
1629370444401,2123
1629370444405,2154
1629370444409,2179
1629370444413,2185
1629370444417,2164
1629370444421,2115
1629370444425,2051
1629370444429,1993
1629370444433,1954
1629370444437,1942
1629370444441,1954
1629370444445,1977
1629370444449,2002
1629370444453,2021
1629370444457,2035
1629370444461,2045
1629370444465,2051
1629370444469,2056
1629370444473,2058
1629370444477,2059
1629370444481,2059
1629370444485,2060
1629370444489,2060
1629370444493,2061
1629370444497,2062
1629370444501,2063
1629370444505,2064
1629370444509,2064
1629370444513,2064
1629370444517,2064
1629370444521,2064
1629370444525,2064
1629370444529,2065
1629370444533,2066
1629370444537,2067
1629370444541,2067
1629370444545,2068
1629370444549,2069
1629370444553,2069
1629370444557,2070
1629370444561,2070
1629370444565,2071
1629370444569,2072
1629370444573,2073
1629370444577,2074
1629370444581,2075
1629370444585,2077
1629370444589,2078
1629370444593,2079
1629370444597,2080
1629370444601,2081
1629370444605,2083
1629370444609,2085
1629370444613,2086
1629370444617,2089
1629370444621,2091
1629370444625,2093
1629370444629,2095
1629370444633,2097
1629370444637,2098
1629370444641,2100
1629370444645,2101
1629370444649,2103
1629370444653,2105
1629370444657,2106
1629370444661,2107
1629370444665,2108
1629370444669,2108
1629370444673,2108
1629370444677,2107
1629370444681,2106
1629370444685,2104
1629370444689,2101
1629370444693,2097
1629370444697,2093
1629370444701,2088
1629370444705,2083
1629370444709,2077
1629370444713,2071
1629370444717,2065
1629370444721,2060
1629370444725,2056
1629370444729,2052
1629370444733,2049
1629370444737,2047
1629370444741,2045
1629370444745,2042
1629370444749,2041
1629370444753,2039
1629370444757,2038
1629370444761,2037
1629370444765,2036
1629370444769,2035
1629370444773,2035
1629370444777,2035
1629370444781,2035
1629370444785,2035
1629370444789,2035
1629370444793,2035
1629370444797,2034
1629370444801,2034
1629370444805,2034
1629370444809,2034
1629370444813,2035
1629370444817,2035
1629370444821,2035
1629370444825,2036
1629370444829,2036
1629370444833,2036
1629370444837,2037
1629370444841,2037
1629370444845,2036
1629370444849,2036
1629370444853,2036
1629370444857,2036
1629370444861,2036
1629370444865,2037
1629370444869,2038
1629370444873,2038
1629370444877,2038
1629370444881,2038
1629370444885,2038
1629370444889,2037
1629370444893,2038
1629370444897,2038
1629370444901,2039
1629370444905,2039
1629370444909,2039
1629370444913,2040
1629370444917,2039
1629370444921,2039
1629370444925,2039
1629370444929,2039
1629370444933,2039
1629370444937,2039
1629370444941,2040
1629370444945,2040
1629370444949,2040
1629370444953,2040
1629370444957,2040
1629370444961,2040
1629370444965,2040
1629370444969,2040
1629370444973,2040
1629370444977,2040
1629370444981,2040
1629370444985,2040
1629370444989,2040
1629370444993,2040
1629370444997,2040
1629370445001,2040
1629370445005,2040
1629370445009,2040
1629370445013,2040
1629370445017,2041
1629370445021,2041
1629370445025,2041
1629370445029,2041
1629370445033,2040
1629370445037,2040
1629370445041,2040
1629370445045,2040
1629370445049,2040
1629370445053,2040
1629370445057,2041
1629370445061,2041
1629370445065,2041
1629370445069,2041
1629370445073,2041
1629370445077,2040
1629370445081,2040
1629370445085,2041
1629370445089,2041
1629370445093,2041
1629370445097,2042
1629370445101,2042
1629370445105,2042
1629370445109,2042
1629370445113,2041
1629370445117,2041
1629370445121,2041
1629370445125,2041
1629370445129,2042
1629370445133,2042
1629370445137,2043
1629370445141,2043
1629370445145,2043
1629370445149,2043
1629370445153,2043
1629370445157,2043
1629370445161,2042
1629370445165,2042
1629370445169,2043
1629370445173,2043
1629370445177,2044
1629370445181,2045
1629370445185,2045
1629370445189,2044
1629370445193,2044
1629370445197,2043
1629370445201,2043
1629370445205,2044
1629370445209,2044
1629370445213,2044
1629370445217,2044
1629370445221,2044
1629370445225,2045
1629370445229,2045
1629370445233,2045
1629370445237,2044
1629370445241,2044
1629370445245,2044
1629370445249,2044
1629370445253,2044
1629370445257,2045
1629370445261,2045
1629370445265,2045
1629370445269,2045
1629370445273,2045
1629370445277,2045
1629370445281,2045
1629370445285,2044
1629370445289,2044
1629370445293,2045
1629370445297,2045
1629370445301,2046
1629370445305,2046
1629370445309,2046
1629370445313,2046
1629370445317,2045
1629370445321,2045
1629370445325,2046
1629370445329,2046
1629370445333,2047
1629370445337,2048
1629370445341,2048
1629370445345,2048
1629370445349,2047
1629370445353,2047
1629370445357,2047
1629370445361,2046
1629370445365,2046
1629370445369,2046
1629370445373,2046
1629370445377,2046
1629370445381,2047
1629370445385,2048
1629370445389,2048
1629370445393,2048
1629370445397,2048
1629370445401,2047
1629370445405,2046
1629370445409,2045
1629370445413,2045
1629370445417,2046
1629370445421,2046
1629370445425,2046
1629370445429,2046
1629370445433,2045
1629370445437,2044
1629370445441,2044
1629370445445,2044
1629370445449,2043
1629370445453,2044
1629370445457,2044
1629370445461,2044
1629370445465,2044
1629370445469,2045
1629370445473,2045
1629370445477,2045
1629370445481,2045
1629370445485,2045
1629370445489,2045
1629370445493,2045
1629370445497,2045
1629370445501,2046
1629370445505,2048
1629370445509,2051
1629370445513,2055
1629370445517,2059
1629370445521,2064
1629370445525,2075
1629370445529,2092
1629370445533,2118
1629370445537,2149
1629370445541,2177
1629370445545,2188
1629370445549,2171
1629370445553,2127
1629370445557,2065
1629370445561,2004
1629370445565,1960
1629370445569,1944
1629370445573,1953
1629370445577,1975
1629370445581,2001
1629370445585,2022
1629370445589,2035
1629370445593,2044
1629370445597,2050
1629370445601,2055
1629370445605,2057
1629370445609,2058
1629370445613,2059
1629370445617,2060
1629370445621,2061
1629370445625,2062
1629370445629,2062
1629370445633,2063
1629370445637,2062
1629370445641,2062
1629370445645,2063
1629370445649,2063
1629370445653,2064
1629370445657,2065
1629370445661,2066
1629370445665,2066
1629370445669,2066
1629370445673,2066
1629370445677,2067
1629370445681,2067
1629370445685,2067
1629370445689,2068
1629370445693,2069
1629370445697,2070
1629370445701,2072
1629370445705,2073
1629370445709,2074
1629370445713,2074
1629370445717,2075
1629370445721,2076
1629370445725,2077
1629370445729,2079
1629370445733,2081
1629370445737,2083
1629370445741,2084
1629370445745,2086
1629370445749,2088
1629370445753,2089
1629370445757,2091
1629370445761,2092
1629370445765,2094
1629370445769,2096
1629370445773,2098
1629370445777,2100
1629370445781,2102
1629370445785,2104
1629370445789,2105
1629370445793,2105
1629370445797,2106
1629370445801,2106
1629370445805,2107
1629370445809,2107
1629370445813,2106
1629370445817,2104
1629370445821,2102
1629370445825,2098
1629370445829,2093
1629370445833,2088
1629370445837,2083
1629370445841,2077
1629370445845,2072
1629370445849,2066
1629370445853,2062
1629370445857,2058
1629370445861,2054
1629370445865,2051
1629370445869,2048
1629370445873,2045
1629370445877,2042
1629370445881,2040
1629370445885,2039
1629370445889,2038
1629370445893,2038
1629370445897,2037
1629370445901,2036
1629370445905,2036
1629370445909,2035
1629370445913,2034
1629370445917,2034
1629370445921,2034
1629370445925,2034
1629370445929,2034
1629370445933,2035
1629370445937,2035
1629370445941,2035
1629370445945,2036
1629370445949,2035
1629370445953,2035
1629370445957,2035
1629370445961,2035
1629370445965,2035
1629370445969,2035
1629370445973,2036
1629370445977,2037
1629370445981,2038
1629370445985,2038
1629370445989,2038
1629370445993,2038
1629370445997,2037
1629370446001,2037
1629370446005,2037
1629370446009,2037
1629370446013,2038
1629370446017,2038
1629370446021,2038
1629370446025,2038
1629370446029,2039
1629370446033,2039
1629370446037,2039
1629370446041,2039
1629370446045,2039
1629370446049,2039
1629370446053,2039
1629370446057,2039
1629370446061,2040
1629370446065,2040
1629370446069,2040
1629370446073,2040
1629370446077,2039
1629370446081,2039
1629370446085,2039
1629370446089,2039
1629370446093,2040
1629370446097,2041
1629370446101,2041
1629370446105,2041
1629370446109,2040
1629370446113,2039
1629370446117,2039
1629370446121,2039
1629370446125,2040
1629370446129,2040
1629370446133,2040
1629370446137,2040
1629370446141,2040
1629370446145,2040
1629370446149,2040
1629370446153,2040
1629370446157,2040
1629370446161,2039
1629370446165,2039
1629370446169,2039
1629370446173,2039
1629370446177,2040
1629370446181,2040
1629370446185,2040
1629370446189,2041
1629370446193,2041
1629370446197,2040
1629370446201,2040
1629370446205,2040
1629370446209,2040
1629370446213,2041
1629370446217,2041
1629370446221,2042
1629370446225,2042
1629370446229,2041
1629370446233,2041
1629370446237,2041
1629370446241,2040
1629370446245,2040
1629370446249,2040
1629370446253,2041
1629370446257,2041
1629370446261,2042
1629370446265,2042
1629370446269,2042
1629370446273,2042
1629370446277,2042
1629370446281,2042
1629370446285,2042
1629370446289,2042
1629370446293,2043
1629370446297,2043
1629370446301,2043
1629370446305,2043
1629370446309,2043
1629370446313,2043
1629370446317,2043
1629370446321,2043
1629370446325,2043
1629370446329,2043
1629370446333,2043
1629370446337,2044
1629370446341,2044
1629370446345,2044
1629370446349,2044
1629370446353,2044
1629370446357,2043
1629370446361,2043
1629370446365,2043
1629370446369,2044
1629370446373,2044
1629370446377,2045
1629370446381,2046
1629370446385,2046
1629370446389,2045
1629370446393,2045
1629370446397,2044
1629370446401,2044
1629370446405,2045
1629370446409,2045
1629370446413,2046
1629370446417,2046
1629370446421,2046
1629370446425,2047
1629370446429,2047
1629370446433,2047
1629370446437,2046
1629370446441,2046
1629370446445,2046
1629370446449,2046
1629370446453,2046
1629370446457,2047
1629370446461,2048
1629370446465,2048
1629370446469,2048
1629370446473,2048
1629370446477,2048
1629370446481,2048
1629370446485,2048
1629370446489,2048
1629370446493,2048
1629370446497,2048
1629370446501,2048
1629370446505,2048
1629370446509,2047
1629370446513,2047
1629370446517,2047
1629370446521,2048
1629370446525,2048
1629370446529,2049
1629370446533,2049
1629370446537,2049
1629370446541,2048
1629370446545,2048
1629370446549,2048
1629370446553,2048
1629370446557,2047
1629370446561,2046
1629370446565,2045
1629370446569,2044
1629370446573,2045
1629370446577,2046
1629370446581,2046
1629370446585,2046
1629370446589,2046
1629370446593,2046
1629370446597,2045
1629370446601,2045
1629370446605,2045
1629370446609,2046
1629370446613,2046
1629370446617,2047
1629370446621,2048
1629370446625,2048
1629370446629,2048
1629370446633,2048
1629370446637,2048
1629370446641,2048
1629370446645,2051
1629370446649,2054
1629370446653,2059
1629370446657,2065
1629370446661,2077
1629370446665,2094
1629370446669,2119
1629370446673,2150
1629370446677,2177
1629370446681,2188
1629370446685,2173
1629370446689,2130
1629370446693,2068
1629370446697,2008
1629370446701,1964
1629370446705,1947
1629370446709,1954
1629370446713,1976
1629370446717,2001
1629370446721,2021
1629370446725,2035
1629370446729,2045
1629370446733,2052
1629370446737,2057
1629370446741,2060
1629370446745,2061
1629370446749,2062
1629370446753,2062
1629370446757,2062
1629370446761,2063
1629370446765,2063
1629370446769,2064
1629370446773,2065
1629370446777,2065
1629370446781,2066
1629370446785,2066
1629370446789,2067
1629370446793,2067
1629370446797,2067
1629370446801,2068
1629370446805,2068
1629370446809,2069
1629370446813,2069
1629370446817,2070
1629370446821,2071
1629370446825,2072
1629370446829,2073
1629370446833,2074
1629370446837,2074
1629370446841,2074
1629370446845,2075
1629370446849,2076
1629370446853,2077
1629370446857,2079
1629370446861,2081
1629370446865,2082
1629370446869,2084
1629370446873,2085
1629370446877,2087
1629370446881,2088
1629370446885,2090
1629370446889,2091
1629370446893,2094
1629370446897,2096
1629370446901,2099
1629370446905,2101
1629370446909,2102
1629370446913,2103
1629370446917,2103
1629370446921,2104
1629370446925,2106
1629370446929,2107
1629370446933,2108
1629370446937,2109
1629370446941,2110
1629370446945,2111
1629370446949,2110
1629370446953,2108
1629370446957,2105
1629370446961,2101
1629370446965,2096
1629370446969,2091
1629370446973,2086
1629370446977,2081
1629370446981,2076
1629370446985,2071
1629370446989,2066
1629370446993,2062
1629370446997,2057
1629370447001,2054
1629370447005,2050
1629370447009,2048
1629370447013,2046
1629370447017,2044
1629370447021,2043
1629370447025,2042
1629370447029,2041
1629370447033,2041
1629370447037,2040
1629370447041,2039
1629370447045,2039
1629370447049,2038
1629370447053,2038
1629370447057,2038
1629370447061,2038
1629370447065,2038
1629370447069,2038
1629370447073,2038
1629370447077,2038
1629370447081,2038
1629370447085,2038
1629370447089,2039
1629370447093,2039
1629370447097,2039
1629370447101,2040
1629370447105,2040
1629370447109,2040
1629370447113,2040
1629370447117,2040
1629370447121,2040
1629370447125,2040
1629370447129,2040
1629370447133,2041
1629370447137,2042
1629370447141,2042
1629370447145,2043
1629370447149,2042
1629370447153,2042
1629370447157,2041
1629370447161,2041
1629370447165,2041
1629370447169,2041
1629370447173,2042
1629370447177,2042
1629370447181,2043
1629370447185,2043
1629370447189,2043
1629370447193,2043
1629370447197,2042
1629370447201,2042
1629370447205,2042
1629370447209,2043
1629370447213,2044
1629370447217,2044
1629370447221,2044
1629370447225,2044
1629370447229,2044
1629370447233,2044
1629370447237,2043
1629370447241,2043
1629370447245,2043
1629370447249,2043
1629370447253,2044
1629370447257,2044
1629370447261,2044
1629370447265,2044
1629370447269,2044
1629370447273,2044
1629370447277,2043
1629370447281,2043
1629370447285,2043
1629370447289,2043
1629370447293,2043
1629370447297,2044
1629370447301,2044
1629370447305,2044
1629370447309,2044
1629370447313,2044
1629370447317,2043
1629370447321,2043
1629370447325,2043
1629370447329,2043
1629370447333,2043
1629370447337,2043
1629370447341,2044
1629370447345,2044
1629370447349,2044
1629370447353,2044
1629370447357,2043
1629370447361,2043
1629370447365,2043
1629370447369,2044
1629370447373,2045
1629370447377,2046
1629370447381,2046
1629370447385,2046
1629370447389,2045
1629370447393,2045
1629370447397,2044
1629370447401,2044
1629370447405,2045
1629370447409,2045
1629370447413,2045
1629370447417,2046
1629370447421,2046
1629370447425,2046
1629370447429,2046
1629370447433,2046
1629370447437,2046
1629370447441,2045
1629370447445,2046
1629370447449,2045
1629370447453,2046
1629370447457,2046
1629370447461,2046
1629370447465,2047
1629370447469,2047
1629370447473,2047
1629370447477,2047
1629370447481,2047
1629370447485,2047
1629370447489,2047
1629370447493,2047
1629370447497,2048
1629370447501,2047
1629370447505,2047
1629370447509,2047
1629370447513,2047
1629370447517,2047
1629370447521,2047
1629370447525,2048
1629370447529,2047
1629370447533,2048
1629370447537,2048
1629370447541,2048
1629370447545,2048
1629370447549,2048
1629370447553,2048
1629370447557,2048
1629370447561,2048
1629370447565,2048
1629370447569,2049
1629370447573,2050
1629370447577,2050
1629370447581,2050
1629370447585,2051
1629370447589,2050
1629370447593,2050
1629370447597,2049
1629370447601,2048
1629370447605,2048
1629370447609,2048
1629370447613,2049
1629370447617,2050
1629370447621,2051
1629370447625,2051
1629370447629,2050
1629370447633,2049
1629370447637,2048
1629370447641,2048
1629370447645,2048
1629370447649,2048
1629370447653,2048
1629370447657,2048
1629370447661,2047
1629370447665,2047
1629370447669,2046
1629370447673,2047
1629370447677,2046
1629370447681,2046
1629370447685,2046
1629370447689,2046
1629370447693,2047
1629370447697,2048
1629370447701,2048
1629370447705,2048
1629370447709,2048
1629370447713,2048
1629370447717,2048
1629370447721,2048
1629370447725,2047
1629370447729,2047
1629370447733,2048
1629370447737,2050
1629370447741,2055
1629370447745,2060
1629370447749,2065
1629370447753,2073
1629370447757,2086
1629370447761,2106
1629370447765,2135
1629370447769,2166
1629370447773,2187
1629370447777,2186
1629370447781,2156
1629370447785,2101
1629370447789,2037
1629370447793,1981
1629370447797,1950
1629370447801,1946
1629370447805,1961
1629370447809,1986
1629370447813,2010
1629370447817,2028
1629370447821,2040
1629370447825,2049
1629370447829,2056
1629370447833,2060
1629370447837,2061
1629370447841,2061
1629370447845,2061
1629370447849,2062
1629370447853,2064
1629370447857,2065
1629370447861,2066
1629370447865,2066
1629370447869,2066
1629370447873,2066
1629370447877,2066
1629370447881,2066
1629370447885,2067
1629370447889,2068
1629370447893,2068
1629370447897,2069
1629370447901,2070
1629370447905,2070
1629370447909,2070
1629370447913,2071
1629370447917,2071
1629370447921,2072
1629370447925,2072
1629370447929,2073
1629370447933,2074
1629370447937,2075
1629370447941,2076
1629370447945,2077
1629370447949,2079
1629370447953,2080
1629370447957,2081
1629370447961,2082
1629370447965,2084
1629370447969,2085
1629370447973,2087
1629370447977,2089
1629370447981,2091
1629370447985,2093
1629370447989,2095
1629370447993,2097
1629370447997,2099
1629370448001,2100
1629370448005,2102
1629370448009,2104
1629370448013,2105
1629370448017,2107
1629370448021,2108
1629370448025,2108
1629370448029,2109
1629370448033,2109
1629370448037,2109
1629370448041,2109
1629370448045,2107
1629370448049,2105
1629370448053,2102
1629370448057,2097
1629370448061,2093
1629370448065,2088
1629370448069,2082
1629370448073,2076
1629370448077,2071
1629370448081,2065
1629370448085,2060
1629370448089,2056
1629370448093,2053
1629370448097,2051
1629370448101,2049
1629370448105,2047
1629370448109,2045
1629370448113,2043
1629370448117,2041
1629370448121,2040
1629370448125,2039
1629370448129,2038
1629370448133,2038
1629370448137,2038
1629370448141,2037
1629370448145,2038
1629370448149,2038
1629370448153,2038
1629370448157,2038
1629370448161,2037
1629370448165,2037
1629370448169,2036
1629370448173,2036
1629370448177,2037
1629370448181,2037
1629370448185,2037
1629370448189,2038
1629370448193,2038
1629370448197,2038
1629370448201,2038
1629370448205,2038
1629370448209,2038
1629370448213,2038
1629370448217,2039
1629370448221,2040
1629370448225,2040
1629370448229,2040
1629370448233,2040
1629370448237,2039
1629370448241,2039
1629370448245,2039
1629370448249,2039
1629370448253,2039
