timestamp,green,ir,red
1629370423000,34360,199509,166880
1629370423010,34348,199481,166859
1629370423020,34359,199484,166868
1629370423030,34369,199513,166874
1629370423040,34362,199532,166879
1629370423050,34364,199526,166865
1629370423060,34365,199525,166867
1629370423070,34367,199525,166868
1629370423080,34368,199552,166871
1629370423090,34368,199546,166854
1629370423100,34376,199528,166868
1629370423110,34379,199544,166866
1629370423120,34376,199535,166849
1629370423130,34377,199559,166842
1629370423140,34373,199532,166859
1629370423150,34379,199556,166838
1629370423160,34380,199563,166831
1629370423170,34378,199561,166838
1629370423180,34385,199565,166830
1629370423190,34378,199566,166840
1629370423200,34381,199580,166816
1629370423210,34385,199597,166827
1629370423220,34381,199573,166835
1629370423230,34395,199590,166787
1629370423240,34396,199588,166797
1629370423250,34394,199600,166814
1629370423260,34395,199627,166801
1629370423270,34399,199625,166812
1629370423280,34396,199616,166809
1629370423290,34400,199630,166802
1629370423300,34398,199632,166797
1629370423310,34405,199618,166811
1629370423320,34401,199624,166798
1629370423330,34398,199631,166769
1629370423340,34378,199610,166742
1629370423350,34385,199583,166757
1629370423360,34378,199597,166745
1629370423370,34366,199579,166735
1629370423380,34366,199532,166714
1629370423390,34349,199561,166732
1629370423400,34339,199516,166724
1629370423410,34340,199515,166724
1629370423420,34325,199523,166702
1629370423430,34320,199495,166695
1629370423440,34310,199469,166703
1629370423450,34307,199462,166695
1629370423460,34297,199433,166689
1629370423470,34288,199422,166683
1629370423480,34284,199405,166683
1629370423490,34281,199430,166667
1629370423500,34263,199417,166664
1629370423510,34247,199377,166642
1629370423520,34241,199400,166654
1629370423530,34244,199383,166663
1629370423540,34237,199368,166650
1629370423550,34227,199377,166616
1629370423560,34217,199316,166620
1629370423570,34215,199336,166648
1629370423580,34206,199299,166633
1629370423590,34208,199299,166637
1629370423600,34206,199331,166628
1629370423610,34207,199349,166633
1629370423620,34207,199323,166641
1629370423630,34206,199329,166639
1629370423640,34198,199312,166635
1629370423650,34199,199308,166639
1629370423660,34204,199303,166632
1629370423670,34196,199362,166632
1629370423680,34199,199323,166642
1629370423690,34197,199320,166637
1629370423700,34201,199317,166641
1629370423710,34199,199343,166630
1629370423720,34198,199316,166648
1629370423730,34192,199327,166637
1629370423740,34201,199316,166645
1629370423750,34206,199364,166657
1629370423760,34205,199369,166671
1629370423770,34206,199351,166661
1629370423780,34205,199353,166665
1629370423790,34208,199380,166666
1629370423800,34216,199363,166685
1629370423810,34213,199368,166669
1629370423820,34218,199382,166686
1629370423830,34209,199366,166673
1629370423840,34213,199381,166676
1629370423850,34234,199408,166663
1629370423860,34225,199361,166653
1629370423870,34219,199399,166647
1629370423880,34222,199384,166659
1629370423890,34224,199400,166638
1629370423900,34228,199382,166638
1629370423910,34231,199407,166634
1629370423920,34230,199369,166656
1629370423930,34233,199381,166647
1629370423940,34233,199404,166645
1629370423950,34230,199398,166633
1629370423960,34238,199396,166626
1629370423970,34229,199390,166625
1629370423980,34244,199396,166611
1629370423990,34242,199404,166595
1629370424000,34247,199398,166619
1629370424010,34251,199416,166609
1629370424020,34246,199416,166617
1629370424030,34254,199420,166611
1629370424040,34252,199447,166611
1629370424050,34255,199415,166619
1629370424060,34260,199437,166613
1629370424070,34255,199433,166607
1629370424080,34258,199458,166583
1629370424090,34268,199447,166601
1629370424100,34277,199456,166603
1629370424110,34271,199470,166583
1629370424120,34271,199472,166596
1629370424130,34272,199462,166595
1629370424140,34283,199487,166595
1629370424150,34281,199491,166608
1629370424160,34287,199504,166586
1629370424170,34286,199511,166589
1629370424180,34285,199515,166588
1629370424190,34296,199556,166583
1629370424200,34294,199520,166588
1629370424210,34290,199523,166590
1629370424220,34296,199507,166583
1629370424230,34306,199556,166568
1629370424240,34305,199560,166569
1629370424250,34305,199560,166570
1629370424260,34310,199554,166556
1629370424270,34304,199574,166547
1629370424280,34296,199551,166537
1629370424290,34305,199538,166544
1629370424300,34286,199485,166534
1629370424310,34289,199500,166503
1629370424320,34276,199493,166491
1629370424330,34265,199484,166518
1629370424340,34264,199498,166511
1629370424350,34251,199463,166497
1629370424360,34241,199425,166500
1629370424370,34238,199457,166486
1629370424380,34233,199459,166462
1629370424390,34223,199430,166502
1629370424400,34220,199401,166498
1629370424410,34220,199445,166485
1629370424420,34208,199426,166469
1629370424430,34201,199411,166476
1629370424440,34190,199438,166478
1629370424450,34190,199403,166480
1629370424460,34187,199363,166487
1629370424470,34173,199370,166481
1629370424480,34159,199388,166472
1629370424490,34164,199362,166474
1629370424500,34149,199380,166476
1629370424510,34149,199375,166463
1629370424520,34138,199370,166461
1629370424530,34144,199357,166469
1629370424540,34132,199363,166473
1629370424550,34135,199343,166496
1629370424560,34132,199394,166495
1629370424570,34137,199355,166521
1629370424580,34133,199393,166501
1629370424590,34138,199392,166483
1629370424600,34128,199357,166525
1629370424610,34138,199379,166515
1629370424620,34113,199380,166500
1629370424630,34134,199385,166512
1629370424640,34121,199391,166518
1629370424650,34116,199385,166517
1629370424660,34117,199390,166512
1629370424670,34105,199417,166521
1629370424680,34120,199406,166526
1629370424690,34124,199427,166522
1629370424700,34122,199444,166529
1629370424710,34125,199435,166534
1629370424720,34124,199452,166537
1629370424730,34130,199474,166555
1629370424740,34124,199458,166569
1629370424750,34121,199503,166569
1629370424760,34130,199468,166568
1629370424770,34128,199502,166573
1629370424780,34133,199492,166558
1629370424790,34122,199493,166581
1629370424800,34130,199523,166589
1629370424810,34143,199540,166591
1629370424820,34145,199553,166606
1629370424830,34144,199566,166595
1629370424840,34145,199590,166586
1629370424850,34146,199610,166613
1629370424860,34152,199585,166613
1629370424870,34152,199625,166598
1629370424880,34155,199595,166633
1629370424890,34162,199619,166609
1629370424900,34168,199656,166641
1629370424910,34167,199672,166618
1629370424920,34172,199668,166653
1629370424930,34173,199661,166653
1629370424940,34181,199702,166666
1629370424950,34172,199725,166678
1629370424960,34185,199699,166645
1629370424970,34199,199721,166638
1629370424980,34176,199725,166643
1629370424990,34190,199701,166657
1629370425000,34197,199722,166643
1629370425010,34200,199710,166645
1629370425020,34203,199742,166648
1629370425030,34208,199737,166644
1629370425040,34210,199742,166652
1629370425050,34214,199753,166659
1629370425060,34214,199772,166630
1629370425070,34219,199741,166644
1629370425080,34219,199767,166636
1629370425090,34223,199770,166634
1629370425100,34232,199809,166635
1629370425110,34231,199823,166645
1629370425120,34235,199780,166633
1629370425130,34247,199816,166626
1629370425140,34242,199819,166631
1629370425150,34241,199797,166653
1629370425160,34247,199832,166645
1629370425170,34260,199852,166663
1629370425180,34255,199873,166664
1629370425190,34259,199874,166627
1629370425200,34266,199877,166635
1629370425210,34275,199899,166657
1629370425220,34273,199915,166652
1629370425230,34273,199898,166654
1629370425240,34282,199888,166626
1629370425250,34286,199919,166625
1629370425260,34287,199957,166656
1629370425270,34300,199932,166638
1629370425280,34297,199947,166616
1629370425290,34289,199908,166607
1629370425300,34265,199917,166606
1629370425310,34280,199884,166608
1629370425320,34266,199842,166565
1629370425330,34259,199822,166590
1629370425340,34241,199822,166546
1629370425350,34235,199796,166572
1629370425360,34235,199809,166553
1629370425370,34224,199818,166557
1629370425380,34213,199797,166560
1629370425390,34212,199771,166556
1629370425400,34204,199760,166542
1629370425410,34197,199749,166545
1629370425420,34196,199781,166534
1629370425430,34195,199744,166539
1629370425440,34195,199724,166545
1629370425450,34187,199726,166539
1629370425460,34167,199737,166533
1629370425470,34175,199693,166513
1629370425480,34158,199688,166520
1629370425490,34152,199704,166519
1629370425500,34138,199662,166529
1629370425510,34141,199694,166527
1629370425520,34131,199656,166528
1629370425530,34137,199652,166525
1629370425540,34123,199654,166545
1629370425550,34132,199681,166546
1629370425560,34128,199659,166527
1629370425570,34129,199680,166551
1629370425580,34139,199661,166528
1629370425590,34135,199684,166551
1629370425600,34146,199699,166535
1629370425610,34134,199666,166564
1629370425620,34136,199687,166545
1629370425630,34137,199670,166540
1629370425640,34151,199691,166559
1629370425650,34139,199662,166573
1629370425660,34135,199684,166546
1629370425670,34146,199686,166567
1629370425680,34141,199659,166562
1629370425690,34138,199703,166581
1629370425700,34143,199685,166592
1629370425710,34142,199701,166571
1629370425720,34143,199718,166566
1629370425730,34141,199694,166561
1629370425740,34153,199685,166576
1629370425750,34148,199723,166571
1629370425760,34149,199702,166568
1629370425770,34152,199720,166569
1629370425780,34150,199737,166580
1629370425790,34146,199723,166569
1629370425800,34144,199715,166577
1629370425810,34165,199762,166592
1629370425820,34171,199732,166594
1629370425830,34171,199770,166576
1629370425840,34176,199765,166586
1629370425850,34175,199724,166577
1629370425860,34183,199766,166596
1629370425870,34186,199785,166594
1629370425880,34186,199790,166598
1629370425890,34190,199768,166601
1629370425900,34190,199783,166595
1629370425910,34194,199787,166587
1629370425920,34190,199805,166599
1629370425930,34184,199779,166620
1629370425940,34205,199781,166601
1629370425950,34216,199810,166610
1629370425960,34207,199790,166603
1629370425970,34211,199831,166592
1629370425980,34221,199844,166605
1629370425990,34220,199810,166598
1629370426000,34220,199830,166589
1629370426010,34223,199833,166587
1629370426020,34234,199842,166579
1629370426030,34235,199839,166611
1629370426040,34234,199841,166598
1629370426050,34242,199852,166608
1629370426060,34237,199879,166605
1629370426070,34241,199865,166589
1629370426080,34251,199921,166591
1629370426090,34265,199903,166599
1629370426100,34261,199876,166603
1629370426110,34260,199898,166606
1629370426120,34263,199913,166590
1629370426130,34265,199897,166590
1629370426140,34269,199910,166580
1629370426150,34274,199931,166561
1629370426160,34287,199927,166579
1629370426170,34285,199952,166580
1629370426180,34289,199938,166580
1629370426190,34290,199928,166589
1629370426200,34297,199928,166580
1629370426210,34295,199929,166573
1629370426220,34299,199962,166574
1629370426230,34306,200003,166584
1629370426240,34306,199976,166580
1629370426250,34313,199987,166569
1629370426260,34311,199957,166570
1629370426270,34328,199984,166581
1629370426280,34323,199995,166580
1629370426290,34330,199985,166567
1629370426300,34329,200012,166554
1629370426310,34336,200005,166575
1629370426320,34335,200000,166557
1629370426330,34336,200012,166570
1629370426340,34335,199967,166543
1629370426350,34327,199978,166544
1629370426360,34321,199979,166528
1629370426370,34320,199960,166503
1629370426380,34306,199959,166498
1629370426390,34304,199906,166508
1629370426400,34293,199913,166513
1629370426410,34293,199894,166493
1629370426420,34296,199902,166515
1629370426430,34278,199907,166474
1629370426440,34280,199878,166465
1629370426450,34270,199848,166494
1629370426460,34269,199880,166494
1629370426470,34268,199837,166479
1629370426480,34264,199819,166472
1629370426490,34256,199826,166468
1629370426500,34250,199827,166494
1629370426510,34246,199802,166469
1629370426520,34246,199793,166467
1629370426530,34236,199765,166467
1629370426540,34234,199757,166460
1629370426550,34234,199750,166465
1629370426560,34230,199751,166464
1629370426570,34231,199750,166466
1629370426580,34225,199744,166451
1629370426590,34231,199760,166457
1629370426600,34221,199752,166479
1629370426610,34227,199809,166495
1629370426620,34228,199742,166484
1629370426630,34228,199760,166490
1629370426640,34230,199738,166483
1629370426650,34228,199763,166487
1629370426660,34233,199767,166476
1629370426670,34233,199774,166487
1629370426680,34229,199753,166476
1629370426690,34237,199749,166478
1629370426700,34230,199763,166506
1629370426710,34234,199760,166487
1629370426720,34237,199759,166500
1629370426730,34242,199782,166483
1629370426740,34240,199775,166491
1629370426750,34242,199744,166492
1629370426760,34250,199734,166497
1629370426770,34250,199745,166511
1629370426780,34251,199764,166488
1629370426790,34252,199785,166490
1629370426800,34258,199812,166499
1629370426810,34258,199792,166493
1629370426820,34258,199780,166491
1629370426830,34258,199797,166497
1629370426840,34268,199815,166499
1629370426850,34270,199815,166514
1629370426860,34273,199783,166499
1629370426870,34278,199799,166506
1629370426880,34274,199826,166521
1629370426890,34289,199831,166478
1629370426900,34266,199798,166509
1629370426910,34292,199827,166526
1629370426920,34285,199858,166514
1629370426930,34284,199812,166518
1629370426940,34296,199853,166515
1629370426950,34290,199833,166513
1629370426960,34298,199828,166524
1629370426970,34309,199831,166515
1629370426980,34306,199861,166501
1629370426990,34307,199887,166494
1629370427000,34314,199860,166500
1629370427010,34312,199852,166505
1629370427020,34316,199862,166488
1629370427030,34318,199864,166494
1629370427040,34317,199880,166484
1629370427050,34313,199868,166489
1629370427060,34331,199872,166491
1629370427070,34332,199906,166504
1629370427080,34336,199892,166486
1629370427090,34346,199887,166479
1629370427100,34344,199883,166484
1629370427110,34347,199887,166476
1629370427120,34352,199908,166472
1629370427130,34354,199897,166490
1629370427140,34354,199910,166474
1629370427150,34360,199917,166474
1629370427160,34361,199900,166457
1629370427170,34363,199902,166474
1629370427180,34372,199951,166464
1629370427190,34376,199906,166466
1629370427200,34379,199939,166456
1629370427210,34379,199953,166460
1629370427220,34378,199939,166447
1629370427230,34383,199947,166455
1629370427240,34379,199925,166444
1629370427250,34400,199992,166444
1629370427260,34392,199964,166446
1629370427270,34401,199968,166457
1629370427280,34409,199997,166437
1629370427290,34418,200008,166436
1629370427300,34417,200002,166452
1629370427310,34423,199995,166447
1629370427320,34423,199985,166444
1629370427330,34428,200023,166442
1629370427340,34428,199999,166425
1629370427350,34429,199986,166414
1629370427360,34421,200004,166410
1629370427370,34421,199990,166405
1629370427380,34408,200013,166383
1629370427390,34398,199977,166384
1629370427400,34400,199963,166383
1629370427410,34396,199926,166359
1629370427420,34393,199926,166392
1629370427430,34384,199905,166370
1629370427440,34384,199900,166362
1629370427450,34379,199906,166372
1629370427460,34378,199886,166391
1629370427470,34374,199858,166386
1629370427480,34359,199878,166370
1629370427490,34366,199875,166355
1629370427500,34359,199863,166366
1629370427510,34356,199843,166378
1629370427520,34357,199848,166376
1629370427530,34353,199812,166366
1629370427540,34346,199798,166366
1629370427550,34340,199833,166366
1629370427560,34344,199824,166376
1629370427570,34350,199803,166361
1629370427580,34336,199790,166370
1629370427590,34327,199798,166370
1629370427600,34329,199790,166379
1629370427610,34328,199779,166377
1629370427620,34331,199774,166363
1629370427630,34328,199764,166387
1629370427640,34328,199783,166385
1629370427650,34329,199778,166383
1629370427660,34326,199781,166380
1629370427670,34328,199754,166376
1629370427680,34326,199757,166365
1629370427690,34328,199757,166366
1629370427700,34322,199770,166373
1629370427710,34339,199779,166369
1629370427720,34332,199768,166359
1629370427730,34329,199702,166392
1629370427740,34324,199789,166371
1629370427750,34325,199724,166386
1629370427760,34327,199743,166377
1629370427770,34335,199739,166372
1629370427780,34337,199744,166367
1629370427790,34331,199743,166367
1629370427800,34333,199753,166369
1629370427810,34334,199736,166354
1629370427820,34334,199772,166356
1629370427830,34339,199732,166351
1629370427840,34338,199725,166352
1629370427850,34342,199734,166344
1629370427860,34345,199791,166357
1629370427870,34348,199740,166372
1629370427880,34345,199751,166360
1629370427890,34349,199740,166354
1629370427900,34363,199765,166353
1629370427910,34355,199774,166363
1629370427920,34359,199790,166364
1629370427930,34359,199779,166359
1629370427940,34361,199769,166354
1629370427950,34369,199778,166367
1629370427960,34369,199755,166343
1629370427970,34373,199771,166359
1629370427980,34372,199766,166363
1629370427990,34369,199772,166352
1629370428000,34377,199776,166356
1629370428010,34388,199809,166338
1629370428020,34384,199799,166325
1629370428030,34399,199792,166353
1629370428040,34395,199792,166341
1629370428050,34397,199806,166323
1629370428060,34394,199802,166349
1629370428070,34403,199817,166328
1629370428080,34397,199820,166327
1629370428090,34406,199824,166349
1629370428100,34410,199854,166351
1629370428110,34410,199831,166347
1629370428120,34413,199820,166351
1629370428130,34406,199867,166350
1629370428140,34422,199840,166333
1629370428150,34419,199834,166332
1629370428160,34419,199876,166344
1629370428170,34429,199866,166335
1629370428180,34429,199842,166337
1629370428190,34430,199895,166330
1629370428200,34435,199870,166327
1629370428210,34449,199875,166327
1629370428220,34441,199881,166360
1629370428230,34447,199887,166334
1629370428240,34448,199906,166344
1629370428250,34450,199896,166334
1629370428260,34461,199945,166339
1629370428270,34465,199910,166326
1629370428280,34465,199943,166351
1629370428290,34473,199972,166330
1629370428300,34471,199937,166336
1629370428310,34473,199975,166343
1629370428320,34477,199945,166335
1629370428330,34482,199964,166307
1629370428340,34480,199957,166305
1629370428350,34472,199930,166309
1629370428360,34479,199929,166308
1629370428370,34465,199881,166275
1629370428380,34466,199889,166256
1629370428390,34460,199853,166257
1629370428400,34452,199841,166256
1629370428410,34444,199835,166256
1629370428420,34440,199791,166224
1629370428430,34432,199792,166238
1629370428440,34421,199782,166219
1629370428450,34414,199770,166230
1629370428460,34415,199766,166216
1629370428470,34409,199762,166213
1629370428480,34403,199753,166199
1629370428490,34400,199733,166212
1629370428500,34396,199711,166216
1629370428510,34386,199724,166211
1629370428520,34376,199697,166205
1629370428530,34368,199685,166216
1629370428540,34365,199678,166212
1629370428550,34368,199652,166218
1629370428560,34355,199618,166185
1629370428570,34349,199665,166187
1629370428580,34343,199641,166183
1629370428590,34335,199589,166204
1629370428600,34340,199584,166197
1629370428610,34327,199609,166191
1629370428620,34330,199591,166200
1629370428630,34319,199605,166206
1629370428640,34329,199602,166201
1629370428650,34324,199613,166224
1629370428660,34318,199562,166222
1629370428670,34326,199557,166188
1629370428680,34322,199574,166213
1629370428690,34310,199533,166193
1629370428700,34307,199566,166198
1629370428710,34313,199562,166195
1629370428720,34306,199545,166207
1629370428730,34308,199522,166209
1629370428740,34298,199548,166193
1629370428750,34302,199555,166203
1629370428760,34306,199544,166192
1629370428770,34307,199537,166194
1629370428780,34299,199537,166182
1629370428790,34297,199544,166207
1629370428800,34301,199549,166215
1629370428810,34299,199516,166208
1629370428820,34304,199511,166191
1629370428830,34302,199536,166228
1629370428840,34312,199523,166222
1629370428850,34311,199544,166206
1629370428860,34309,199546,166214
1629370428870,34296,199548,166222
1629370428880,34306,199561,166203
1629370428890,34305,199538,166218
1629370428900,34302,199568,166233
1629370428910,34306,199570,166214
1629370428920,34304,199561,166210
1629370428930,34323,199545,166191
1629370428940,34300,199521,166227
1629370428950,34306,199556,166228
1629370428960,34309,199565,166219
1629370428970,34309,199552,166214
1629370428980,34308,199559,166209
1629370428990,34300,199582,166210
1629370429000,34307,199585,166204
1629370429010,34309,199609,166207
1629370429020,34316,199596,166202
1629370429030,34302,199564,166213
1629370429040,34317,199578,166199
1629370429050,34314,199599,166202
1629370429060,34322,199592,166203
1629370429070,34322,199604,166216
1629370429080,34319,199593,166200
1629370429090,34324,199607,166214
1629370429100,34322,199596,166223
1629370429110,34325,199588,166210
1629370429120,34329,199614,166218
1629370429130,34325,199599,166208
1629370429140,34332,199589,166192
1629370429150,34335,199612,166212
1629370429160,34327,199632,166187
1629370429170,34336,199625,166204
1629370429180,34348,199620,166232
1629370429190,34340,199625,166218
1629370429200,34346,199639,166217
1629370429210,34345,199630,166199
1629370429220,34344,199614,166188
1629370429230,34344,199615,166188
1629370429240,34346,199624,166177
1629370429250,34351,199630,166167
1629370429260,34349,199652,166181
1629370429270,34350,199661,166191
1629370429280,34350,199651,166200
1629370429290,34357,199646,166201
1629370429300,34355,199673,166175
1629370429310,34359,199639,166187
1629370429320,34372,199668,166177
1629370429330,34371,199658,166162
1629370429340,34373,199670,166143
1629370429350,34374,199670,166184
1629370429360,34361,199688,166168
1629370429370,34370,199694,166161
1629370429380,34382,199685,166185
1629370429390,34384,199681,166164
1629370429400,34379,199689,166172
1629370429410,34378,199697,166156
1629370429420,34381,199687,166169
1629370429430,34373,199659,166157
1629370429440,34366,199647,166154
1629370429450,34353,199649,166154
1629370429460,34348,199645,166163
1629370429470,34341,199646,166165
1629370429480,34333,199607,166158
1629370429490,34316,199589,166143
1629370429500,34312,199571,166112
1629370429510,34292,199529,166101
1629370429520,34282,199505,166073
1629370429530,34279,199468,166074
1629370429540,34259,199435,166059
1629370429550,34251,199445,166057
1629370429560,34246,199410,166027
1629370429570,34237,199414,166022
1629370429580,34227,199414,166042
1629370429590,34223,199419,166050
1629370429600,34216,199395,166032
1629370429610,34206,199368,166050
1629370429620,34193,199338,166044
1629370429630,34184,199347,166025
1629370429640,34175,199301,166021
1629370429650,34160,199258,165993
1629370429660,34151,199254,165956
1629370429670,34135,199221,165964
1629370429680,34141,199226,165961
1629370429690,34138,199238,165976
1629370429700,34134,199243,165974
1629370429710,34133,199239,165979
1629370429720,34130,199234,165984
1629370429730,34133,199198,165996
1629370429740,34125,199213,166005
1629370429750,34124,199217,165974
1629370429760,34110,199167,165982
1629370429770,34103,199175,165928
1629370429780,34100,199172,165932
1629370429790,34103,199156,165925
1629370429800,34095,199152,165951
1629370429810,34092,199181,165951
1629370429820,34089,199172,165977
1629370429830,34090,199178,165962
1629370429840,34100,199196,165961
1629370429850,34087,199176,165971
1629370429860,34093,199173,165960
1629370429870,34087,199154,165973
1629370429880,34087,199136,165975
1629370429890,34089,199118,165953
1629370429900,34078,199133,165951
1629370429910,34084,199143,165944
1629370429920,34077,199156,165956
1629370429930,34081,199125,165951
1629370429940,34084,199127,165949
1629370429950,34077,199142,165977
1629370429960,34080,199111,165958
1629370429970,34069,199126,165951
1629370429980,34079,199164,165974
1629370429990,34084,199162,165981
1629370430000,34084,199175,165997
1629370430010,34076,199194,165981
1629370430020,34089,199149,165980
1629370430030,34079,199171,165978
1629370430040,34084,199203,165995
1629370430050,34086,199213,166007
1629370430060,34092,199206,166004
1629370430070,34093,199195,166005
1629370430080,34092,199224,166009
1629370430090,34096,199260,166035
1629370430100,34102,199225,166028
1629370430110,34102,199257,166020
1629370430120,34104,199240,166056
1629370430130,34106,199258,166040
1629370430140,34093,199260,166062
1629370430150,34100,199274,166038
1629370430160,34091,199249,166032
1629370430170,34102,199252,166026
1629370430180,34100,199208,166030
1629370430190,34097,199220,165982
1629370430200,34097,199193,165986
1629370430210,34089,199195,165987
1629370430220,34080,199231,165942
1629370430230,34080,199179,165934
1629370430240,34076,199172,165944
1629370430250,34073,199190,165943
1629370430260,34081,199177,165948
1629370430270,34085,199186,165921
1629370430280,34083,199194,165945
1629370430290,34091,199201,165942
1629370430300,34091,199214,165949
1629370430310,34101,199222,165959
1629370430320,34102,199250,165958
1629370430330,34107,199223,165963
1629370430340,34102,199261,165980
1629370430350,34113,199279,165988
1629370430360,34117,199306,166000
1629370430370,34126,199284,165988
1629370430380,34132,199332,166019
1629370430390,34124,199305,165975
1629370430400,34126,199312,165990
1629370430410,34119,199287,165987
1629370430420,34116,199303,165963
1629370430430,34108,199236,165939
1629370430440,34092,199187,165909
1629370430450,34075,199168,165916
1629370430460,34059,199131,165904
1629370430470,34049,199131,165865
1629370430480,34043,199070,165857
1629370430490,34029,199064,165877
1629370430500,34023,199070,165864
1629370430510,34014,199055,165862
1629370430520,34005,199037,165858
1629370430530,33996,199018,165866
1629370430540,33984,198985,165849
1629370430550,33972,198967,165862
1629370430560,33970,198946,165839
1629370430570,33944,198925,165838
1629370430580,33940,198898,165845
1629370430590,33932,198880,165845
1629370430600,33917,198873,165828
1629370430610,33909,198853,165860
1629370430620,33893,198797,165832
1629370430630,33892,198798,165831
1629370430640,33873,198777,165852
1629370430650,33866,198765,165846
1629370430660,33854,198747,165805
1629370430670,33836,198695,165840
1629370430680,33839,198693,165815
1629370430690,33832,198701,165824
1629370430700,33833,198706,165824
1629370430710,33827,198678,165823
1629370430720,33828,198712,165826
1629370430730,33824,198682,165827
1629370430740,33822,198648,165818
1629370430750,33810,198706,165820
1629370430760,33806,198688,165814
1629370430770,33803,198644,165821
1629370430780,33795,198663,165818
1629370430790,33784,198644,165813
1629370430800,33785,198622,165826
1629370430810,33789,198647,165821
1629370430820,33791,198641,165839
1629370430830,33789,198630,165831
1629370430840,33790,198638,165833
1629370430850,33786,198620,165837
1629370430860,33776,198601,165843
1629370430870,33780,198614,165845
1629370430880,33782,198615,165853
1629370430890,33787,198611,165857
1629370430900,33781,198604,165862
1629370430910,33783,198614,165880
1629370430920,33786,198610,165869
1629370430930,33778,198637,165890
1629370430940,33789,198624,165886
1629370430950,33790,198620,165916
1629370430960,33784,198628,165890
1629370430970,33784,198596,165864
1629370430980,33788,198613,165878
1629370430990,33791,198618,165866
1629370431000,33782,198613,165887
1629370431010,33783,198596,165900
1629370431020,33777,198601,165892
1629370431030,33780,198606,165857
1629370431040,33774,198593,165885
1629370431050,33777,198576,165845
1629370431060,33774,198585,165854
1629370431070,33772,198584,165845
1629370431080,33765,198576,165828
1629370431090,33771,198558,165830
1629370431100,33761,198588,165821
1629370431110,33759,198582,165824
1629370431120,33770,198616,165828
1629370431130,33768,198623,165833
1629370431140,33771,198624,165827
1629370431150,33762,198601,165849
1629370431160,33781,198636,165862
1629370431170,33782,198653,165853
1629370431180,33783,198656,165852
1629370431190,33789,198632,165852
1629370431200,33780,198657,165893
1629370431210,33791,198683,165874
1629370431220,33793,198680,165887
1629370431230,33798,198697,165885
1629370431240,33806,198658,165883
1629370431250,33805,198701,165884
1629370431260,33808,198692,165892
1629370431270,33810,198669,165888
1629370431280,33811,198698,165865
1629370431290,33811,198711,165880
1629370431300,33816,198712,165872
1629370431310,33804,198665,165890
1629370431320,33812,198676,165872
1629370431330,33816,198716,165886
1629370431340,33826,198712,165885
1629370431350,33825,198749,165907
1629370431360,33832,198720,165907
1629370431370,33835,198735,165911
1629370431380,33838,198755,165911
1629370431390,33848,198756,165921
1629370431400,33855,198759,165922
1629370431410,33858,198766,165926
1629370431420,33857,198762,165918
1629370431430,33857,198818,165916
1629370431440,33856,198771,165910
1629370431450,33864,198754,165925
1629370431460,33849,198781,165905
1629370431470,33851,198760,165901
1629370431480,33841,198726,165876
1629370431490,33828,198721,165856
1629370431500,33815,198711,165863
1629370431510,33800,198649,165846
1629370431520,33779,198635,165837
1629370431530,33774,198615,165824
1629370431540,33763,198577,165815
1629370431550,33750,198547,165814
1629370431560,33745,198539,165809
1629370431570,33740,198521,165792
1629370431580,33726,198482,165819
1629370431590,33722,198492,165815
1629370431600,33710,198480,165803
1629370431610,33695,198450,165815
1629370431620,33680,198407,165820
1629370431630,33682,198418,165792
1629370431640,33673,198389,165810
1629370431650,33674,198379,165832
1629370431660,33661,198367,165818
1629370431670,33662,198372,165831
1629370431680,33653,198380,165841
1629370431690,33646,198375,165850
1629370431700,33645,198365,165842
1629370431710,33647,198331,165873
1629370431720,33638,198333,165876
1629370431730,33654,198357,165897
1629370431740,33643,198340,165900
1629370431750,33643,198313,165891
1629370431760,33630,198338,165904
1629370431770,33621,198324,165898
1629370431780,33618,198330,165899
1629370431790,33628,198327,165887
1629370431800,33614,198296,165907
1629370431810,33617,198306,165887
1629370431820,33621,198311,165910
1629370431830,33626,198294,165923
1629370431840,33624,198268,165941
1629370431850,33621,198310,165920
1629370431860,33622,198296,165929
1629370431870,33624,198287,165926
1629370431880,33617,198298,165941
1629370431890,33622,198332,165960
1629370431900,33625,198317,165953
1629370431910,33622,198321,165961
1629370431920,33627,198286,165963
1629370431930,33618,198304,165948
1629370431940,33622,198303,165935
1629370431950,33618,198295,165932
1629370431960,33613,198285,165946
1629370431970,33617,198261,165922
1629370431980,33616,198269,165929
1629370431990,33611,198262,165931
1629370432000,33616,198273,165904
1629370432010,33614,198270,165920
1629370432020,33615,198302,165927
1629370432030,33616,198266,165923
1629370432040,33621,198283,165950
1629370432050,33621,198284,165921
1629370432060,33634,198284,165922
1629370432070,33636,198295,165951
1629370432080,33635,198311,165932
1629370432090,33640,198327,165936
1629370432100,33653,198322,165947
1629370432110,33644,198311,165952
1629370432120,33647,198286,165941
1629370432130,33655,198270,165931
1629370432140,33659,198309,165945
1629370432150,33657,198336,165941
1629370432160,33661,198323,165965
1629370432170,33668,198342,165977
1629370432180,33669,198381,165983
1629370432190,33678,198350,165977
1629370432200,33681,198365,165992
1629370432210,33691,198380,166013
1629370432220,33692,198430,166007
1629370432230,33696,198404,166044
1629370432240,33703,198424,166035
1629370432250,33716,198420,166047
1629370432260,33713,198443,166041
1629370432270,33722,198464,166070
1629370432280,33729,198512,166093
1629370432290,33744,198438,166079
1629370432300,33743,198470,166093
1629370432310,33751,198459,166110
1629370432320,33755,198454,166114
1629370432330,33760,198509,166103
1629370432340,33764,198464,166116
1629370432350,33766,198479,166083
1629370432360,33768,198466,166115
1629370432370,33771,198475,166081
1629370432380,33771,198505,166099
1629370432390,33781,198477,166076
1629370432400,33785,198502,166093
1629370432410,33784,198520,166100
1629370432420,33804,198475,166088
1629370432430,33802,198494,166065
1629370432440,33809,198497,166072
1629370432450,33791,198464,166063
1629370432460,33802,198479,166040
1629370432470,33799,198487,166042
1629370432480,33803,198481,166049
1629370432490,33814,198449,166064
1629370432500,33812,198475,166067
1629370432510,33820,198461,166068
1629370432520,33817,198479,166040
1629370432530,33823,198459,166018
1629370432540,33812,198443,166035
1629370432550,33804,198421,166017
1629370432560,33798,198367,165985
1629370432570,33777,198384,165974
1629370432580,33788,198359,165978
1629370432590,33771,198321,165979
1629370432600,33761,198289,165985
1629370432610,33749,198255,165987
1629370432620,33749,198284,165961
1629370432630,33741,198222,165949
1629370432640,33737,198219,165960
1629370432650,33739,198234,165970
1629370432660,33739,198203,165966
1629370432670,33727,198205,165967
1629370432680,33719,198185,165963
1629370432690,33716,198172,165982
1629370432700,33715,198163,165973
1629370432710,33713,198140,165969
1629370432720,33707,198137,165993
1629370432730,33702,198097,166022
1629370432740,33699,198123,165986
1629370432750,33691,198109,166012
1629370432760,33696,198139,166054
1629370432770,33706,198136,166034
1629370432780,33693,198106,166066
1629370432790,33697,198106,166073
1629370432800,33697,198063,166066
1629370432810,33700,198078,166078
1629370432820,33700,198073,166070
1629370432830,33699,198047,166077
1629370432840,33689,198025,166053
1629370432850,33695,198002,166034
1629370432860,33690,198006,166037
1629370432870,33685,197999,166043
1629370432880,33685,197984,166036
1629370432890,33684,197995,166040
1629370432900,33691,197954,166036
1629370432910,33684,197993,166032
1629370432920,33678,197976,166056
1629370432930,33702,197957,166049
1629370432940,33697,197955,166054
1629370432950,33692,197974,166046
1629370432960,33694,197983,166063
1629370432970,33695,197986,166066
1629370432980,33708,197965,166052
1629370432990,33705,197924,166028
1629370433000,33704,197955,166052
1629370433010,33703,197923,166044
1629370433020,33707,197967,166052
1629370433030,33706,197947,166063
1629370433040,33710,197885,166059
1629370433050,33710,197922,166043
1629370433060,33705,197933,166057
1629370433070,33709,197927,166061
1629370433080,33704,197920,166063
1629370433090,33732,197926,166058
1629370433100,33722,197945,166049
1629370433110,33723,197949,166044
1629370433120,33725,197927,166042
1629370433130,33727,197924,166024
1629370433140,33729,197933,166052
1629370433150,33736,197928,166049
1629370433160,33749,197933,166049
1629370433170,33742,197950,166029
1629370433180,33746,197946,166044
1629370433190,33751,197947,166044
1629370433200,33752,197928,166038
1629370433210,33753,197924,166029
1629370433220,33754,197929,166024
1629370433230,33750,197956,166024
1629370433240,33771,197941,166040
1629370433250,33770,197949,166027
1629370433260,33782,197952,166044
1629370433270,33784,197950,166048
1629370433280,33784,197940,166047
1629370433290,33797,197943,166039
1629370433300,33793,197966,166050
1629370433310,33792,197940,166036
1629370433320,33807,197989,166039
1629370433330,33807,197996,166041
1629370433340,33804,197960,166048
1629370433350,33812,197960,166040
1629370433360,33815,197983,166042
1629370433370,33820,197997,166023
1629370433380,33812,197988,166045
1629370433390,33829,197976,166052
1629370433400,33829,198013,166066
1629370433410,33840,197995,166028
1629370433420,33838,198016,166063
1629370433430,33844,198006,166046
1629370433440,33851,198037,166045
1629370433450,33863,198025,166046
1629370433460,33863,198068,166055
1629370433470,33872,198019,166035
1629370433480,33877,198084,166072
1629370433490,33883,198081,166072
1629370433500,33892,198046,166085
1629370433510,33898,198090,166077
1629370433520,33903,198136,166081
1629370433530,33914,198098,166090
1629370433540,33917,198106,166115
1629370433550,33918,198127,166084
1629370433560,33923,198134,166117
1629370433570,33946,198145,166098
1629370433580,33937,198183,166110
1629370433590,33941,198196,166096
1629370433600,33947,198189,166133
1629370433610,33949,198189,166113
1629370433620,33953,198162,166101
1629370433630,33947,198166,166086
1629370433640,33946,198172,166099
1629370433650,33933,198137,166070
1629370433660,33934,198100,166051
1629370433670,33926,198080,166045
1629370433680,33922,198042,166035
1629370433690,33911,198038,166048
1629370433700,33909,198038,166042
1629370433710,33902,198024,166045
1629370433720,33891,197990,166035
1629370433730,33894,197977,166033
1629370433740,33885,197953,165992
1629370433750,33880,197940,165976
1629370433760,33869,197905,165986
1629370433770,33865,197902,165972
1629370433780,33852,197805,165931
1629370433790,33837,197757,165905
1629370433800,33820,197710,165843
1629370433810,33801,197672,165820
1629370433820,33792,197617,165776
1629370433830,33786,197602,165744
1629370433840,33773,197532,165700
1629370433850,33760,197471,165672
1629370433860,33750,197465,165665
1629370433870,33755,197419,165679
1629370433880,33748,197434,165637
1629370433890,33741,197442,165617
1629370433900,33753,197455,165641
1629370433910,33775,197434,165682
1629370433920,33783,197475,165702
1629370433930,33784,197501,165726
1629370433940,33788,197524,165743
1629370433950,33790,197501,165735
1629370433960,33789,197509,165748
1629370433970,33794,197534,165758
1629370433980,33791,197527,165767
1629370433990,33785,197494,165753
1629370434000,33794,197518,165774
1629370434010,33797,197523,165797
1629370434020,33804,197545,165821
1629370434030,33801,197512,165787
1629370434040,33811,197585,165800
1629370434050,33819,197576,165842
1629370434060,33824,197592,165829
1629370434070,33837,197572,165847
1629370434080,33848,197603,165879
1629370434090,33855,197627,165899
1629370434100,33865,197683,165940
1629370434110,33874,197693,165955
1629370434120,33882,197730,165981
1629370434130,33890,197762,165985
1629370434140,33898,197785,166006
1629370434150,33903,197760,166028
1629370434160,33907,197788,166027
1629370434170,33918,197783,166053
1629370434180,33925,197785,166055
1629370434190,33934,197826,166089
1629370434200,33943,197846,166078
1629370434210,33944,197862,166092
1629370434220,33949,197871,166103
1629370434230,33964,197908,166098
1629370434240,33967,197921,166140
1629370434250,33976,197934,166161
1629370434260,33993,197974,166188
1629370434270,33999,197997,166193
1629370434280,34011,198002,166220
1629370434290,34015,198028,166221
1629370434300,34024,198035,166240
1629370434310,34030,198032,166272
1629370434320,34041,198095,166301
1629370434330,34051,198108,166326
1629370434340,34065,198174,166363
1629370434350,34078,198125,166383
1629370434360,34092,198193,166406
1629370434370,34092,198235,166398
1629370434380,34096,198216,166413
1629370434390,34096,198208,166417
1629370434400,34116,198272,166436
1629370434410,34127,198247,166461
1629370434420,34132,198304,166500
1629370434430,34139,198367,166513
1629370434440,34149,198375,166552
1629370434450,34157,198400,166591
1629370434460,34165,198410,166577
1629370434470,34172,198390,166604
1629370434480,34176,198414,166605
1629370434490,34177,198416,166633
1629370434500,34190,198461,166637
1629370434510,34190,198467,166640
1629370434520,34209,198475,166654
1629370434530,34184,198446,166637
1629370434540,34199,198428,166596
1629370434550,34211,198428,166634
1629370434560,34209,198444,166611
1629370434570,34212,198460,166652
1629370434580,34219,198490,166668
1629370434590,34218,198493,166673
1629370434600,34228,198538,166701
1629370434610,34239,198579,166734
1629370434620,34239,198568,166745
1629370434630,34257,198575,166759
1629370434640,34255,198598,166769
1629370434650,34260,198591,166786
1629370434660,34273,198641,166784
1629370434670,34278,198628,166807
1629370434680,34295,198652,166805
1629370434690,34280,198671,166839
1629370434700,34283,198648,166856
1629370434710,34296,198669,166856
1629370434720,34283,198656,166870
1629370434730,34282,198683,166883
1629370434740,34279,198627,166884
1629370434750,34269,198601,166884
1629370434760,34260,198616,166880
1629370434770,34253,198554,166902
1629370434780,34240,198569,166872
1629370434790,34245,198525,166873
1629370434800,34232,198538,166903
1629370434810,34227,198513,166896
1629370434820,34218,198532,166916
1629370434830,34225,198493,166907
1629370434840,34206,198532,166925
1629370434850,34214,198518,166961
1629370434860,34206,198495,166981
1629370434870,34196,198481,166966
1629370434880,34205,198492,166985
1629370434890,34182,198431,167008
1629370434900,34177,198449,166979
1629370434910,34161,198413,166977
1629370434920,34161,198373,166951
1629370434930,34148,198330,166957
1629370434940,34142,198329,166962
1629370434950,34136,198335,166956
1629370434960,34134,198296,166950
1629370434970,34127,198328,166986
1629370434980,34133,198306,166976
1629370434990,34127,198295,166983
1629370435000,34127,198289,166966
1629370435010,34134,198277,166987
1629370435020,34111,198280,166991
1629370435030,34114,198276,166983
1629370435040,34105,198282,166980
1629370435050,34108,198262,166965
1629370435060,34105,198238,166965
1629370435070,34104,198214,166968
1629370435080,34099,198213,166970
1629370435090,34097,198221,166969
1629370435100,34093,198205,166966
1629370435110,34094,198202,166963
1629370435120,34093,198207,166979
1629370435130,34087,198155,166961
1629370435140,34084,198204,166970
1629370435150,34086,198180,166974
1629370435160,34088,198171,166973
1629370435170,34092,198169,166983
1629370435180,34085,198202,167000
1629370435190,34091,198213,166992
1629370435200,34104,198242,167057
1629370435210,34113,198249,167082
1629370435220,34114,198284,167111
1629370435230,34124,198308,167133
1629370435240,34122,198302,167144
1629370435250,34129,198281,167130
1629370435260,34126,198289,167147
1629370435270,34128,198276,167148
1629370435280,34130,198256,167167
1629370435290,34127,198273,167144
1629370435300,34134,198297,167148
1629370435310,34135,198253,167162
1629370435320,34143,198299,167175
1629370435330,34142,198299,167183
1629370435340,34156,198296,167211
1629370435350,34163,198308,167221
1629370435360,34152,198285,167248
1629370435370,34168,198287,167220
1629370435380,34162,198286,167225
1629370435390,34163,198241,167222
1629370435400,34164,198274,167194
1629370435410,34156,198246,167209
1629370435420,34170,198283,167236
1629370435430,34169,198287,167237
1629370435440,34172,198277,167248
1629370435450,34177,198276,167247
1629370435460,34178,198301,167230
1629370435470,34179,198270,167231
1629370435480,34186,198287,167221
1629370435490,34193,198266,167232
1629370435500,34182,198288,167226
1629370435510,34193,198282,167221
1629370435520,34187,198281,167257
1629370435530,34195,198260,167247
1629370435540,34198,198280,167256
1629370435550,34196,198274,167252
1629370435560,34206,198298,167227
1629370435570,34209,198316,167262
1629370435580,34203,198297,167255
1629370435590,34213,198310,167252
1629370435600,34213,198340,167275
1629370435610,34218,198309,167281
1629370435620,34222,198295,167300
1629370435630,34224,198333,167283
1629370435640,34221,198330,167287
1629370435650,34232,198349,167312
1629370435660,34224,198351,167300
1629370435670,34219,198334,167281
1629370435680,34227,198371,167295
1629370435690,34239,198369,167302
1629370435700,34234,198375,167313
1629370435710,34239,198344,167320
1629370435720,34240,198389,167310
1629370435730,34230,198395,167318
1629370435740,34241,198368,167320
1629370435750,34237,198354,167299
1629370435760,34227,198351,167308
1629370435770,34216,198314,167261
1629370435780,34209,198356,167290
1629370435790,34189,198320,167263
1629370435800,34183,198299,167270
1629370435810,34176,198261,167262
1629370435820,34168,198226,167225
1629370435830,34160,198245,167239
1629370435840,34147,198203,167254
1629370435850,34137,198224,167271
1629370435860,34124,198194,167266
1629370435870,34121,198166,167235
1629370435880,34111,198181,167245
1629370435890,34086,198178,167229
1629370435900,34081,198101,167223
1629370435910,34061,198124,167238
1629370435920,34052,198068,167237
1629370435930,34037,198082,167220
1629370435940,34022,198026,167229
1629370435950,34014,198058,167212
1629370435960,33998,198017,167207
1629370435970,33996,197987,167220
1629370435980,33984,197960,167193
1629370435990,33974,197963,167199
1629370436000,33962,197930,167216
1629370436010,33960,197941,167210
1629370436020,33955,197911,167224
1629370436030,33945,197949,167214
1629370436040,33949,197928,167230
1629370436050,33942,197898,167227
1629370436060,33929,197904,167228
1629370436070,33931,197908,167217
1629370436080,33920,197892,167241
1629370436090,33920,197885,167231
1629370436100,33915,197872,167219
1629370436110,33914,197886,167257
1629370436120,33908,197871,167265
1629370436130,33905,197847,167264
1629370436140,33902,197887,167245
1629370436150,33895,197847,167253
1629370436160,33888,197875,167270
1629370436170,33908,197848,167285
1629370436180,33893,197855,167286
1629370436190,33890,197882,167284
1629370436200,33887,197856,167272
1629370436210,33891,197840,167277
1629370436220,33889,197875,167267
1629370436230,33885,197835,167271
1629370436240,33885,197866,167279
1629370436250,33880,197858,167280
1629370436260,33876,197841,167298
1629370436270,33881,197883,167287
1629370436280,33881,197873,167284
1629370436290,33882,197887,167285
1629370436300,33879,197874,167316
1629370436310,33877,197886,167321
1629370436320,33875,197885,167334
1629370436330,33886,197890,167342
1629370436340,33881,197858,167326
1629370436350,33883,197881,167309
1629370436360,33880,197871,167313
1629370436370,33876,197877,167289
1629370436380,33877,197892,167296
1629370436390,33880,197897,167301
1629370436400,33884,197909,167321
1629370436410,33887,197947,167348
1629370436420,33885,197944,167341
1629370436430,33891,197956,167358
1629370436440,33896,197953,167371
1629370436450,33904,197968,167381
1629370436460,33907,198021,167382
1629370436470,33904,198014,167389
1629370436480,33922,198067,167380
1629370436490,33911,198026,167412
1629370436500,33927,198034,167437
1629370436510,33912,198040,167423
1629370436520,33926,198062,167424
1629370436530,33933,198098,167439
1629370436540,33935,198093,167446
1629370436550,33942,198097,167469
1629370436560,33942,198104,167477
1629370436570,33945,198105,167478
1629370436580,33950,198116,167486
1629370436590,33961,198142,167510
1629370436600,33966,198156,167496
1629370436610,33968,198161,167513
1629370436620,33967,198180,167518
1629370436630,33974,198151,167509
1629370436640,33974,198193,167527
1629370436650,33983,198199,167527
1629370436660,33987,198217,167531
1629370436670,34000,198200,167513
1629370436680,33996,198207,167513
1629370436690,33988,198242,167519
1629370436700,33992,198227,167498
1629370436710,34002,198239,167511
1629370436720,33999,198258,167516
1629370436730,34003,198247,167484
1629370436740,34002,198235,167499
1629370436750,34006,198253,167499
1629370436760,34011,198285,167530
1629370436770,34010,198267,167504
1629370436780,34010,198251,167501
1629370436790,34004,198291,167480
1629370436800,34008,198204,167493
1629370436810,33995,198231,167455
1629370436820,33993,198183,167439
1629370436830,33975,198175,167444
1629370436840,33970,198144,167427
1629370436850,33948,198086,167436
1629370436860,33935,198116,167409
1629370436870,33930,198105,167433
1629370436880,33921,198102,167396
1629370436890,33908,198060,167420
1629370436900,33904,198043,167395
1629370436910,33892,198043,167397
1629370436920,33882,198027,167417
1629370436930,33886,197993,167404
1629370436940,33866,197984,167388
1629370436950,33862,198002,167384
1629370436960,33845,197974,167390
1629370436970,33838,197928,167399
1629370436980,33823,197904,167382
1629370436990,33817,197911,167362
1629370437000,33815,197876,167377
1629370437010,33804,197870,167383
1629370437020,33795,197846,167375
1629370437030,33785,197832,167360
1629370437040,33788,197860,167377
1629370437050,33782,197850,167383
1629370437060,33781,197822,167375
1629370437070,33783,197826,167378
1629370437080,33777,197829,167391
1629370437090,33778,197782,167377
1629370437100,33773,197812,167382
1629370437110,33764,197807,167357
1629370437120,33771,197801,167361
1629370437130,33760,197795,167368
1629370437140,33760,197781,167399
1629370437150,33748,197774,167383
1629370437160,33749,197781,167375
1629370437170,33747,197824,167386
1629370437180,33749,197794,167392
1629370437190,33747,197788,167400
1629370437200,33747,197776,167388
1629370437210,33744,197774,167401
1629370437220,33739,197794,167401
1629370437230,33741,197768,167412
1629370437240,33737,197799,167415
1629370437250,33741,197797,167419
1629370437260,33740,197799,167411
1629370437270,33740,197803,167402
1629370437280,33741,197815,167430
1629370437290,33736,197799,167436
1629370437300,33758,197830,167459
1629370437310,33745,197823,167454
1629370437320,33748,197814,167432
1629370437330,33741,197818,167428
1629370437340,33754,197814,167436
1629370437350,33750,197818,167437
1629370437360,33742,197826,167449
1629370437370,33746,197829,167437
1629370437380,33747,197853,167455
1629370437390,33751,197823,167462
1629370437400,33755,197835,167444
1629370437410,33758,197839,167461
1629370437420,33750,197863,167454
1629370437430,33756,197816,167427
1629370437440,33756,197842,167463
1629370437450,33760,197854,167459
1629370437460,33756,197841,167469
1629370437470,33756,197863,167432
1629370437480,33763,197863,167446
1629370437490,33752,197854,167440
1629370437500,33758,197870,167431
1629370437510,33753,197858,167440
1629370437520,33762,197842,167436
1629370437530,33764,197881,167425
1629370437540,33767,197850,167434
1629370437550,33757,197878,167452
1629370437560,33766,197875,167423
1629370437570,33761,197882,167432
1629370437580,33761,197886,167425
1629370437590,33769,197887,167410
1629370437600,33762,197912,167402
1629370437610,33763,197886,167431
1629370437620,33766,197900,167396
1629370437630,33775,197894,167417
1629370437640,33768,197875,167409
1629370437650,33777,197872,167422
1629370437660,33775,197892,167423
1629370437670,33783,197931,167407
1629370437680,33786,197931,167426
1629370437690,33783,197886,167408
1629370437700,33785,197928,167413
1629370437710,33794,197917,167387
1629370437720,33791,197910,167400
1629370437730,33788,197931,167398
1629370437740,33802,197952,167401
1629370437750,33805,197943,167384
1629370437760,33797,197932,167381
1629370437770,33796,197945,167384
1629370437780,33802,197932,167360
1629370437790,33783,197926,167333
1629370437800,33777,197885,167354
1629370437810,33775,197871,167334
1629370437820,33763,197873,167319
1629370437830,33758,197855,167314
1629370437840,33747,197832,167298
1629370437850,33733,197812,167300
1629370437860,33727,197805,167298
1629370437870,33725,197794,167306
1629370437880,33712,197770,167290
1629370437890,33705,197777,167297
1629370437900,33703,197717,167294
1629370437910,33695,197739,167290
1629370437920,33689,197720,167287
1629370437930,33668,197725,167278
1629370437940,33675,197687,167270
1629370437950,33660,197677,167271
1629370437960,33662,197668,167265
1629370437970,33663,197661,167259
1629370437980,33642,197643,167241
1629370437990,33635,197647,167270
1629370438000,33631,197600,167269
1629370438010,33634,197599,167248
1629370438020,33625,197619,167270
1629370438030,33631,197605,167273
1629370438040,33628,197614,167284
1629370438050,33624,197607,167277
1629370438060,33632,197606,167287
1629370438070,33628,197615,167297
1629370438080,33631,197636,167297
1629370438090,33636,197620,167300
1629370438100,33615,197607,167291
1629370438110,33621,197611,167296
1629370438120,33630,197608,167280
1629370438130,33630,197601,167288
1629370438140,33627,197648,167284
1629370438150,33637,197615,167310
1629370438160,33630,197597,167301
1629370438170,33632,197600,167298
1629370438180,33638,197594,167319
1629370438190,33634,197598,167294
1629370438200,33632,197604,167307
1629370438210,33638,197608,167304
1629370438220,33639,197610,167315
1629370438230,33648,197591,167303
1629370438240,33648,197608,167310
1629370438250,33646,197656,167292
1629370438260,33643,197607,167336
1629370438270,33655,197611,167310
1629370438280,33667,197649,167328
1629370438290,33658,197665,167323
1629370438300,33673,197632,167341
1629370438310,33673,197639,167343
1629370438320,33668,197667,167337
1629370438330,33679,197636,167333
1629370438340,33682,197655,167333
1629370438350,33683,197680,167356
1629370438360,33689,197657,167361
1629370438370,33692,197684,167372
1629370438380,33697,197707,167369
1629370438390,33704,197688,167386
1629370438400,33702,197717,167368
1629370438410,33708,197721,167366
1629370438420,33708,197721,167368
1629370438430,33728,197716,167376
1629370438440,33722,197701,167373
1629370438450,33726,197723,167363
1629370438460,33731,197758,167386
1629370438470,33736,197734,167381
1629370438480,33743,197748,167379
1629370438490,33741,197766,167383
1629370438500,33742,197780,167411
1629370438510,33741,197793,167377
1629370438520,33757,197786,167390
1629370438530,33750,197795,167387
1629370438540,33763,197806,167375
1629370438550,33765,197827,167373
1629370438560,33770,197801,167376
1629370438570,33763,197820,167399
1629370438580,33776,197846,167388
1629370438590,33787,197865,167389
1629370438600,33799,197851,167410
1629370438610,33804,197862,167388
1629370438620,33805,197872,167381
1629370438630,33800,197857,167378
1629370438640,33812,197862,167405
1629370438650,33811,197872,167394
1629370438660,33822,197912,167400
1629370438670,33817,197883,167403
1629370438680,33824,197917,167405
1629370438690,33831,197932,167411
1629370438700,33834,197936,167413
1629370438710,33834,197937,167388
1629370438720,33842,197966,167384
1629370438730,33843,197948,167403
1629370438740,33852,197963,167389
1629370438750,33858,197981,167392
1629370438760,33861,197967,167416
1629370438770,33853,197975,167414
1629370438780,33874,198006,167402
1629370438790,33874,198009,167398
1629370438800,33879,198006,167405
1629370438810,33882,197996,167401
1629370438820,33886,198009,167397
1629370438830,33880,198011,167399
1629370438840,33888,198007,167363
1629370438850,33883,197989,167346
1629370438860,33867,197971,167357
1629370438870,33869,197983,167355
1629370438880,33852,197919,167340
1629370438890,33855,197918,167349
1629370438900,33849,197928,167325
1629370438910,33853,197912,167346
1629370438920,33841,197894,167329
1629370438930,33835,197869,167321
1629370438940,33824,197890,167324
1629370438950,33844,197863,167314
1629370438960,33838,197887,167334
1629370438970,33830,197877,167322
1629370438980,33822,197854,167343
1629370438990,33810,197875,167314
1629370439000,33815,197828,167304
1629370439010,33815,197821,167323
1629370439020,33807,197817,167312
1629370439030,33801,197835,167304
1629370439040,33799,197798,167297
1629370439050,33794,197797,167324
1629370439060,33786,197771,167302
1629370439070,33799,197788,167305
1629370439080,33790,197805,167329
1629370439090,33798,197814,167319
1629370439100,33798,197781,167327
1629370439110,33794,197806,167339
1629370439120,33801,197838,167341
1629370439130,33810,197823,167327
1629370439140,33810,197798,167333
1629370439150,33806,197816,167333
1629370439160,33805,197796,167349
1629370439170,33808,197789,167334
1629370439180,33811,197791,167332
1629370439190,33807,197815,167346
1629370439200,33811,197821,167370
1629370439210,33810,197812,167354
1629370439220,33814,197809,167348
1629370439230,33825,197827,167332
1629370439240,33816,197817,167350
1629370439250,33823,197830,167349
1629370439260,33829,197828,167334
1629370439270,33833,197850,167357
1629370439280,33839,197834,167333
1629370439290,33835,197826,167370
1629370439300,33841,197846,167356
1629370439310,33840,197875,167366
1629370439320,33843,197865,167347
1629370439330,33849,197849,167365
1629370439340,33854,197848,167371
1629370439350,33856,197858,167378
1629370439360,33859,197879,167364
1629370439370,33866,197893,167375
1629370439380,33869,197922,167355
1629370439390,33861,197877,167375
1629370439400,33879,197900,167364
1629370439410,33873,197897,167375
1629370439420,33883,197937,167374
1629370439430,33885,197927,167365
1629370439440,33889,197943,167375
1629370439450,33890,197966,167377
1629370439460,33898,197924,167357
1629370439470,33903,197950,167366
1629370439480,33899,197945,167365
1629370439490,33911,197962,167389
1629370439500,33913,197948,167369
1629370439510,33914,197951,167382
1629370439520,33918,197990,167378
1629370439530,33928,197996,167374
1629370439540,33934,197959,167380
1629370439550,33943,197989,167368
1629370439560,33942,198004,167354
1629370439570,33943,197995,167358
1629370439580,33946,197997,167358
1629370439590,33952,198001,167372
1629370439600,33956,198020,167379
1629370439610,33956,198051,167369
1629370439620,33967,198043,167378
1629370439630,33967,198042,167369
1629370439640,33966,198037,167355
1629370439650,33973,198070,167371
1629370439660,33981,198084,167360
1629370439670,33982,198052,167372
1629370439680,33993,198114,167387
1629370439690,33997,198111,167386
1629370439700,33997,198117,167386
1629370439710,34007,198106,167387
1629370439720,34007,198139,167384
1629370439730,34021,198137,167377
1629370439740,34017,198128,167372
1629370439750,34029,198170,167387
1629370439760,34029,198162,167386
1629370439770,34038,198141,167382
1629370439780,34040,198161,167373
1629370439790,34042,198174,167377
1629370439800,34048,198200,167378
1629370439810,34054,198190,167381
1629370439820,34051,198209,167383
1629370439830,34059,198191,167372
1629370439840,34067,198230,167367
1629370439850,34065,198204,167351
1629370439860,34074,198241,167373
1629370439870,34082,198229,167389
1629370439880,34078,198276,167378
1629370439890,34078,198277,167367
1629370439900,34077,198257,167362
1629370439910,34102,198258,167353
1629370439920,34099,198263,167387
1629370439930,34107,198291,167346
1629370439940,34102,198300,167343
1629370439950,34108,198301,167374
1629370439960,34109,198285,167352
1629370439970,34104,198284,167340
1629370439980,34099,198246,167334
1629370439990,34091,198234,167317
1629370440000,34090,198225,167330
1629370440010,34084,198212,167300
1629370440020,34086,198217,167302
1629370440030,34090,198207,167306
1629370440040,34076,198201,167295
1629370440050,34073,198187,167296
1629370440060,34079,198161,167292
1629370440070,34064,198169,167285
1629370440080,34071,198170,167287
1629370440090,34065,198186,167294
1629370440100,34062,198129,167278
1629370440110,34060,198130,167279
1629370440120,34050,198135,167258
1629370440130,34052,198113,167298
1629370440140,34050,198122,167266
1629370440150,34047,198107,167262
1629370440160,34043,198109,167255
1629370440170,34042,198104,167250
1629370440180,34037,198094,167245
1629370440190,34034,198096,167272
1629370440200,34026,198064,167270
1629370440210,34038,198064,167256
1629370440220,34030,198093,167255
1629370440230,34049,198063,167269
1629370440240,34043,198076,167269
1629370440250,34048,198107,167262
1629370440260,34052,198107,167263
1629370440270,34046,198108,167262
1629370440280,34049,198053,167261
1629370440290,34049,198063,167262
1629370440300,34055,198086,167248
1629370440310,34051,198081,167269
1629370440320,34047,198091,167259
1629370440330,34051,198084,167263
1629370440340,34057,198092,167262
1629370440350,34070,198076,167250
1629370440360,34063,198059,167277
1629370440370,34049,198081,167240
1629370440380,34060,198073,167266
1629370440390,34070,198089,167275
1629370440400,34067,198103,167232
1629370440410,34073,198126,167269
1629370440420,34069,198128,167274
1629370440430,34073,198085,167251
1629370440440,34079,198099,167244
1629370440450,34080,198093,167268
1629370440460,34085,198101,167246
1629370440470,34081,198143,167283
1629370440480,34086,198125,167261
1629370440490,34086,198121,167258
1629370440500,34094,198140,167241
1629370440510,34088,198125,167255
1629370440520,34095,198126,167238
1629370440530,34094,198129,167233
1629370440540,34115,198120,167258
1629370440550,34103,198153,167262
1629370440560,34103,198138,167247
1629370440570,34115,198146,167239
1629370440580,34111,198165,167242
1629370440590,34111,198183,167227
1629370440600,34118,198168,167250
1629370440610,34123,198171,167240
1629370440620,34117,198182,167261
1629370440630,34121,198166,167241
1629370440640,34122,198187,167240
1629370440650,34126,198165,167230
1629370440660,34132,198177,167243
1629370440670,34125,198193,167251
1629370440680,34144,198216,167224
1629370440690,34148,198222,167245
1629370440700,34136,198192,167230
1629370440710,34143,198201,167230
1629370440720,34147,198198,167207
1629370440730,34146,198234,167219
1629370440740,34153,198205,167230
1629370440750,34150,198214,167215
1629370440760,34151,198265,167225
1629370440770,34162,198246,167225
1629370440780,34166,198232,167214
1629370440790,34172,198245,167226
1629370440800,34169,198248,167229
1629370440810,34174,198237,167209
1629370440820,34176,198273,167206
1629370440830,34177,198279,167223
1629370440840,34184,198291,167219
1629370440850,34173,198288,167209
1629370440860,34201,198277,167187
1629370440870,34202,198268,167203
1629370440880,34192,198285,167203
1629370440890,34198,198280,167195
1629370440900,34203,198306,167196
1629370440910,34206,198287,167197
1629370440920,34211,198312,167206
1629370440930,34207,198332,167202
1629370440940,34214,198310,167187
1629370440950,34216,198344,167200
1629370440960,34221,198337,167209
1629370440970,34222,198381,167219
1629370440980,34229,198352,167175
1629370440990,34229,198341,167195
1629370441000,34232,198345,167195
1629370441010,34229,198353,167190
1629370441020,34232,198363,167196
1629370441030,34239,198363,167183
1629370441040,34249,198386,167171
1629370441050,34249,198409,167164
1629370441060,34243,198367,167168
1629370441070,34243,198356,167157
1629370441080,34239,198345,167146
1629370441090,34232,198310,167120
1629370441100,34223,198309,167120
1629370441110,34215,198299,167117
1629370441120,34213,198293,167111
1629370441130,34205,198279,167096
1629370441140,34199,198276,167099
1629370441150,34197,198241,167089
1629370441160,34190,198220,167096
1629370441170,34189,198266,167082
1629370441180,34175,198215,167086
1629370441190,34176,198229,167070
1629370441200,34171,198167,167047
1629370441210,34171,198175,167088
1629370441220,34167,198192,167059
1629370441230,34156,198150,167074
1629370441240,34153,198151,167072
1629370441250,34144,198127,167049
1629370441260,34134,198118,167068
1629370441270,34128,198110,167038
1629370441280,34125,198071,167035
1629370441290,34118,198098,167065
1629370441300,34116,198081,167053
1629370441310,34113,198080,167053
1629370441320,34109,198068,167045
1629370441330,34113,198082,167057
1629370441340,34112,198080,167049
1629370441350,34112,198104,167054
1629370441360,34097,198050,167046
1629370441370,34106,198051,167048
1629370441380,34100,198051,167050
1629370441390,34112,198040,167027
1629370441400,34101,198061,167045
1629370441410,34103,198063,167062
1629370441420,34093,198024,167037
1629370441430,34098,198055,167041
1629370441440,34102,198061,167063
1629370441450,34094,198036,167036
1629370441460,34093,198011,167061
1629370441470,34097,198058,167052
1629370441480,34099,198051,167057
1629370441490,34100,198036,167043
1629370441500,34103,198033,167028
1629370441510,34096,198041,167054
1629370441520,34098,198035,167046
1629370441530,34090,198028,167052
1629370441540,34108,198060,167038
1629370441550,34104,198045,167035
1629370441560,34098,198033,167036
1629370441570,34101,198067,167043
1629370441580,34102,198045,167035
1629370441590,34101,198053,167054
1629370441600,34102,198050,167060
1629370441610,34103,198064,167024
1629370441620,34104,198060,167048
1629370441630,34104,198050,167049
1629370441640,34101,198068,167027
1629370441650,34106,198070,167030
1629370441660,34113,198057,167045
1629370441670,34113,198071,167036
1629370441680,34110,198047,167038
1629370441690,34115,198070,167032
1629370441700,34112,198104,167037
1629370441710,34119,198103,167043
1629370441720,34117,198073,167042
1629370441730,34121,198085,167020
1629370441740,34125,198087,167028
1629370441750,34122,198079,167039
1629370441760,34126,198107,167018
1629370441770,34125,198087,167035
1629370441780,34130,198097,167035
1629370441790,34126,198088,167048
1629370441800,34138,198113,167024
1629370441810,34132,198119,167028
1629370441820,34135,198119,167033
1629370441830,34138,198133,167025
1629370441840,34146,198141,167018
1629370441850,34144,198111,167046
1629370441860,34147,198131,167012
1629370441870,34150,198136,167037
1629370441880,34153,198125,167028
1629370441890,34152,198145,167028
1629370441900,34153,198155,167030
1629370441910,34150,198182,167027
1629370441920,34153,198170,167023
1629370441930,34158,198199,167015
1629370441940,34162,198190,167018
1629370441950,34163,198185,167011
1629370441960,34165,198194,167015
1629370441970,34169,198209,167034
1629370441980,34166,198199,167023
1629370441990,34173,198207,167037
1629370442000,34166,198224,167019
1629370442010,34179,198203,167028
1629370442020,34175,198247,167002
1629370442030,34187,198241,167037
1629370442040,34179,198209,167033
1629370442050,34187,198250,167015
1629370442060,34185,198251,167026
1629370442070,34189,198280,167028
1629370442080,34191,198270,167001
1629370442090,34196,198277,167027
1629370442100,34200,198291,166990
1629370442110,34200,198273,167008
1629370442120,34205,198294,167025
1629370442130,34203,198272,167058
1629370442140,34205,198291,167032
1629370442150,34216,198270,167020
1629370442160,34212,198319,167036
1629370442170,34209,198293,167029
1629370442180,34225,198295,167008
1629370442190,34225,198346,167016
1629370442200,34221,198315,167018
1629370442210,34217,198330,167003
1629370442220,34207,198288,166987
1629370442230,34199,198262,166964
1629370442240,34199,198241,166992
1629370442250,34183,198219,166964
1629370442260,34173,198216,166967
1629370442270,34169,198184,166953
1629370442280,34160,198188,166953
1629370442290,34154,198174,166932
1629370442300,34143,198158,166921
1629370442310,34137,198165,166941
1629370442320,34129,198164,166928
1629370442330,34141,198107,166911
1629370442340,34116,198128,166912
1629370442350,34110,198064,166930
1629370442360,34107,198075,166916
1629370442370,34092,198086,166897
1629370442380,34084,198061,166909
1629370442390,34076,198025,166903
1629370442400,34067,198028,166918
1629370442410,34055,198026,166924
1629370442420,34047,197994,166908
1629370442430,34042,197951,166907
1629370442440,34028,197975,166899
1629370442450,34018,197973,166899
1629370442460,34015,197973,166894
1629370442470,34016,197966,166907
1629370442480,34027,197954,166901
1629370442490,34019,197942,166907
1629370442500,34021,197954,166922
1629370442510,34007,197925,166907
1629370442520,34006,197945,166932
1629370442530,34000,197900,166911
1629370442540,34000,197936,166905
1629370442550,33986,197938,166939
1629370442560,33985,197917,166944
1629370442570,33985,197920,166919
1629370442580,33987,197937,166927
1629370442590,33976,197931,166925
1629370442600,33980,197941,166929
1629370442610,33981,197936,166933
1629370442620,33982,197922,166942
1629370442630,33982,197908,166958
1629370442640,33965,197929,166945
1629370442650,33977,197949,166954
1629370442660,33968,197893,166925
1629370442670,33971,197916,166978
1629370442680,33973,197926,166972
1629370442690,33970,197928,166979
1629370442700,33971,197929,166963
1629370442710,33973,197948,166956
1629370442720,33969,197940,166992
1629370442730,33972,197929,166993
1629370442740,33971,197949,166986
1629370442750,33977,197937,166980
1629370442760,33976,197925,166981
1629370442770,33972,197915,166975
1629370442780,33975,197948,166986
1629370442790,33975,197948,166987
1629370442800,33976,197935,166990
1629370442810,33980,197936,167008
1629370442820,33969,197941,166994
1629370442830,33976,197940,166988
1629370442840,33979,197951,166982
1629370442850,33980,197946,167003
1629370442860,33984,197971,166978
1629370442870,33977,197975,167005
1629370442880,33979,197977,167005
1629370442890,33980,197990,167016
1629370442900,33985,198002,166997
1629370442910,33989,197983,167035
1629370442920,33981,197985,167036
1629370442930,33995,197978,167011
1629370442940,33990,198023,166995
1629370442950,33992,197983,167006
1629370442960,33987,198013,167003
1629370442970,33999,198008,167017
1629370442980,33991,198009,167030
1629370442990,33991,198032,167028
1629370443000,33987,198051,167027
1629370443010,33994,198031,167039
1629370443020,34005,198027,167035
1629370443030,33998,198059,167024
1629370443040,34001,198042,167024
1629370443050,34003,198087,167035
1629370443060,34004,198084,167045
1629370443070,34007,198069,167065
1629370443080,34004,198059,167038
1629370443090,34001,198114,167043
1629370443100,34008,198067,167059
1629370443110,34015,198107,167058
1629370443120,34009,198121,167057
1629370443130,34019,198127,167073
1629370443140,34019,198109,167049
1629370443150,34018,198125,167053
1629370443160,34028,198130,167060
1629370443170,34026,198144,167069
1629370443180,34034,198128,167071
1629370443190,34035,198128,167075
1629370443200,34035,198141,167080
1629370443210,34031,198193,167064
1629370443220,34040,198171,167086
1629370443230,34035,198200,167075
1629370443240,34037,198178,167062
1629370443250,34042,198188,167074
1629370443260,34044,198184,167053
1629370443270,34047,198213,167080
1629370443280,34054,198215,167075
1629370443290,34052,198207,167072
1629370443300,34061,198201,167086
1629370443310,34047,198180,167090
1629370443320,34061,198238,167067
1629370443330,34055,198261,167079
1629370443340,34063,198238,167052
1629370443350,34061,198235,167073
1629370443360,34059,198263,167050
1629370443370,34056,198214,167071
1629370443380,34047,198226,167043
1629370443390,34043,198223,167022
1629370443400,34035,198179,167023
1629370443410,34020,198168,167030
1629370443420,34012,198176,167022
1629370443430,33999,198130,167030
1629370443440,33992,198100,167024
1629370443450,33981,198127,166988
1629370443460,33974,198117,167017
1629370443470,33972,198122,166993
1629370443480,33954,198057,167012
1629370443490,33939,198000,167007
1629370443500,33941,198044,167019
1629370443510,33933,198008,166994
1629370443520,33917,198002,166996
1629370443530,33909,197980,167002
1629370443540,33899,197983,166989
1629370443550,33890,197957,167015
1629370443560,33873,197978,167020
1629370443570,33866,197937,166994
1629370443580,33858,197935,166987
1629370443590,33845,197916,167019
1629370443600,33830,197914,167014
1629370443610,33837,197897,167030
1629370443620,33830,197850,167016
1629370443630,33814,197850,167025
1629370443640,33827,197903,167049
1629370443650,33812,197896,167062
1629370443660,33808,197883,167054
1629370443670,33808,197858,167068
1629370443680,33808,197877,167060
1629370443690,33804,197887,167063
1629370443700,33793,197881,167053
1629370443710,33789,197866,167070
1629370443720,33792,197853,167093
1629370443730,33791,197851,167103
1629370443740,33785,197821,167087
1629370443750,33776,197848,167097
1629370443760,33781,197859,167125
1629370443770,33782,197852,167120
1629370443780,33777,197849,167114
1629370443790,33760,197849,167102
1629370443800,33770,197860,167102
1629370443810,33772,197843,167143
1629370443820,33771,197864,167149
1629370443830,33773,197889,167151
1629370443840,33769,197869,167161
1629370443850,33769,197847,167147
1629370443860,33767,197854,167163
1629370443870,33774,197859,167184
1629370443880,33771,197882,167170
1629370443890,33771,197880,167174
1629370443900,33770,197892,167192
1629370443910,33777,197878,167175
1629370443920,33772,197885,167196
1629370443930,33773,197914,167197
1629370443940,33783,197904,167208
1629370443950,33785,197916,167215
1629370443960,33788,197916,167214
1629370443970,33779,197890,167201
1629370443980,33782,197912,167212
1629370443990,33776,197898,167219
1629370444000,33779,197918,167230
1629370444010,33779,197906,167222
1629370444020,33788,197930,167229
1629370444030,33784,197940,167238
1629370444040,33788,197944,167249
1629370444050,33783,197930,167247
1629370444060,33791,197957,167237
1629370444070,33789,197959,167237
1629370444080,33795,197918,167250
1629370444090,33791,197933,167239
1629370444100,33795,197969,167254
1629370444110,33795,197979,167260
1629370444120,33793,197976,167249
1629370444130,33799,197973,167268
1629370444140,33803,197947,167266
1629370444150,33796,197976,167243
1629370444160,33805,197976,167273
1629370444170,33806,198006,167276
1629370444180,33807,198004,167259
1629370444190,33807,198014,167271
1629370444200,33816,198003,167268
1629370444210,33818,198037,167305
1629370444220,33820,198042,167287
1629370444230,33821,198030,167281
1629370444240,33821,198046,167283
1629370444250,33831,198040,167294
1629370444260,33833,198054,167292
1629370444270,33824,198067,167291
1629370444280,33840,198063,167292
1629370444290,33838,198072,167307
1629370444300,33837,198081,167298
1629370444310,33841,198067,167308
1629370444320,33846,198081,167301
1629370444330,33848,198103,167292
1629370444340,33853,198112,167314
1629370444350,33857,198129,167314
1629370444360,33850,198112,167313
1629370444370,33857,198123,167304
1629370444380,33855,198129,167311
1629370444390,33862,198138,167308
1629370444400,33860,198177,167323
1629370444410,33869,198159,167309
1629370444420,33865,198189,167324
1629370444430,33878,198152,167335
1629370444440,33873,198200,167313
1629370444450,33883,198181,167304
1629370444460,33884,198221,167314
1629370444470,33886,198226,167322
1629370444480,33897,198189,167327
1629370444490,33896,198215,167315
1629370444500,33898,198208,167328
1629370444510,33890,198202,167307
1629370444520,33885,198182,167286
1629370444530,33879,198189,167292
1629370444540,33871,198175,167303
1629370444550,33862,198152,167295
1629370444560,33850,198117,167277
1629370444570,33844,198095,167251
1629370444580,33835,198092,167255
1629370444590,33823,198080,167269
1629370444600,33818,198101,167258
1629370444610,33807,198078,167276
1629370444620,33798,198055,167260
1629370444630,33797,198040,167282
1629370444640,33787,198030,167287
1629370444650,33789,198014,167279
1629370444660,33769,198006,167273
1629370444670,33776,197995,167269
1629370444680,33760,198016,167288
1629370444690,33750,197969,167273
1629370444700,33746,197946,167269
1629370444710,33742,197951,167315
1629370444720,33740,197910,167271
1629370444730,33727,197898,167289
1629370444740,33721,197928,167294
1629370444750,33721,197930,167291
1629370444760,33716,197913,167310
1629370444770,33712,197880,167320
1629370444780,33713,197925,167323
1629370444790,33713,197925,167335
1629370444800,33716,197913,167327
1629370444810,33712,197899,167335
1629370444820,33710,197918,167340
1629370444830,33706,197913,167335
1629370444840,33708,197905,167355
1629370444850,33706,197920,167358
1629370444860,33703,197897,167348
1629370444870,33702,197893,167375
1629370444880,33705,197889,167376
1629370444890,33701,197900,167355
1629370444900,33697,197896,167373
1629370444910,33706,197909,167404
1629370444920,33711,197906,167412
1629370444930,33717,197919,167362
1629370444940,33716,197917,167411
1629370444950,33701,197905,167407
1629370444960,33710,197891,167402
1629370444970,33714,197953,167404
1629370444980,33710,197930,167423
1629370444990,33713,197921,167399
1629370445000,33714,197930,167403
1629370445010,33714,197930,167412
1629370445020,33715,197936,167437
1629370445030,33723,197942,167437
1629370445040,33722,197959,167448
1629370445050,33721,197929,167445
1629370445060,33719,197933,167425
1629370445070,33718,197949,167426
1629370445080,33714,197948,167430
1629370445090,33733,197961,167435
1629370445100,33736,197967,167431
1629370445110,33729,197988,167440
1629370445120,33739,197945,167440
1629370445130,33743,197955,167460
1629370445140,33747,197943,167450
1629370445150,33749,197974,167437
1629370445160,33753,197988,167469
1629370445170,33750,198024,167451
1629370445180,33751,197990,167456
1629370445190,33753,198035,167483
1629370445200,33758,197984,167448
1629370445210,33759,198021,167452
1629370445220,33760,198001,167454
1629370445230,33761,198038,167477
1629370445240,33770,198017,167467
1629370445250,33772,198035,167498
1629370445260,33778,198046,167457
1629370445270,33785,198005,167467
1629370445280,33782,198052,167469
1629370445290,33785,198063,167464
1629370445300,33791,198041,167458
1629370445310,33793,198065,167483
1629370445320,33797,198039,167477
1629370445330,33790,198059,167487
1629370445340,33810,198102,167495
1629370445350,33811,198086,167479
1629370445360,33813,198117,167476
1629370445370,33817,198117,167475
1629370445380,33814,198116,167491
1629370445390,33816,198115,167492
1629370445400,33826,198127,167457
1629370445410,33829,198136,167460
1629370445420,33846,198138,167487
1629370445430,33839,198142,167496
1629370445440,33836,198184,167498
1629370445450,33851,198188,167478
1629370445460,33850,198166,167510
1629370445470,33854,198178,167487
1629370445480,33852,198179,167485
1629370445490,33859,198143,167508
1629370445500,33861,198178,167509
1629370445510,33869,198205,167491
1629370445520,33875,198206,167490
1629370445530,33877,198203,167501
1629370445540,33883,198228,167503
1629370445550,33894,198215,167486
1629370445560,33894,198288,167492
1629370445570,33888,198239,167490
1629370445580,33895,198250,167516
1629370445590,33897,198260,167501
1629370445600,33903,198277,167501
1629370445610,33907,198301,167499
1629370445620,33904,198272,167485
1629370445630,33903,198233,167464
1629370445640,33892,198245,167464
1629370445650,33883,198202,167454
1629370445660,33877,198204,167468
1629370445670,33870,198199,167429
1629370445680,33868,198167,167441
1629370445690,33861,198145,167449
1629370445700,33854,198145,167426
1629370445710,33856,198149,167444
1629370445720,33862,198115,167437
1629370445730,33842,198099,167426
1629370445740,33843,198126,167431
1629370445750,33840,198102,167421
1629370445760,33838,198105,167414
1629370445770,33835,198081,167462
1629370445780,33815,198074,167422
1629370445790,33816,198056,167428
1629370445800,33819,198057,167436
1629370445810,33813,198036,167428
1629370445820,33803,198032,167426
1629370445830,33795,198048,167435
1629370445840,33795,198041,167438
1629370445850,33794,198007,167445
1629370445860,33785,198023,167430
1629370445870,33801,198011,167434
1629370445880,33784,198021,167461
1629370445890,33797,198010,167432
1629370445900,33806,197979,167463
1629370445910,33799,198045,167457
1629370445920,33795,198044,167461
1629370445930,33802,198003,167465
1629370445940,33798,198022,167464
1629370445950,33799,198022,167468
1629370445960,33799,198002,167476
1629370445970,33806,198004,167487
1629370445980,33804,198005,167469
1629370445990,33801,198008,167491
1629370446000,33808,198022,167462
1629370446010,33809,198005,167476
1629370446020,33804,198007,167492
1629370446030,33820,198021,167484
1629370446040,33809,198049,167471
1629370446050,33810,198017,167465
1629370446060,33817,198042,167486
1629370446070,33816,198040,167506
1629370446080,33823,198030,167473
1629370446090,33829,198010,167491
1629370446100,33827,198017,167508
1629370446110,33834,198034,167485
1629370446120,33836,198021,167509
1629370446130,33824,198035,167502
1629370446140,33840,198058,167487
1629370446150,33840,198048,167489
1629370446160,33840,198050,167499
1629370446170,33844,198043,167518
1629370446180,33843,198065,167513
1629370446190,33846,198068,167526
1629370446200,33863,198090,167492
1629370446210,33865,198086,167510
1629370446220,33866,198117,167503
1629370446230,33865,198096,167514
1629370446240,33869,198083,167514
1629370446250,33870,198120,167533
1629370446260,33874,198091,167524
1629370446270,33882,198125,167526
1629370446280,33890,198118,167507
1629370446290,33894,198125,167509
1629370446300,33894,198144,167534
1629370446310,33888,198106,167529
1629370446320,33897,198174,167517
1629370446330,33905,198133,167519
1629370446340,33910,198144,167522
1629370446350,33905,198161,167534
1629370446360,33921,198149,167528
1629370446370,33921,198199,167524
1629370446380,33918,198179,167507
1629370446390,33918,198179,167526
1629370446400,33934,198212,167535
1629370446410,33931,198219,167512
1629370446420,33940,198192,167520
1629370446430,33941,198196,167518
1629370446440,33943,198202,167520
1629370446450,33941,198208,167525
1629370446460,33947,198219,167532
1629370446470,33954,198239,167523
1629370446480,33956,198197,167521
1629370446490,33960,198240,167521
1629370446500,33966,198230,167521
1629370446510,33975,198252,167503
1629370446520,33966,198254,167529
1629370446530,33983,198283,167520
1629370446540,33981,198254,167494
1629370446550,33987,198253,167528
1629370446560,34003,198312,167514
1629370446570,33998,198292,167513
1629370446580,34000,198285,167498
1629370446590,34008,198325,167508
1629370446600,34008,198281,167503
1629370446610,34008,198298,167520
1629370446620,34008,198299,167524
1629370446630,34017,198316,167509
1629370446640,34024,198337,167500
1629370446650,34028,198342,167505
1629370446660,34040,198351,167490
1629370446670,34040,198366,167509
1629370446680,34038,198359,167515
1629370446690,34045,198359,167497
1629370446700,34063,198395,167514
1629370446710,34049,198398,167496
1629370446720,34063,198390,167482
1629370446730,34063,198383,167485
1629370446740,34061,198414,167480
1629370446750,34064,198390,167482
1629370446760,34059,198380,167477
1629370446770,34062,198375,167461
1629370446780,34062,198342,167457
1629370446790,34044,198300,167440
1629370446800,34039,198317,167436
1629370446810,34035,198337,167430
1629370446820,34025,198292,167432
1629370446830,34026,198315,167413
1629370446840,34028,198293,167416
1629370446850,34017,198269,167421
1629370446860,34015,198271,167393
1629370446870,33998,198289,167411
1629370446880,34006,198235,167400
1629370446890,34000,198237,167384
1629370446900,33996,198247,167386
1629370446910,33994,198209,167378
1629370446920,33986,198206,167405
1629370446930,33974,198180,167375
1629370446940,33978,198177,167386
1629370446950,33969,198174,167389
1629370446960,33970,198168,167397
1629370446970,33966,198146,167375
1629370446980,33965,198126,167377
1629370446990,33958,198110,167397
1629370447000,33965,198147,167372
1629370447010,33958,198107,167385
1629370447020,33955,198124,167384
1629370447030,33946,198161,167397
1629370447040,33946,198131,167386
1629370447050,33940,198126,167386
1629370447060,33960,198150,167392
1629370447070,33963,198114,167377
1629370447080,33954,198135,167376
1629370447090,33957,198142,167393
1629370447100,33953,198146,167392
1629370447110,33955,198135,167393
1629370447120,33951,198129,167397
1629370447130,33954,198119,167391
1629370447140,33951,198117,167394
1629370447150,33953,198141,167410
1629370447160,33956,198138,167387
1629370447170,33957,198132,167369
1629370447180,33967,198132,167396
1629370447190,33954,198149,167414
1629370447200,33970,198167,167407
1629370447210,33963,198129,167398
1629370447220,33967,198153,167395
1629370447230,33970,198141,167383
1629370447240,33969,198167,167388
1629370447250,33975,198141,167404
1629370447260,33974,198165,167398
1629370447270,33979,198168,167399
1629370447280,33984,198184,167407
1629370447290,33979,198188,167401
1629370447300,33975,198149,167395
1629370447310,33984,198188,167390
1629370447320,33986,198190,167373
1629370447330,33983,198185,167395
1629370447340,33995,198216,167390
1629370447350,33988,198194,167404
1629370447360,33997,198189,167412
1629370447370,34003,198189,167389
1629370447380,34010,198220,167393
1629370447390,34006,198222,167415
1629370447400,34014,198181,167388
1629370447410,34016,198242,167405
1629370447420,34020,198221,167397
1629370447430,34015,198216,167392
1629370447440,34021,198229,167405
1629370447450,34027,198236,167405
1629370447460,34029,198247,167408
1629370447470,34023,198253,167397
1629370447480,34035,198218,167397
1629370447490,34034,198260,167391
1629370447500,34035,198258,167375
1629370447510,34034,198266,167381
1629370447520,34035,198269,167375
1629370447530,34050,198310,167400
1629370447540,34057,198258,167385
1629370447550,34056,198266,167394
1629370447560,34059,198310,167400
1629370447570,34062,198308,167395
1629370447580,34065,198300,167403
1629370447590,34063,198300,167399
1629370447600,34072,198312,167391
1629370447610,34076,198329,167388
1629370447620,34074,198322,167411
1629370447630,34078,198359,167399
1629370447640,34079,198347,167394
1629370447650,34085,198355,167372
1629370447660,34085,198369,167381
1629370447670,34100,198340,167380
1629370447680,34087,198369,167388
1629370447690,34105,198367,167368
1629370447700,34110,198364,167375
1629370447710,34102,198392,167387
1629370447720,34113,198391,167393
1629370447730,34133,198391,167388
1629370447740,34114,198385,167384
1629370447750,34117,198381,167369
1629370447760,34123,198403,167358
1629370447770,34128,198430,167360
1629370447780,34129,198423,167379
1629370447790,34132,198431,167383
1629370447800,34136,198443,167360
1629370447810,34138,198429,167373
1629370447820,34144,198447,167366
1629370447830,34147,198476,167372
1629370447840,34147,198445,167365
1629370447850,34153,198464,167390
1629370447860,34159,198493,167361
1629370447870,34157,198466,167377
1629370447880,34168,198482,167339
1629370447890,34158,198482,167348
1629370447900,34157,198474,167330
1629370447910,34153,198435,167329
1629370447920,34149,198394,167306
1629370447930,34128,198424,167314
1629370447940,34130,198430,167294
1629370447950,34124,198384,167289
1629370447960,34112,198373,167292
1629370447970,34114,198362,167282
1629370447980,34101,198366,167277
1629370447990,34098,198354,167278
1629370448000,34092,198336,167265
1629370448010,34095,198322,167270
1629370448020,34086,198351,167257
1629370448030,34091,198307,167260
1629370448040,34077,198278,167239
1629370448050,34070,198277,167271
1629370448060,34064,198285,167257
1629370448070,34061,198290,167248
1629370448080,34049,198270,167225
1629370448090,34049,198250,167248
1629370448100,34038,198249,167250
1629370448110,34033,198207,167241
1629370448120,34028,198204,167226
1629370448130,34023,198201,167218
1629370448140,34022,198207,167221
1629370448150,34013,198199,167232
1629370448160,34013,198195,167233
1629370448170,34025,198189,167261
1629370448180,34021,198213,167248
1629370448190,34018,198223,167233
1629370448200,34020,198217,167253
1629370448210,34011,198188,167247
1629370448220,34010,198176,167228
1629370448230,34008,198167,167252
1629370448240,34005,198193,167254
1629370448250,34006,198169,167249
1629370448260,34003,198193,167233
1629370448270,33997,198211,167239
1629370448280,33998,198203,167262
1629370448290,33998,198219,167259
1629370448300,33996,198216,167246
1629370448310,33988,198190,167267
1629370448320,34002,198203,167266
1629370448330,34001,198212,167251
1629370448340,33997,198184,167248
1629370448350,34006,198190,167252
1629370448360,34005,198226,167260
1629370448370,34001,198218,167243
1629370448380,34002,198206,167244
1629370448390,34008,198226,167261
1629370448400,34001,198234,167255
1629370448410,34003,198230,167239
1629370448420,34004,198212,167251
1629370448430,34006,198245,167244
1629370448440,34010,198224,167249
1629370448450,34007,198233,167249
1629370448460,34010,198227,167263
1629370448470,34010,198266,167235
1629370448480,34012,198238,167249
1629370448490,34010,198236,167237
1629370448500,34027,198233,167241
1629370448510,34020,198252,167252
1629370448520,34018,198257,167256
1629370448530,34036,198257,167228
1629370448540,34025,198313,167256
1629370448550,34028,198260,167264
1629370448560,34024,198311,167266
1629370448570,34027,198282,167252
1629370448580,34034,198293,167241
1629370448590,34031,198303,167248
1629370448600,34035,198313,167264
1629370448610,34036,198281,167264
1629370448620,34032,198296,167258
1629370448630,34038,198298,167245
1629370448640,34049,198287,167272
1629370448650,34045,198299,167264
1629370448660,34044,198305,167247
1629370448670,34049,198336,167259
1629370448680,34048,198349,167270
1629370448690,34054,198317,167271
1629370448700,34050,198361,167247
1629370448710,34062,198357,167237
1629370448720,34057,198327,167262
1629370448730,34063,198375,167255
1629370448740,34070,198381,167239
1629370448750,34071,198370,167261
1629370448760,34061,198361,167231
1629370448770,34073,198351,167242
1629370448780,34074,198369,167246
1629370448790,34072,198390,167263
1629370448800,34086,198387,167241
1629370448810,34081,198395,167244
1629370448820,34094,198411,167240
1629370448830,34081,198409,167244
1629370448840,34086,198412,167251
1629370448850,34086,198437,167236
1629370448860,34093,198439,167255
1629370448870,34092,198428,167246
1629370448880,34093,198433,167238
1629370448890,34097,198457,167242
1629370448900,34104,198451,167247
1629370448910,34101,198432,167243
1629370448920,34110,198446,167249
1629370448930,34110,198424,167221
1629370448940,34103,198468,167240
1629370448950,34113,198497,167247
1629370448960,34111,198502,167225
1629370448970,34111,198469,167238
1629370448980,34115,198459,167205
1629370448990,34106,198449,167223
1629370449000,34101,198423,167213
1629370449010,34100,198434,167187
1629370449020,34085,198404,167189
1629370449030,34074,198408,167194
1629370449040,34074,198377,167169
1629370449050,34062,198369,167194
1629370449060,34049,198361,167159
1629370449070,34049,198375,167156
1629370449080,34039,198341,167155
1629370449090,34035,198323,167129
1629370449100,34022,198319,167150
1629370449110,34022,198325,167172
1629370449120,33995,198316,167168
1629370449130,33998,198294,167132
1629370449140,33991,198322,167146
1629370449150,33972,198289,167117
1629370449160,33982,198226,167133
1629370449170,33971,198275,167149
1629370449180,33954,198258,167142
1629370449190,33949,198233,167115
1629370449200,33943,198241,167123
1629370449210,33931,198213,167117
1629370449220,33924,198217,167140
1629370449230,33916,198180,167146
1629370449240,33908,198190,167147
1629370449250,33909,198204,167159
1629370449260,33907,198201,167149
1629370449270,33906,198187,167163
1629370449280,33904,198188,167154
1629370449290,33897,198209,167166
1629370449300,33888,198180,167145
1629370449310,33890,198198,167166
1629370449320,33888,198180,167148
1629370449330,33887,198204,167155
1629370449340,33879,198135,167160
1629370449350,33870,198183,167159
1629370449360,33876,198170,167140
1629370449370,33867,198178,167140
1629370449380,33866,198191,167160
1629370449390,33862,198168,167147
1629370449400,33864,198181,167156
1629370449410,33861,198174,167145
1629370449420,33855,198155,167180
1629370449430,33852,198167,167158
1629370449440,33861,198163,167156
1629370449450,33852,198165,167153
1629370449460,33850,198155,167169
1629370449470,33848,198173,167157
1629370449480,33845,198201,167167
1629370449490,33847,198170,167161
1629370449500,33851,198170,167176
1629370449510,33847,198166,167157
1629370449520,33847,198174,167145
1629370449530,33845,198162,167175
1629370449540,33850,198165,167142
1629370449550,33844,198183,167156
1629370449560,33841,198175,167168
1629370449570,33844,198183,167150
1629370449580,33847,198193,167153
1629370449590,33843,198192,167147
1629370449600,33852,198199,167149
1629370449610,33855,198191,167155
1629370449620,33852,198195,167130
1629370449630,33847,198216,167165
1629370449640,33859,198225,167170
1629370449650,33841,198229,167174
1629370449660,33852,198196,167168
1629370449670,33853,198203,167136
1629370449680,33849,198234,167163
1629370449690,33857,198225,167165
1629370449700,33851,198214,167159
1629370449710,33860,198196,167152
1629370449720,33855,198247,167154
1629370449730,33860,198271,167135
1629370449740,33865,198231,167136
1629370449750,33859,198258,167147
1629370449760,33860,198236,167160
1629370449770,33869,198261,167148
1629370449780,33873,198223,167145
1629370449790,33870,198255,167153
1629370449800,33875,198286,167169
1629370449810,33880,198263,167153
1629370449820,33871,198277,167146
1629370449830,33880,198293,167144
1629370449840,33881,198264,167156
1629370449850,33880,198284,167156
1629370449860,33882,198290,167150
1629370449870,33886,198305,167174
1629370449880,33884,198318,167153
1629370449890,33881,198298,167172
1629370449900,33889,198282,167142
1629370449910,33885,198331,167156
1629370449920,33893,198317,167142
1629370449930,33888,198333,167169
1629370449940,33887,198344,167146
1629370449950,33903,198327,167141
1629370449960,33913,198343,167156
1629370449970,33902,198343,167154
1629370449980,33914,198360,167151
1629370449990,33911,198384,167145
1629370450000,33917,198379,167170
1629370450010,33921,198392,167156
1629370450020,33923,198381,167156
1629370450030,33919,198396,167157
1629370450040,33922,198396,167149
1629370450050,33925,198401,167171
1629370450060,33927,198412,167145
1629370450070,33925,198397,167138
1629370450080,33932,198442,167150
1629370450090,33932,198416,167150
1629370450100,33932,198361,167132
1629370450110,33917,198360,167129
1629370450120,33910,198354,167104
1629370450130,33901,198374,167115
1629370450140,33892,198332,167122
1629370450150,33888,198313,167089
1629370450160,33869,198327,167099
1629370450170,33871,198324,167118
1629370450180,33859,198302,167101
1629370450190,33858,198284,167075
1629370450200,33848,198284,167088
1629370450210,33848,198252,167094
1629370450220,33833,198278,167086
1629370450230,33826,198223,167096
1629370450240,33827,198260,167088
1629370450250,33810,198208,167101
1629370450260,33814,198201,167084
1629370450270,33818,198192,167058
1629370450280,33798,198190,167083
1629370450290,33803,198188,167061
1629370450300,33790,198143,167088
1629370450310,33777,198145,167090
1629370450320,33769,198133,167073
1629370450330,33768,198119,167086
1629370450340,33769,198171,167076
1629370450350,33765,198153,167093
1629370450360,33767,198160,167111
1629370450370,33767,198145,167097
1629370450380,33761,198138,167103
1629370450390,33763,198128,167103
1629370450400,33766,198156,167119
1629370450410,33765,198125,167113
1629370450420,33765,198157,167094
1629370450430,33750,198137,167125
1629370450440,33755,198152,167099
1629370450450,33755,198127,167124
1629370450460,33752,198147,167120
1629370450470,33752,198120,167106
1629370450480,33755,198130,167126
1629370450490,33758,198148,167138
1629370450500,33749,198151,167121
1629370450510,33761,198145,167110
1629370450520,33756,198140,167151
1629370450530,33745,198148,167157
1629370450540,33754,198158,167126
1629370450550,33748,198184,167149
1629370450560,33752,198180,167147
1629370450570,33754,198144,167145
1629370450580,33763,198161,167164
1629370450590,33762,198156,167143
1629370450600,33759,198138,167143
1629370450610,33766,198189,167142
1629370450620,33758,198178,167151
1629370450630,33766,198181,167146
1629370450640,33765,198155,167158
1629370450650,33770,198198,167151
1629370450660,33772,198237,167163
1629370450670,33773,198191,167161
1629370450680,33772,198212,167163
1629370450690,33774,198247,167158
1629370450700,33778,198219,167165
1629370450710,33782,198253,167181
1629370450720,33780,198208,167155
1629370450730,33788,198237,167183
1629370450740,33779,198248,167176
1629370450750,33780,198267,167178
1629370450760,33792,198235,167173
1629370450770,33800,198248,167174
1629370450780,33798,198273,167180
1629370450790,33803,198256,167180
1629370450800,33804,198292,167190
1629370450810,33801,198311,167192
1629370450820,33805,198274,167191
1629370450830,33808,198288,167194
1629370450840,33809,198310,167179
1629370450850,33807,198297,167193
1629370450860,33813,198312,167193
1629370450870,33816,198311,167172
1629370450880,33824,198336,167192
1629370450890,33830,198330,167173
1629370450900,33843,198345,167196
1629370450910,33844,198374,167191
1629370450920,33839,198330,167198
1629370450930,33851,198361,167193
1629370450940,33851,198340,167205
1629370450950,33857,198391,167176
1629370450960,33840,198393,167197
1629370450970,33850,198394,167205
1629370450980,33850,198389,167202
1629370450990,33862,198391,167197
1629370451000,33857,198403,167188
1629370451010,33860,198395,167205
1629370451020,33865,198417,167206
1629370451030,33867,198428,167189
1629370451040,33874,198432,167184
1629370451050,33877,198449,167191
1629370451060,33888,198429,167187
1629370451070,33895,198451,167188
1629370451080,33892,198454,167199
1629370451090,33886,198422,167196
1629370451100,33887,198482,167188
1629370451110,33896,198480,167203
1629370451120,33899,198481,167192
1629370451130,33910,198481,167200
1629370451140,33917,198492,167194
1629370451150,33915,198519,167183
1629370451160,33915,198485,167197
1629370451170,33916,198500,167185
1629370451180,33924,198538,167211
1629370451190,33928,198519,167202
1629370451200,33925,198538,167175
1629370451210,33926,198502,167189
1629370451220,33920,198513,167168
1629370451230,33906,198473,167146
1629370451240,33916,198474,167138
1629370451250,33900,198474,167141
1629370451260,33888,198442,167135
1629370451270,33886,198450,167134
1629370451280,33890,198441,167114
1629370451290,33886,198413,167147
1629370451300,33886,198434,167138
1629370451310,33877,198400,167149
1629370451320,33875,198419,167140
1629370451330,33870,198387,167137
1629370451340,33868,198388,167159
1629370451350,33866,198399,167128
1629370451360,33863,198395,167138
1629370451370,33852,198369,167141
1629370451380,33852,198357,167133
1629370451390,33851,198351,167140
1629370451400,33847,198347,167127
1629370451410,33836,198354,167132
1629370451420,33840,198315,167139
1629370451430,33837,198342,167145
1629370451440,33828,198314,167124
1629370451450,33827,198306,167119
1629370451460,33826,198302,167143
1629370451470,33827,198322,167151
1629370451480,33827,198318,167161
1629370451490,33829,198314,167149
1629370451500,33830,198319,167153
1629370451510,33832,198333,167146
1629370451520,33828,198295,167158
1629370451530,33827,198312,167161
1629370451540,33834,198289,167154
1629370451550,33832,198335,167166
1629370451560,33823,198301,167156
1629370451570,33833,198297,167167
1629370451580,33838,198317,167144
1629370451590,33843,198344,167183
1629370451600,33833,198333,167175
1629370451610,33841,198339,167172
1629370451620,33833,198336,167177
1629370451630,33837,198331,167183
1629370451640,33834,198368,167161
1629370451650,33841,198366,167161
1629370451660,33845,198340,167173
1629370451670,33847,198332,167168
1629370451680,33851,198335,167180
1629370451690,33849,198348,167163
1629370451700,33857,198348,167188
1629370451710,33856,198358,167189
1629370451720,33867,198353,167186
1629370451730,33863,198320,167180
1629370451740,33869,198347,167167
1629370451750,33856,198370,167195
1629370451760,33881,198357,167180
1629370451770,33864,198400,167175
1629370451780,33872,198384,167195
1629370451790,33875,198377,167182
1629370451800,33882,198409,167185
1629370451810,33883,198401,167180
1629370451820,33883,198387,167202
1629370451830,33889,198402,167182
1629370451840,33897,198417,167191
1629370451850,33895,198410,167180
1629370451860,33904,198404,167196
1629370451870,33897,198413,167195
1629370451880,33904,198416,167200
1629370451890,33904,198433,167204
1629370451900,33908,198422,167177
1629370451910,33912,198435,167186
1629370451920,33915,198447,167197
1629370451930,33925,198444,167189
1629370451940,33924,198459,167193
1629370451950,33932,198471,167195
1629370451960,33931,198471,167198
1629370451970,33933,198474,167206
1629370451980,33930,198503,167182
1629370451990,33937,198476,167179
1629370452000,33943,198477,167190
1629370452010,33945,198528,167183
1629370452020,33950,198497,167177
1629370452030,33954,198484,167202
1629370452040,33948,198525,167189
1629370452050,33961,198499,167179
1629370452060,33962,198530,167181
1629370452070,33971,198539,167187
1629370452080,33969,198517,167184
1629370452090,33980,198544,167170
1629370452100,33980,198532,167181
1629370452110,33997,198564,167208
1629370452120,33986,198525,167174
1629370452130,33989,198553,167175
1629370452140,33994,198585,167185
1629370452150,34004,198557,167178
1629370452160,34001,198574,167163
1629370452170,34009,198588,167187
1629370452180,34012,198547,167179
1629370452190,34015,198582,167164
1629370452200,34018,198595,167153
1629370452210,34032,198604,167170
1629370452220,34017,198606,167180
1629370452230,34039,198606,167146
1629370452240,34036,198611,167135
1629370452250,34035,198654,167167
1629370452260,34037,198637,167158
1629370452270,34032,198649,167160
1629370452280,34044,198621,167166
1629370452290,34049,198642,167184
1629370452300,34042,198673,167143
1629370452310,34050,198671,167130
1629370452320,34045,198643,167121
1629370452330,34039,198595,167128
1629370452340,34036,198607,167110
1629370452350,34032,198572,167090
1629370452360,34018,198568,167078
1629370452370,34016,198560,167098
1629370452380,34013,198537,167091
1629370452390,34010,198572,167075
1629370452400,34008,198534,167094
1629370452410,33999,198537,167086
1629370452420,33999,198519,167102
1629370452430,33997,198535,167075
1629370452440,33993,198513,167093
1629370452450,33986,198503,167068
1629370452460,33981,198513,167070
1629370452470,33979,198499,167070
1629370452480,33979,198452,167074
1629370452490,33976,198473,167073
1629370452500,33971,198428,167064
1629370452510,33967,198462,167063
1629370452520,33971,198488,167074
1629370452530,33955,198431,167070
1629370452540,33967,198427,167048
1629370452550,33957,198434,167061
1629370452560,33949,198421,167069
1629370452570,33955,198392,167071
1629370452580,33956,198433,167079
1629370452590,33959,198421,167076
1629370452600,33959,198423,167085
1629370452610,33952,198405,167065
1629370452620,33962,198433,167086
1629370452630,33959,198415,167072
1629370452640,33955,198411,167073
1629370452650,33958,198383,167065
1629370452660,33958,198422,167079
1629370452670,33954,198443,167082
1629370452680,33947,198412,167083
1629370452690,33974,198407,167083
1629370452700,33977,198411,167067
1629370452710,33961,198410,167087
1629370452720,33974,198423,167070
1629370452730,33967,198425,167091
1629370452740,33970,198445,167072
1629370452750,33975,198436,167080
1629370452760,33975,198399,167097
1629370452770,33978,198426,167100
1629370452780,33977,198421,167090
1629370452790,33979,198443,167092
1629370452800,33982,198464,167106
1629370452810,33981,198464,167091
1629370452820,33984,198440,167095
1629370452830,33987,198440,167080
1629370452840,33998,198458,167083
1629370452850,33997,198452,167094
1629370452860,34005,198454,167088
1629370452870,33998,198466,167100
1629370452880,34014,198479,167093
1629370452890,34009,198482,167103
1629370452900,34007,198434,167098
1629370452910,34007,198479,167092
1629370452920,34017,198463,167093
1629370452930,34028,198479,167101
1629370452940,34021,198480,167100
1629370452950,34023,198504,167090
1629370452960,34024,198485,167103
1629370452970,34030,198526,167070
1629370452980,34030,198510,167076
1629370452990,34031,198516,167104
1629370453000,34036,198504,167067
1629370453010,34047,198512,167086
1629370453020,34044,198519,167094
1629370453030,34044,198531,167077
1629370453040,34046,198526,167090
1629370453050,34053,198561,167073
1629370453060,34056,198548,167090
1629370453070,34058,198554,167093
1629370453080,34066,198552,167094
1629370453090,34072,198554,167095
1629370453100,34075,198566,167093
1629370453110,34080,198590,167092
1629370453120,34083,198554,167072
1629370453130,34088,198572,167067
1629370453140,34086,198571,167073
1629370453150,34098,198574,167057
1629370453160,34097,198600,167069
1629370453170,34105,198600,167076
1629370453180,34100,198622,167050
1629370453190,34109,198609,167089
1629370453200,34114,198635,167073
1629370453210,34111,198613,167099
1629370453220,34124,198604,167069
1629370453230,34138,198642,167068
1629370453240,34135,198630,167072
1629370453250,34135,198649,167077
1629370453260,34139,198640,167070
1629370453270,34140,198674,167089
1629370453280,34152,198667,167085
1629370453290,34165,198662,167076
1629370453300,34164,198665,167085
1629370453310,34167,198685,167084
1629370453320,34171,198674,167080
1629370453330,34174,198719,167081
1629370453340,34198,198698,167087
1629370453350,34199,198719,167076
1629370453360,34201,198698,167072
1629370453370,34219,198711,167085
1629370453380,34212,198754,167072
1629370453390,34213,198724,167065
1629370453400,34217,198740,167070
1629370453410,34221,198721,167062
1629370453420,34222,198713,167063
1629370453430,34224,198703,167035
1629370453440,34222,198671,167026
1629370453450,34218,198671,167030
1629370453460,34218,198626,167009
1629370453470,34208,198600,167002
1629370453480,34209,198617,167002
1629370453490,34208,198623,166990
1629370453500,34208,198570,166967
1629370453510,34189,198589,166996
1629370453520,34205,198564,166977
1629370453530,34216,198555,166972
1629370453540,34200,198553,166966
1629370453550,34193,198522,166964
1629370453560,34191,198531,166967
1629370453570,34187,198526,166934
1629370453580,34188,198506,166933
1629370453590,34175,198498,166939
1629370453600,34173,198465,166932
1629370453610,34170,198464,166931
1629370453620,34167,198480,166940
1629370453630,34159,198446,166925
1629370453640,34157,198456,166914
1629370453650,34150,198429,166932
1629370453660,34149,198411,166932
1629370453670,34155,198450,166916
1629370453680,34159,198396,166943
1629370453690,34151,198441,166941
1629370453700,34152,198431,166950
1629370453710,34153,198429,166943
1629370453720,34158,198450,166945
1629370453730,34167,198467,166966
1629370453740,34160,198453,166977
1629370453750,34163,198479,166954
1629370453760,34163,198492,167005
1629370453770,34161,198475,166990
1629370453780,34159,198475,166982
1629370453790,34159,198510,166986
1629370453800,34166,198469,167014
1629370453810,34163,198481,166995
1629370453820,34167,198492,167013
1629370453830,34164,198504,167012
1629370453840,34176,198521,167026
1629370453850,34168,198488,167024
1629370453860,34164,198521,167020
1629370453870,34181,198499,166990
1629370453880,34177,198518,167023
1629370453890,34184,198547,167028
1629370453900,34182,198492,167016
1629370453910,34184,198529,167026
1629370453920,34183,198537,167023
1629370453930,34185,198546,167044
1629370453940,34187,198560,167033
1629370453950,34193,198557,167033
1629370453960,34192,198531,167015
1629370453970,34187,198545,167043
1629370453980,34195,198537,167042
1629370453990,34200,198529,167033
1629370454000,34212,198534,167010
1629370454010,34209,198562,167020
1629370454020,34200,198557,167036
1629370454030,34201,198548,167044
1629370454040,34209,198586,167045
1629370454050,34210,198539,167020
1629370454060,34210,198573,167046
1629370454070,34209,198560,167034
1629370454080,34215,198554,167031
1629370454090,34219,198556,167003
1629370454100,34221,198581,167029
1629370454110,34219,198562,167021
1629370454120,34216,198583,167010
1629370454130,34231,198577,167018
1629370454140,34228,198558,167029
1629370454150,34225,198594,167008
1629370454160,34234,198578,167026
1629370454170,34233,198582,167013
1629370454180,34235,198567,166998
1629370454190,34241,198566,167026
1629370454200,34235,198570,167010
1629370454210,34240,198579,166992
1629370454220,34243,198603,166999
1629370454230,34243,198577,167002
1629370454240,34247,198582,167002
1629370454250,34247,198589,166986
1629370454260,34248,198597,167002
1629370454270,34249,198633,166988
1629370454280,34258,198629,167001
1629370454290,34258,198602,167007
1629370454300,34261,198631,166994
1629370454310,34274,198625,167000
1629370454320,34264,198651,167014
1629370454330,34275,198625,166998
1629370454340,34291,198642,167007
1629370454350,34281,198644,167000
1629370454360,34285,198699,167002
1629370454370,34292,198691,166997
1629370454380,34289,198690,167013
1629370454390,34294,198668,167016
1629370454400,34292,198691,166991
1629370454410,34296,198686,166991
1629370454420,34306,198685,167002
1629370454430,34296,198693,166993
1629370454440,34302,198695,166986
1629370454450,34308,198682,166995
1629370454460,34310,198738,166982
1629370454470,34311,198744,166974
1629370454480,34319,198705,166987
1629370454490,34320,198742,166998
1629370454500,34330,198758,166988
1629370454510,34316,198745,166981
1629370454520,34329,198754,166977
1629370454530,34330,198760,166974
1629370454540,34336,198770,166978
1629370454550,34336,198746,166955
1629370454560,34336,198731,166949
1629370454570,34327,198701,166954
1629370454580,34320,198668,166948
1629370454590,34316,198685,166929
1629370454600,34307,198679,166909
1629370454610,34301,198672,166916
1629370454620,34303,198650,166900
1629370454630,34291,198610,166879
1629370454640,34297,198648,166885
1629370454650,34278,198616,166887
1629370454660,34267,198606,166903
1629370454670,34263,198564,166858
1629370454680,34255,198577,166873
1629370454690,34257,198559,166859
1629370454700,34249,198537,166854
1629370454710,34241,198528,166873
1629370454720,34236,198540,166858
1629370454730,34230,198522,166850
1629370454740,34219,198471,166862
1629370454750,34217,198469,166837
1629370454760,34209,198457,166830
1629370454770,34199,198429,166838
1629370454780,34185,198460,166819
1629370454790,34184,198443,166844
1629370454800,34190,198406,166835
1629370454810,34182,198420,166829
1629370454820,34175,198400,166838
1629370454830,34177,198430,166830
1629370454840,34175,198428,166846
1629370454850,34176,198422,166859
1629370454860,34175,198411,166855
1629370454870,34169,198444,166843
1629370454880,34164,198430,166837
1629370454890,34171,198385,166847
1629370454900,34158,198393,166853
1629370454910,34162,198413,166845
1629370454920,34157,198396,166857
1629370454930,34154,198392,166871
1629370454940,34155,198384,166872
1629370454950,34156,198384,166846
1629370454960,34150,198386,166874
1629370454970,34155,198391,166874
1629370454980,34157,198384,166858
1629370454990,34153,198390,166863
1629370455000,34151,198415,166847
1629370455010,34159,198417,166867
1629370455020,34153,198404,166861
1629370455030,34157,198388,166865
1629370455040,34153,198399,166863
1629370455050,34157,198403,166852
1629370455060,34158,198391,166860
1629370455070,34151,198403,166877
1629370455080,34161,198390,166863
1629370455090,34150,198399,166859
1629370455100,34160,198411,166882
1629370455110,34156,198413,166852
1629370455120,34157,198438,166882
1629370455130,34171,198410,166874
1629370455140,34173,198420,166875
1629370455150,34157,198413,166864
1629370455160,34156,198419,166864
1629370455170,34164,198436,166860
1629370455180,34169,198454,166883
1629370455190,34176,198437,166878
1629370455200,34173,198412,166871
1629370455210,34177,198404,166879
1629370455220,34173,198445,166866
1629370455230,34171,198455,166877
1629370455240,34181,198479,166857
1629370455250,34177,198448,166877
1629370455260,34180,198479,166891
1629370455270,34178,198462,166858
1629370455280,34178,198454,166871
1629370455290,34187,198463,166886
1629370455300,34181,198451,166866
1629370455310,34190,198476,166847
1629370455320,34187,198467,166878
1629370455330,34190,198483,166876
1629370455340,34191,198496,166877
1629370455350,34199,198496,166867
1629370455360,34201,198487,166879
1629370455370,34197,198483,166859
1629370455380,34205,198498,166893
1629370455390,34204,198501,166883
1629370455400,34209,198512,166860
1629370455410,34214,198509,166887
1629370455420,34214,198541,166864
1629370455430,34213,198533,166877
1629370455440,34217,198546,166893
1629370455450,34226,198532,166888
1629370455460,34230,198550,166883
1629370455470,34233,198530,166860
1629370455480,34219,198572,166881
1629370455490,34224,198567,166886
1629370455500,34233,198567,166869
1629370455510,34231,198538,166867
1629370455520,34240,198580,166869
1629370455530,34237,198531,166870
1629370455540,34238,198565,166884
1629370455550,34238,198576,166865
1629370455560,34246,198580,166891
1629370455570,34253,198613,166877
1629370455580,34253,198600,166866
1629370455590,34257,198621,166868
1629370455600,34267,198602,166869
1629370455610,34263,198635,166888
1629370455620,34267,198615,166852
1629370455630,34266,198655,166885
1629370455640,34266,198602,166862
1629370455650,34263,198632,166884
1629370455660,34278,198651,166864
1629370455670,34281,198651,166837
1629370455680,34274,198657,166873
1629370455690,34274,198610,166847
1629370455700,34277,198623,166849
1629370455710,34265,198615,166834
1629370455720,34262,198589,166819
1629370455730,34250,198596,166806
1629370455740,34247,198574,166801
1629370455750,34244,198552,166797
1629370455760,34229,198524,166788
1629370455770,34223,198529,166790
1629370455780,34223,198492,166782
1629370455790,34226,198522,166782
1629370455800,34215,198530,166777
1629370455810,34203,198485,166799
1629370455820,34213,198524,166816
1629370455830,34210,198506,166845
1629370455840,34206,198545,166838
1629370455850,34208,198532,166856
1629370455860,34208,198513,166879
1629370455870,34200,198512,166892
1629370455880,34198,198531,166883
1629370455890,34199,198503,166904
1629370455900,34186,198495,166886
1629370455910,34185,198514,166907
1629370455920,34181,198512,166906
1629370455930,34192,198487,166921
1629370455940,34181,198484,166897
1629370455950,34189,198512,166962
1629370455960,34183,198514,166964
1629370455970,34192,198515,166998
1629370455980,34198,198530,167000
1629370455990,34201,198523,167004
1629370456000,34202,198502,167019
1629370456010,34209,198537,167054
1629370456020,34202,198552,167032
1629370456030,34196,198552,167017
1629370456040,34195,198545,167075
1629370456050,34199,198548,167038
1629370456060,34201,198567,167057
1629370456070,34207,198547,167069
1629370456080,34205,198578,167098
1629370456090,34218,198594,167118
1629370456100,34215,198577,167140
1629370456110,34209,198594,167150
1629370456120,34220,198610,167148
1629370456130,34216,198639,167184
1629370456140,34225,198618,167190
1629370456150,34219,198639,167178
1629370456160,34225,198621,167194
1629370456170,34233,198651,167203
1629370456180,34236,198672,167217
1629370456190,34229,198664,167211
1629370456200,34234,198677,167215
1629370456210,34233,198678,167228
1629370456220,34239,198664,167242
1629370456230,34245,198713,167271
1629370456240,34250,198715,167260
1629370456250,34252,198750,167291
1629370456260,34251,198735,167289
1629370456270,34265,198762,167318
1629370456280,34258,198725,167313
1629370456290,34268,198745,167324
1629370456300,34269,198729,167333
1629370456310,34270,198736,167328
1629370456320,34274,198788,167335
1629370456330,34272,198761,167340
1629370456340,34271,198797,167365
1629370456350,34283,198783,167368
1629370456360,34283,198797,167386
1629370456370,34291,198808,167394
1629370456380,34299,198826,167401
1629370456390,34294,198853,167410
1629370456400,34297,198853,167426
1629370456410,34298,198828,167444
1629370456420,34300,198855,167420
1629370456430,34312,198855,167425
1629370456440,34303,198837,167434
1629370456450,34309,198843,167447
1629370456460,34312,198856,167441
1629370456470,34319,198870,167456
1629370456480,34311,198883,167470
1629370456490,34318,198889,167445
1629370456500,34328,198873,167462
1629370456510,34322,198889,167478
1629370456520,34328,198913,167476
1629370456530,34332,198891,167475
1629370456540,34336,198910,167502
1629370456550,34343,198927,167496
1629370456560,34343,198921,167494
1629370456570,34345,198923,167489
1629370456580,34344,198892,167504
1629370456590,34363,198930,167480
1629370456600,34355,198923,167508
1629370456610,34366,198936,167501
1629370456620,34357,198973,167520
1629370456630,34362,198982,167525
1629370456640,34366,198978,167520
1629370456650,34368,198949,167547
1629370456660,34371,198992,167543
1629370456670,34377,199017,167537
1629370456680,34370,198996,167521
1629370456690,34378,199012,167525
1629370456700,34381,199003,167555
1629370456710,34386,199024,167537
1629370456720,34390,199020,167545
1629370456730,34392,199043,167554
1629370456740,34406,199072,167561
1629370456750,34405,199025,167567
1629370456760,34402,199045,167544
1629370456770,34403,199044,167544
1629370456780,34400,199005,167546
1629370456790,34388,199036,167532
1629370456800,34383,199020,167525
1629370456810,34380,198983,167532
1629370456820,34370,198983,167545
1629370456830,34367,198950,167528
1629370456840,34360,198942,167517
1629370456850,34356,198959,167523
1629370456860,34344,198924,167517
1629370456870,34337,198929,167523
1629370456880,34335,198937,167514
1629370456890,34334,198907,167519
1629370456900,34321,198904,167527
1629370456910,34317,198859,167508
1629370456920,34310,198875,167507
1629370456930,34316,198868,167500
1629370456940,34299,198823,167503
1629370456950,34295,198857,167510
1629370456960,34291,198788,167509
1629370456970,34277,198805,167497
1629370456980,34265,198763,167487
1629370456990,34260,198742,167486
1629370457000,34250,198734,167500
1629370457010,34240,198716,167464
1629370457020,34230,198676,167451
1629370457030,34224,198702,167442
1629370457040,34227,198676,167449
1629370457050,34220,198666,167427
1629370457060,34213,198668,167434
1629370457070,34209,198639,167421
1629370457080,34203,198597,167405
1629370457090,34209,198621,167405
1629370457100,34195,198625,167395
1629370457110,34190,198589,167370
1629370457120,34178,198546,167372
1629370457130,34170,198536,167349
1629370457140,34164,198531,167340
1629370457150,34171,198521,167337
1629370457160,34160,198538,167304
1629370457170,34151,198479,167311
1629370457180,34138,198505,167309
1629370457190,34134,198467,167276
1629370457200,34130,198472,167258
1629370457210,34119,198453,167235
1629370457220,34123,198429,167225
1629370457230,34105,198406,167196
1629370457240,34114,198377,167181
1629370457250,34101,198395,167183
1629370457260,34108,198336,167187
1629370457270,34096,198385,167156
1629370457280,34087,198329,167119
1629370457290,34081,198332,167110
1629370457300,34081,198316,167096
1629370457310,34076,198295,167093
1629370457320,34072,198268,167060
1629370457330,34059,198301,167030
1629370457340,34061,198215,167007
1629370457350,34058,198221,166988
1629370457360,34046,198208,166967
1629370457370,34046,198174,166960
1629370457380,34040,198162,166936
1629370457390,34031,198156,166919
1629370457400,34024,198162,166902
1629370457410,34023,198128,166898
1629370457420,34022,198110,166868
1629370457430,34018,198124,166852
1629370457440,34016,198082,166839
1629370457450,34009,198087,166799
1629370457460,34001,198037,166768
1629370457470,34001,198032,166740
1629370457480,33987,198011,166728
1629370457490,33977,198005,166662
1629370457500,33973,197950,166655
1629370457510,33962,197943,166608
1629370457520,33961,197934,166582
1629370457530,33952,197898,166562
1629370457540,33944,197891,166541
1629370457550,33936,197877,166509
1629370457560,33932,197833,166472
1629370457570,33917,197828,166450
1629370457580,33919,197791,166440
1629370457590,33895,197787,166392
1629370457600,33899,197783,166351
1629370457610,33898,197760,166316
1629370457620,33888,197767,166318
1629370457630,33885,197733,166259
1629370457640,33872,197682,166247
1629370457650,33870,197684,166214
1629370457660,33867,197666,166185
1629370457670,33862,197648,166171
1629370457680,33853,197628,166134
1629370457690,33849,197640,166126
1629370457700,33848,197609,166096
1629370457710,33845,197577,166081
1629370457720,33838,197579,166065
1629370457730,33832,197592,166045
1629370457740,33837,197575,166053
1629370457750,33837,197545,166027
1629370457760,33845,197545,166022
1629370457770,33855,197529,166004
1629370457780,33841,197531,165980
1629370457790,33847,197524,165958
1629370457800,33834,197503,165949
1629370457810,33836,197497,165933
1629370457820,33833,197490,165923
1629370457830,33827,197467,165918
1629370457840,33830,197436,165874
1629370457850,33821,197469,165849
1629370457860,33809,197425,165828
1629370457870,33807,197379,165814
1629370457880,33794,197382,165786
1629370457890,33783,197341,165758
1629370457900,33770,197318,165745
1629370457910,33765,197288,165739
1629370457920,33742,197246,165695
1629370457930,33730,197201,165678
1629370457940,33714,197180,165668
1629370457950,33701,197167,165652
1629370457960,33693,197158,165635
1629370457970,33693,197145,165602
1629370457980,33677,197093,165618
1629370457990,33663,197052,165601
1629370458000,33655,196999,165579
1629370458010,33640,196989,165552
1629370458020,33635,196998,165560
1629370458030,33617,196962,165549
1629370458040,33608,196935,165535
1629370458050,33591,196919,165529
1629370458060,33588,196899,165525
1629370458070,33580,196852,165531
1629370458080,33570,196852,165498
1629370458090,33570,196833,165522
1629370458100,33559,196808,165510
1629370458110,33550,196810,165503
1629370458120,33549,196804,165501
1629370458130,33544,196778,165510
1629370458140,33547,196790,165515
1629370458150,33540,196781,165526
1629370458160,33542,196811,165516
1629370458170,33538,196752,165493
1629370458180,33531,196750,165511
1629370458190,33528,196764,165505
1629370458200,33531,196752,165515
1629370458210,33525,196740,165532
1629370458220,33528,196758,165507
1629370458230,33543,196777,165524
1629370458240,33528,196757,165531
1629370458250,33525,196732,165529
1629370458260,33527,196730,165544
1629370458270,33525,196771,165547
