timestamp,green,ir,red
1629370423003,23853,288721,212616
1629370423013,23863,288729,212634
1629370423023,23867,288743,212616
1629370423033,23874,288741,212612
1629370423043,23873,288775,212633
1629370423053,23875,288799,212615
1629370423063,23880,288769,212602
1629370423073,23876,288799,212611
1629370423083,23879,288754,212601
1629370423093,23882,288779,212602
1629370423103,23886,288824,212604
1629370423113,23885,288819,212601
1629370423123,23889,288818,212614
1629370423133,23893,288790,212600
1629370423143,23893,288836,212583
1629370423153,23891,288846,212583
1629370423163,23900,288830,212591
1629370423173,23902,288829,212589
1629370423183,23905,288871,212596
1629370423193,23910,288886,212612
1629370423203,23911,288886,212593
1629370423213,23916,288916,212572
1629370423223,23931,288893,212594
1629370423233,23931,288902,212573
1629370423243,23924,288930,212592
1629370423253,23930,288944,212592
1629370423263,23932,288941,212610
1629370423273,23953,288939,212620
1629370423283,23950,288994,212640
1629370423293,23968,289043,212656
1629370423303,23973,289044,212654
1629370423313,23979,289045,212665
1629370423323,23986,289080,212652
1629370423333,23994,289051,212635
1629370423343,24014,289088,212667
1629370423353,24013,289059,212677
1629370423363,24023,289078,212678
1629370423373,24036,289081,212684
1629370423383,24037,289066,212708
1629370423393,24039,289083,212714
1629370423403,24039,289084,212710
1629370423413,24036,289065,212717
1629370423423,24049,289068,212719
1629370423433,24045,289054,212748
1629370423443,24046,289065,212731
1629370423453,24037,289041,212736
1629370423463,24042,289051,212755
1629370423473,24038,289054,212732
1629370423483,24033,289013,212748
1629370423493,24033,289042,212759
1629370423503,24027,288990,212737
1629370423513,24022,288995,212725
1629370423523,24020,288977,212737
1629370423533,24012,288961,212735
1629370423543,24017,288920,212740
1629370423553,24004,288915,212718
1629370423563,23996,288952,212742
1629370423573,23997,288928,212720
1629370423583,23995,288913,212723
1629370423593,23983,288911,212706
1629370423603,23969,288901,212713
1629370423613,23967,288905,212736
1629370423623,23969,288897,212721
1629370423633,23960,288888,212732
1629370423643,23963,288893,212724
1629370423653,23958,288895,212728
1629370423663,23956,288864,212729
1629370423673,23953,288920,212731
1629370423683,23953,288917,212763
1629370423693,23952,288941,212765
1629370423703,23956,288928,212789
1629370423713,23960,288956,212792
1629370423723,23963,288978,212827
1629370423733,23962,288980,212844
1629370423743,23967,288977,212844
1629370423753,23979,289026,212876
1629370423763,23978,289016,212864
1629370423773,23964,289049,212862
1629370423783,23984,289017,212897
1629370423793,23975,289012,212920
1629370423803,23983,289043,212938
1629370423813,23987,289052,212936
1629370423823,23989,289100,212941
1629370423833,23992,289067,212921
1629370423843,23985,289100,212928
1629370423853,23987,289110,212957
1629370423863,23998,289139,212970
1629370423873,23996,289103,212945
1629370423883,24002,289141,212979
1629370423893,24003,289146,212963
1629370423903,24012,289144,212991
1629370423913,24006,289148,212980
1629370423923,24008,289148,212978
1629370423933,24017,289182,213003
1629370423943,24023,289192,213001
1629370423953,24022,289217,213005
1629370423963,24028,289256,212978
1629370423973,24035,289230,213001
1629370423983,24036,289261,212995
1629370423993,24043,289248,212995
1629370424003,24054,289270,213016
1629370424013,24056,289267,213030
1629370424023,24062,289288,213033
1629370424033,24061,289324,213023
1629370424043,24072,289349,213047
1629370424053,24083,289360,213049
1629370424063,24090,289385,213076
1629370424073,24095,289396,213062
1629370424083,24102,289404,213061
1629370424093,24108,289414,213095
1629370424103,24125,289396,213110
1629370424113,24128,289470,213113
1629370424123,24137,289470,213123
1629370424133,24137,289457,213106
1629370424143,24152,289499,213158
1629370424153,24161,289521,213113
1629370424163,24166,289490,213163
1629370424173,24172,289554,213134
1629370424183,24176,289545,213159
1629370424193,24181,289578,213173
1629370424203,24192,289557,213176
1629370424213,24201,289587,213192
1629370424223,24210,289644,213174
1629370424233,24216,289653,213163
1629370424243,24210,289618,213177
1629370424253,24233,289640,213183
1629370424263,24244,289693,213194
1629370424273,24242,289711,213189
1629370424283,24246,289717,213215
1629370424293,24254,289693,213214
1629370424303,24262,289691,213201
1629370424313,24272,289717,213208
1629370424323,24277,289783,213230
1629370424333,24288,289768,213232
1629370424343,24299,289796,213264
1629370424353,24307,289808,213272
1629370424363,24322,289797,213276
1629370424373,24336,289855,213304
1629370424383,24351,289836,213328
1629370424393,24357,289828,213318
1629370424403,24364,289810,213334
1629370424413,24371,289813,213368
1629370424423,24378,289816,213379
1629370424433,24384,289834,213400
1629370424443,24386,289850,213412
1629370424453,24394,289866,213433
1629370424463,24404,289856,213431
1629370424473,24404,289855,213444
1629370424483,24405,289819,213473
1629370424493,24410,289855,213450
1629370424503,24414,289780,213491
1629370424513,24412,289853,213496
1629370424523,24419,289893,213502
1629370424533,24409,289814,213484
1629370424543,24393,289779,213530
1629370424553,24411,289853,213502
1629370424563,24404,289819,213525
1629370424573,24411,289842,213523
1629370424583,24402,289762,213539
1629370424593,24402,289798,213540
1629370424603,24399,289808,213553
1629370424613,24396,289840,213555
1629370424623,24392,289852,213572
1629370424633,24392,289830,213540
1629370424643,24394,289811,213552
1629370424653,24394,289814,213565
1629370424663,24394,289824,213554
1629370424673,24396,289824,213567
1629370424683,24395,289826,213559
1629370424693,24389,289810,213564
1629370424703,24390,289839,213567
1629370424713,24387,289803,213558
1629370424723,24400,289861,213569
1629370424733,24401,289839,213590
1629370424743,24399,289824,213568
1629370424753,24400,289898,213570
1629370424763,24404,289890,213597
1629370424773,24399,289832,213593
1629370424783,24399,289853,213613
1629370424793,24398,289860,213606
1629370424803,24408,289908,213600
1629370424813,24415,289897,213620
1629370424823,24416,289914,213610
1629370424833,24418,289907,213613
1629370424843,24413,289896,213618
1629370424853,24423,289934,213591
1629370424863,24415,289886,213608
1629370424873,24414,289910,213599
1629370424883,24420,289912,213585
1629370424893,24408,289887,213563
1629370424903,24426,289936,213592
1629370424913,24418,289936,213573
1629370424923,24424,289922,213563
1629370424933,24424,289931,213554
1629370424943,24435,289928,213559
1629370424953,24432,289931,213548
1629370424963,24431,289981,213541
1629370424973,24431,289934,213519
1629370424983,24438,289964,213550
1629370424993,24458,289951,213538
1629370425003,24454,289971,213530
1629370425013,24455,290002,213540
1629370425023,24460,289997,213539
1629370425033,24463,290007,213571
1629370425043,24463,290017,213548
1629370425053,24466,289977,213537
1629370425063,24482,290066,213553
1629370425073,24488,290058,213568
1629370425083,24488,290080,213541
1629370425093,24493,290082,213553
1629370425103,24495,290085,213557
1629370425113,24498,290094,213555
1629370425123,24505,290092,213560
1629370425133,24512,290136,213541
1629370425143,24521,290106,213547
1629370425153,24525,290120,213529
1629370425163,24529,290137,213538
1629370425173,24540,290150,213554
1629370425183,24540,290223,213543
1629370425193,24550,290215,213574
1629370425203,24546,290225,213569
1629370425213,24553,290233,213594
1629370425223,24576,290223,213592
1629370425233,24571,290239,213590
1629370425243,24592,290247,213579
1629370425253,24589,290222,213595
1629370425263,24601,290250,213583
1629370425273,24603,290262,213574
1629370425283,24609,290293,213573
1629370425293,24619,290298,213577
1629370425303,24622,290320,213583
1629370425313,24636,290316,213540
1629370425323,24634,290384,213586
1629370425333,24649,290338,213584
1629370425343,24654,290377,213608
1629370425353,24654,290408,213590
1629370425363,24662,290435,213588
1629370425373,24675,290402,213582
1629370425383,24686,290387,213607
1629370425393,24687,290417,213595
1629370425403,24697,290457,213623
1629370425413,24706,290441,213638
1629370425423,24722,290452,213627
1629370425433,24730,290449,213657
1629370425443,24739,290452,213678
1629370425453,24746,290445,213693
1629370425463,24751,290432,213684
1629370425473,24761,290435,213677
1629370425483,24762,290459,213695
1629370425493,24761,290438,213704
1629370425503,24762,290408,213681
1629370425513,24762,290453,213684
1629370425523,24761,290439,213707
1629370425533,24771,290417,213692
1629370425543,24770,290397,213687
1629370425553,24770,290429,213712
1629370425563,24767,290426,213701
1629370425573,24765,290356,213710
1629370425583,24766,290382,213705
1629370425593,24762,290397,213691
1629370425603,24772,290372,213698
1629370425613,24761,290386,213705
1629370425623,24757,290389,213713
1629370425633,24758,290373,213736
1629370425643,24763,290359,213712
1629370425653,24755,290350,213716
1629370425663,24753,290385,213707
1629370425673,24752,290404,213716
1629370425683,24747,290368,213698
1629370425693,24738,290393,213704
1629370425703,24742,290380,213715
1629370425713,24749,290362,213701
1629370425723,24747,290389,213701
1629370425733,24741,290377,213697
1629370425743,24736,290383,213685
1629370425753,24742,290359,213706
1629370425763,24741,290366,213691
1629370425773,24739,290365,213694
1629370425783,24740,290382,213692
1629370425793,24741,290400,213716
1629370425803,24734,290387,213679
1629370425813,24736,290368,213671
1629370425823,24737,290370,213690
1629370425833,24730,290374,213680
1629370425843,24731,290384,213655
1629370425853,24736,290380,213658
1629370425863,24732,290362,213637
1629370425873,24738,290369,213646
1629370425883,24734,290381,213618
1629370425893,24727,290335,213636
1629370425903,24723,290342,213621
1629370425913,24718,290350,213600
1629370425923,24718,290349,213585
1629370425933,24715,290359,213571
1629370425943,24718,290311,213529
1629370425953,24712,290337,213535
1629370425963,24722,290336,213524
1629370425973,24724,290331,213533
1629370425983,24723,290375,213541
1629370425993,24732,290358,213533
1629370426003,24727,290377,213544
1629370426013,24725,290362,213553
1629370426023,24731,290381,213548
1629370426033,24735,290427,213545
1629370426043,24747,290431,213549
1629370426053,24754,290451,213556
1629370426063,24757,290452,213555
1629370426073,24766,290470,213577
1629370426083,24763,290456,213568
1629370426093,24766,290538,213588
1629370426103,24778,290515,213586
1629370426113,24778,290537,213582
1629370426123,24786,290551,213587
1629370426133,24786,290519,213583
1629370426143,24801,290535,213601
1629370426153,24803,290511,213589
1629370426163,24809,290580,213621
1629370426173,24813,290581,213618
1629370426183,24819,290598,213648
1629370426193,24836,290588,213676
1629370426203,24835,290621,213650
1629370426213,24842,290632,213689
1629370426223,24851,290676,213723
1629370426233,24866,290665,213708
1629370426243,24870,290687,213718
1629370426253,24883,290670,213726
1629370426263,24888,290740,213736
1629370426273,24894,290715,213745
1629370426283,24899,290786,213747
1629370426293,24909,290797,213773
1629370426303,24921,290803,213777
1629370426313,24931,290818,213808
1629370426323,24942,290840,213802
1629370426333,24949,290827,213812
1629370426343,24951,290849,213828
1629370426353,24969,290880,213818
1629370426363,24962,290927,213830
1629370426373,24976,290907,213854
1629370426383,24974,290941,213860
1629370426393,24989,290922,213867
1629370426403,24995,290958,213866
1629370426413,25003,290940,213875
1629370426423,25010,290937,213891
1629370426433,25016,290967,213898
1629370426443,25032,290930,213895
1629370426453,25020,290937,213922
1629370426463,25033,290895,213911
1629370426473,25036,290914,213901
1629370426483,25040,290932,213940
1629370426493,25037,290930,213919
1629370426503,25029,290915,213943
1629370426513,25038,290921,213914
1629370426523,25030,290912,213915
1629370426533,25030,290918,213938
1629370426543,25028,290844,213929
1629370426553,25025,290862,213921
1629370426563,25030,290839,213930
1629370426573,25029,290846,213936
1629370426583,25028,290831,213909
1629370426593,25022,290848,213918
1629370426603,25019,290829,213908
1629370426613,25017,290840,213882
1629370426623,25020,290812,213919
1629370426633,25008,290800,213909
1629370426643,25010,290782,213914
1629370426653,24996,290764,213918
1629370426663,24998,290782,213916
1629370426673,24999,290809,213908
1629370426683,24996,290804,213943
1629370426693,24991,290769,213930
1629370426703,24985,290813,213925
1629370426713,24987,290775,213964
1629370426723,24987,290791,213936
1629370426733,24986,290786,213962
1629370426743,24983,290814,213950
1629370426753,24982,290802,213953
1629370426763,24979,290807,213937
1629370426773,24980,290785,213953
1629370426783,24979,290789,213956
1629370426793,24969,290772,213948
1629370426803,24972,290767,213943
1629370426813,24968,290790,213930
1629370426823,24967,290789,213953
1629370426833,24959,290758,213934
1629370426843,24957,290791,213947
1629370426853,24951,290819,213930
1629370426863,24956,290812,213932
1629370426873,24951,290742,213941
1629370426883,24953,290818,213928
1629370426893,24955,290761,213942
1629370426903,24953,290799,213914
1629370426913,24952,290781,213939
1629370426923,24953,290780,213933
1629370426933,24947,290824,213951
1629370426943,24957,290838,213939
1629370426953,24954,290798,213934
1629370426963,24952,290817,213923
1629370426973,24959,290831,213936
1629370426983,24958,290813,213907
1629370426993,24949,290800,213914
1629370427003,24961,290842,213897
1629370427013,24956,290819,213882
1629370427023,24950,290827,213882
1629370427033,24956,290822,213921
1629370427043,24958,290794,213906
1629370427053,24960,290839,213897
1629370427063,24959,290860,213881
1629370427073,24954,290830,213893
1629370427083,24961,290855,213893
1629370427093,24967,290823,213874
1629370427103,24971,290851,213878
1629370427113,24966,290871,213877
1629370427123,24965,290876,213879
1629370427133,24974,290911,213877
1629370427143,24965,290869,213884
1629370427153,24978,290880,213866
1629370427163,24970,290894,213876
1629370427173,24976,290856,213855
1629370427183,24980,290903,213870
1629370427193,24975,290926,213866
1629370427203,24977,290912,213838
1629370427213,24977,290939,213858
1629370427223,24988,290919,213861
1629370427233,24986,290965,213867
1629370427243,24991,290937,213843
1629370427253,24988,290922,213860
1629370427263,24990,290971,213825
1629370427273,24998,290954,213849
1629370427283,24989,290962,213826
1629370427293,24996,290963,213822
1629370427303,24999,290958,213846
1629370427313,24999,290992,213835
1629370427323,25007,290997,213812
1629370427333,25013,290965,213786
1629370427343,25002,291026,213822
1629370427353,25002,290970,213801
1629370427363,25011,291004,213815
1629370427373,25011,291017,213810
1629370427383,25016,291078,213807
1629370427393,25026,291108,213803
1629370427403,25030,291068,213817
1629370427413,25042,291074,213834
1629370427423,25048,291081,213823
1629370427433,25046,291091,213834
1629370427443,25057,291035,213846
1629370427453,25053,291057,213857
1629370427463,25062,290996,213842
1629370427473,25053,291044,213837
1629370427483,25060,291012,213841
1629370427493,25064,291025,213849
1629370427503,25059,291012,213832
1629370427513,25053,290998,213846
1629370427523,25043,291023,213846
1629370427533,25040,290985,213854
1629370427543,25041,290986,213863
1629370427553,25036,290929,213854
1629370427563,25032,290938,213846
1629370427573,25019,290936,213847
1629370427583,25022,290916,213868
1629370427593,25009,290894,213825
1629370427603,25009,290904,213816
1629370427613,25000,290841,213807
1629370427623,24976,290846,213806
1629370427633,24978,290834,213829
1629370427643,24970,290853,213807
1629370427653,24964,290799,213786
1629370427663,24943,290829,213776
1629370427673,24942,290781,213766
1629370427683,24929,290800,213756
1629370427693,24918,290795,213763
1629370427703,24911,290754,213751
1629370427713,24905,290756,213759
1629370427723,24897,290739,213745
1629370427733,24894,290722,213756
1629370427743,24888,290722,213722
1629370427753,24875,290738,213724
1629370427763,24875,290685,213681
1629370427773,24862,290675,213704
1629370427783,24860,290725,213696
1629370427793,24852,290691,213698
1629370427803,24846,290708,213670
1629370427813,24838,290692,213675
1629370427823,24833,290670,213663
1629370427833,24832,290679,213641
1629370427843,24818,290695,213659
1629370427853,24819,290684,213664
1629370427863,24813,290624,213653
1629370427873,24811,290678,213660
1629370427883,24807,290668,213633
1629370427893,24800,290682,213630
1629370427903,24790,290633,213633
1629370427913,24797,290677,213606
1629370427923,24785,290659,213618
1629370427933,24787,290625,213613
1629370427943,24772,290664,213595
1629370427953,24773,290677,213604
1629370427963,24767,290686,213599
1629370427973,24772,290674,213594
1629370427983,24773,290635,213575
1629370427993,24762,290660,213548
1629370428003,24763,290648,213554
1629370428013,24763,290653,213565
1629370428023,24759,290667,213537
1629370428033,24757,290648,213545
1629370428043,24755,290654,213545
1629370428053,24756,290662,213559
1629370428063,24753,290661,213539
1629370428073,24748,290629,213528
1629370428083,24748,290652,213516
1629370428093,24740,290684,213509
1629370428103,24746,290667,213512
1629370428113,24749,290702,213509
1629370428123,24739,290678,213524
1629370428133,24748,290645,213493
1629370428143,24746,290682,213513
1629370428153,24743,290671,213520
1629370428163,24757,290746,213516
1629370428173,24760,290722,213547
1629370428183,24761,290754,213539
1629370428193,24758,290756,213535
1629370428203,24755,290722,213505
1629370428213,24758,290757,213521
1629370428223,24760,290744,213517
1629370428233,24762,290739,213499
1629370428243,24755,290756,213509
1629370428253,24760,290746,213468
1629370428263,24757,290744,213482
1629370428273,24778,290770,213500
1629370428283,24786,290792,213548
1629370428293,24798,290807,213581
1629370428303,24812,290868,213611
1629370428313,24820,290872,213635
1629370428323,24829,290855,213632
1629370428333,24829,290927,213619
1629370428343,24831,290919,213608
1629370428353,24834,290870,213618
1629370428363,24838,290914,213633
1629370428373,24856,290983,213667
1629370428383,24868,290985,213693
1629370428393,24880,290981,213707
1629370428403,24893,291004,213714
1629370428413,24912,290992,213784
1629370428423,24931,291031,213801
1629370428433,24936,291057,213813
1629370428443,24942,291108,213832
1629370428453,24957,291085,213857
1629370428463,24972,291117,213863
1629370428473,24974,291087,213858
1629370428483,24972,291096,213846
1629370428493,24965,291068,213803
1629370428503,24968,291048,213814
1629370428513,24966,290978,213793
1629370428523,24968,290976,213761
1629370428533,24963,290969,213811
1629370428543,24969,290990,213823
1629370428553,24985,290985,213874
1629370428563,25002,290967,213909
1629370428573,25002,291001,213942
1629370428583,25015,290954,214012
1629370428593,25012,291025,214048
1629370428603,25042,291048,214108
1629370428613,25052,291111,214158
1629370428623,25080,291094,214223
1629370428633,25088,291172,214302
1629370428643,25116,291165,214378
1629370428653,25137,291192,214445
1629370428663,25150,291187,214501
1629370428673,25177,291276,214623
1629370428683,25199,291253,214697
1629370428693,25237,291332,214829
1629370428703,25273,291405,214945
1629370428713,25312,291476,215086
1629370428723,25344,291520,215199
1629370428733,25373,291521,215294
1629370428743,25410,291594,215383
1629370428753,25429,291666,215491
1629370428763,25448,291648,215527
1629370428773,25466,291638,215617
1629370428783,25471,291674,215649
1629370428793,25496,291726,215721
1629370428803,25509,291744,215783
1629370428813,25523,291743,215842
1629370428823,25535,291809,215878
1629370428833,25546,291819,215936
1629370428843,25555,291786,215951
1629370428853,25555,291774,216003
1629370428863,25555,291797,215987
1629370428873,25560,291808,216012
1629370428883,25550,291769,216022
1629370428893,25556,291759,216028
1629370428903,25558,291776,216057
1629370428913,25548,291795,216052
1629370428923,25555,291810,216033
1629370428933,25565,291773,216071
1629370428943,25554,291762,216088
1629370428953,25556,291799,216102
1629370428963,25545,291744,216080
1629370428973,25547,291753,216064
1629370428983,25529,291763,216034
1629370428993,25524,291700,216051
1629370429003,25522,291682,216040
1629370429013,25517,291721,216025
1629370429023,25511,291668,216031
1629370429033,25491,291683,216003
1629370429043,25506,291665,216000
1629370429053,25501,291668,216029
1629370429063,25499,291642,215989
1629370429073,25492,291657,215972
1629370429083,25476,291628,215966
1629370429093,25470,291622,215938
1629370429103,25461,291617,215913
1629370429113,25454,291587,215857
1629370429123,25442,291521,215865
1629370429133,25426,291495,215821
1629370429143,25417,291495,215797
1629370429153,25408,291479,215783
1629370429163,25407,291508,215782
1629370429173,25401,291517,215754
1629370429183,25399,291505,215736
1629370429193,25405,291486,215734
1629370429203,25386,291492,215717
1629370429213,25385,291486,215718
1629370429223,25374,291513,215706
1629370429233,25373,291482,215669
1629370429243,25362,291484,215661
1629370429253,25366,291443,215630
1629370429263,25361,291449,215585
1629370429273,25345,291461,215619
1629370429283,25356,291485,215614
1629370429293,25352,291474,215598
1629370429303,25355,291472,215600
1629370429313,25362,291493,215624
1629370429323,25365,291509,215638
1629370429333,25364,291497,215626
1629370429343,25372,291496,215615
1629370429353,25368,291531,215625
1629370429363,25367,291508,215634
1629370429373,25366,291512,215600
1629370429383,25373,291564,215610
1629370429393,25380,291518,215627
1629370429403,25394,291568,215645
1629370429413,25405,291522,215664
1629370429423,25406,291595,215658
1629370429433,25419,291592,215682
1629370429443,25425,291580,215687
1629370429453,25428,291571,215685
1629370429463,25436,291623,215720
1629370429473,25445,291644,215743
1629370429483,25454,291622,215734
1629370429493,25453,291604,215753
1629370429503,25459,291599,215755
1629370429513,25460,291566,215778
1629370429523,25460,291557,215748
1629370429533,25461,291553,215756
1629370429543,25464,291511,215783
1629370429553,25447,291477,215774
1629370429563,25452,291559,215789
1629370429573,25438,291498,215757
1629370429583,25421,291484,215770
1629370429593,25428,291443,215751
1629370429603,25407,291400,215756
1629370429613,25395,291419,215740
1629370429623,25392,291367,215740
1629370429633,25379,291337,215721
1629370429643,25369,291328,215725
1629370429653,25358,291276,215693
1629370429663,25353,291255,215719
1629370429673,25339,291244,215687
1629370429683,25331,291167,215705
1629370429693,25317,291206,215711
1629370429703,25313,291165,215697
1629370429713,25298,291173,215694
1629370429723,25291,291210,215684
1629370429733,25288,291123,215685
1629370429743,25272,291096,215656
1629370429753,25255,291070,215690
1629370429763,25252,291112,215678
1629370429773,25239,291118,215662
1629370429783,25242,291103,215666
1629370429793,25230,291067,215663
1629370429803,25223,291041,215646
1629370429813,25214,291084,215671
1629370429823,25214,291011,215681
1629370429833,25208,291007,215680
1629370429843,25209,290963,215655
1629370429853,25189,291005,215663
1629370429863,25190,290979,215635
1629370429873,25170,290959,215628
1629370429883,25166,290946,215583
1629370429893,25150,290964,215580
1629370429903,25134,290885,215559
1629370429913,25127,290888,215559
1629370429923,25127,290842,215556
1629370429933,25116,290875,215515
1629370429943,25110,290865,215518
1629370429953,25103,290864,215508
1629370429963,25091,290843,215477
1629370429973,25085,290796,215471
1629370429983,25077,290797,215432
1629370429993,25069,290785,215418
1629370430003,25062,290787,215396
1629370430013,25052,290758,215398
1629370430023,25043,290774,215386
1629370430033,25035,290794,215357
1629370430043,25034,290745,215368
1629370430053,25022,290731,215347
1629370430063,25021,290759,215329
1629370430073,25015,290744,215334
1629370430083,25022,290723,215311
1629370430093,25017,290720,215320
1629370430103,25018,290754,215341
1629370430113,25019,290730,215329
1629370430123,25011,290733,215347
1629370430133,25010,290784,215315
1629370430143,25020,290761,215323
1629370430153,25020,290760,215340
1629370430163,25029,290755,215368
1629370430173,25028,290751,215374
1629370430183,25045,290803,215408
1629370430193,25044,290799,215376
1629370430203,25045,290796,215400
1629370430213,25053,290793,215424
1629370430223,25062,290843,215432
1629370430233,25068,290852,215465
1629370430243,25066,290856,215442
1629370430253,25070,290879,215423
1629370430263,25071,290839,215450
1629370430273,25067,290834,215445
1629370430283,25072,290842,215422
1629370430293,25075,290858,215415
1629370430303,25075,290852,215426
1629370430313,25077,290848,215410
1629370430323,25074,290840,215388
1629370430333,25069,290846,215381
1629370430343,25081,290839,215382
1629370430353,25081,290927,215377
1629370430363,25084,290839,215367
1629370430373,25085,290866,215362
1629370430383,25085,290893,215375
1629370430393,25099,290868,215380
1629370430403,25095,290884,215350
1629370430413,25094,290881,215387
1629370430423,25096,290872,215355
1629370430433,25099,290888,215371
1629370430443,25102,290935,215374
1629370430453,25105,290927,215357
1629370430463,25105,290954,215343
1629370430473,25114,290929,215351
1629370430483,25109,290927,215376
1629370430493,25117,290936,215357
1629370430503,25131,290935,215408
1629370430513,25146,290969,215435
1629370430523,25156,290923,215395
1629370430533,25160,290925,215433
1629370430543,25154,290928,215436
1629370430553,25170,290918,215449
1629370430563,25174,290895,215481
1629370430573,25169,290898,215479
1629370430583,25159,290893,215467
1629370430593,25170,290849,215469
1629370430603,25152,290870,215472
1629370430613,25153,290849,215477
1629370430623,25143,290792,215460
1629370430633,25136,290825,215479
1629370430643,25136,290807,215480
1629370430653,25138,290737,215494
1629370430663,25129,290761,215535
1629370430673,25121,290686,215499
1629370430683,25112,290705,215502
1629370430693,25105,290677,215507
1629370430703,25098,290644,215501
1629370430713,25089,290623,215512
1629370430723,25065,290620,215475
1629370430733,25070,290593,215479
1629370430743,25049,290595,215497
1629370430753,25034,290537,215481
1629370430763,25019,290487,215460
1629370430773,25003,290470,215423
1629370430783,24993,290454,215428
1629370430793,24982,290454,215419
1629370430803,24964,290367,215387
1629370430813,24959,290379,215374
1629370430823,24945,290369,215358
1629370430833,24932,290314,215354
1629370430843,24929,290323,215370
1629370430853,24920,290303,215327
1629370430863,24907,290295,215344
1629370430873,24906,290280,215318
1629370430883,24889,290270,215306
1629370430893,24883,290264,215313
1629370430903,24879,290229,215285
1629370430913,24864,290194,215260
1629370430923,24852,290211,215275
1629370430933,24839,290166,215234
1629370430943,24833,290151,215235
1629370430953,24830,290141,215244
1629370430963,24828,290120,215194
1629370430973,24829,290102,215220
1629370430983,24807,290083,215219
1629370430993,24806,290119,215188
1629370431003,24802,290077,215177
1629370431013,24791,290075,215190
1629370431023,24788,290105,215181
1629370431033,24795,290090,215180
1629370431043,24786,290085,215147
1629370431053,24780,290073,215139
1629370431063,24783,290038,215157
1629370431073,24778,290108,215153
1629370431083,24781,290116,215160
1629370431093,24777,290062,215141
1629370431103,24780,290055,215170
1629370431113,24782,290076,215160
1629370431123,24782,290058,215174
1629370431133,24784,290039,215194
1629370431143,24784,290117,215213
1629370431153,24791,290099,215203
1629370431163,24794,290116,215227
1629370431173,24799,290137,215196
1629370431183,24798,290087,215226
1629370431193,24792,290115,215200
1629370431203,24809,290116,215222
1629370431213,24804,290088,215249
1629370431223,24815,290101,215246
1629370431233,24820,290143,215264
1629370431243,24816,290139,215269
1629370431253,24823,290156,215267
1629370431263,24833,290180,215257
1629370431273,24835,290187,215280
1629370431283,24842,290179,215297
1629370431293,24851,290171,215321
1629370431303,24853,290220,215341
1629370431313,24860,290211,215341
1629370431323,24871,290268,215369
1629370431333,24882,290230,215373
1629370431343,24894,290265,215407
1629370431353,24915,290254,215459
1629370431363,24933,290332,215498
1629370431373,24953,290361,215537
1629370431383,24962,290331,215553
1629370431393,24973,290378,215598
1629370431403,24989,290403,215637
1629370431413,25007,290427,215682
1629370431423,25027,290435,215727
1629370431433,25047,290440,215754
1629370431443,25078,290522,215829
1629370431453,25108,290585,215906
1629370431463,25137,290573,215981
1629370431473,25164,290600,216040
1629370431483,25195,290676,216103
1629370431493,25225,290679,216180
1629370431503,25253,290719,216241
1629370431513,25283,290773,216308
1629370431523,25310,290852,216368
1629370431533,25353,290869,216467
1629370431543,25379,290899,216558
1629370431553,25402,290932,216580
1629370431563,25429,290994,216668
1629370431573,25458,291016,216744
1629370431583,25485,291012,216793
1629370431593,25501,291048,216839
1629370431603,25529,291048,216916
1629370431613,25548,291060,216975
1629370431623,25564,291070,216998
1629370431633,25570,291064,217022
1629370431643,25587,291029,217054
1629370431653,25599,291026,217103
1629370431663,25597,291034,217110
1629370431673,25590,290992,217153
1629370431683,25594,290978,217142
1629370431693,25596,290980,217162
1629370431703,25588,290926,217147
1629370431713,25589,290894,217135
1629370431723,25575,290884,217182
1629370431733,25576,290866,217175
1629370431743,25561,290835,217174
1629370431753,25555,290798,217161
1629370431763,25551,290778,217144
1629370431773,25530,290750,217156
1629370431783,25520,290699,217150
1629370431793,25509,290628,217116
1629370431803,25491,290569,217086
1629370431813,25476,290550,217092
1629370431823,25459,290492,217067
1629370431833,25453,290505,217077
1629370431843,25435,290453,217074
1629370431853,25414,290425,217026
1629370431863,25401,290398,216988
1629370431873,25385,290357,216995
1629370431883,25374,290304,216986
1629370431893,25355,290363,216971
1629370431903,25348,290294,216967
1629370431913,25331,290248,216923
1629370431923,25317,290204,216908
1629370431933,25313,290211,216925
1629370431943,25310,290187,216909
1629370431953,25307,290148,216916
1629370431963,25304,290144,216916
1629370431973,25304,290198,216935
1629370431983,25288,290158,216916
1629370431993,25288,290075,216888
1629370432003,25274,290113,216891
1629370432013,25280,290085,216903
1629370432023,25265,290089,216875
1629370432033,25265,290067,216895
1629370432043,25251,290052,216891
1629370432053,25249,290034,216868
1629370432063,25246,290002,216885
1629370432073,25242,289994,216876
1629370432083,25238,289972,216854
1629370432093,25234,289949,216851
1629370432103,25230,289929,216854
1629370432113,25229,289918,216852
1629370432123,25235,289915,216853
1629370432133,25234,289918,216853
1629370432143,25235,289907,216866
1629370432153,25226,289923,216852
1629370432163,25227,289915,216834
1629370432173,25220,289870,216849
1629370432183,25220,289883,216819
1629370432193,25211,289841,216820
1629370432203,25205,289815,216823
1629370432213,25210,289831,216789
1629370432223,25207,289823,216811
1629370432233,25211,289853,216795
1629370432243,25215,289857,216826
1629370432253,25215,289840,216828
1629370432263,25220,289822,216822
1629370432273,25225,289812,216800
1629370432283,25226,289853,216829
1629370432293,25215,289831,216822
1629370432303,25218,289809,216805
1629370432313,25227,289815,216821
1629370432323,25233,289849,216833
1629370432333,25232,289798,216824
1629370432343,25232,289791,216829
1629370432353,25232,289793,216841
1629370432363,25238,289820,216853
1629370432373,25245,289848,216830
1629370432383,25248,289832,216840
1629370432393,25250,289802,216859
1629370432403,25241,289770,216850
1629370432413,25245,289809,216842
1629370432423,25245,289815,216832
1629370432433,25250,289815,216822
1629370432443,25245,289782,216839
1629370432453,25247,289776,216821
1629370432463,25252,289767,216815
1629370432473,25248,289842,216798
1629370432483,25252,289768,216812
1629370432493,25236,289754,216813
1629370432503,25252,289764,216793
1629370432513,25237,289739,216778
1629370432523,25238,289749,216778
1629370432533,25245,289792,216742
1629370432543,25249,289753,216736
1629370432553,25242,289715,216721
1629370432563,25242,289718,216713
1629370432573,25238,289720,216718
1629370432583,25234,289767,216695
1629370432593,25233,289752,216683
1629370432603,25234,289710,216672
1629370432613,25231,289760,216687
1629370432623,25242,289730,216683
1629370432633,25239,289707,216650
1629370432643,25241,289757,216661
1629370432653,25252,289752,216653
1629370432663,25247,289718,216681
1629370432673,25264,289751,216678
1629370432683,25259,289742,216681
1629370432693,25266,289749,216696
1629370432703,25275,289682,216684
1629370432713,25282,289733,216718
1629370432723,25280,289699,216728
1629370432733,25280,289696,216712
1629370432743,25282,289669,216746
1629370432753,25280,289643,216749
1629370432763,25277,289654,216779
1629370432773,25273,289616,216752
1629370432783,25259,289584,216764
1629370432793,25254,289580,216753
1629370432803,25241,289527,216753
1629370432813,25235,289495,216788
1629370432823,25235,289477,216766
1629370432833,25205,289495,216763
1629370432843,25203,289410,216732
1629370432853,25194,289418,216748
1629370432863,25184,289393,216753
1629370432873,25173,289354,216727
1629370432883,25159,289294,216735
1629370432893,25151,289271,216724
1629370432903,25134,289263,216717
1629370432913,25115,289232,216732
1629370432923,25121,289213,216723
1629370432933,25110,289201,216692
1629370432943,25093,289147,216695
1629370432953,25073,289114,216676
1629370432963,25074,289117,216672
1629370432973,25057,289088,216659
1629370432983,25040,289057,216654
1629370432993,25024,289010,216597
1629370433003,25012,288987,216581
1629370433013,24997,288933,216574
1629370433023,24982,288916,216569
1629370433033,24970,288900,216506
1629370433043,24957,288877,216510
1629370433053,24929,288808,216435
1629370433063,24912,288770,216383
1629370433073,24892,288776,216356
1629370433083,24868,288743,216307
1629370433093,24852,288651,216240
1629370433103,24824,288659,216191
1629370433113,24805,288614,216125
1629370433123,24771,288585,216072
1629370433133,24751,288526,216015
1629370433143,24729,288529,215975
1629370433153,24698,288440,215895
1629370433163,24681,288434,215883
1629370433173,24661,288416,215812
1629370433183,24638,288361,215756
1629370433193,24614,288345,215694
1629370433203,24585,288300,215619
1629370433213,24556,288245,215543
1629370433223,24532,288197,215458
1629370433233,24499,288192,215399
1629370433243,24475,288161,215341
1629370433253,24450,288146,215242
1629370433263,24421,288091,215161
1629370433273,24393,288033,215116
1629370433283,24376,288032,215050
1629370433293,24354,288026,215026
1629370433303,24322,287965,214945
1629370433313,24306,287954,214901
1629370433323,24279,287945,214821
1629370433333,24265,287929,214785
1629370433343,24242,287912,214761
1629370433353,24226,287875,214653
1629370433363,24199,287882,214613
1629370433373,24185,287835,214587
1629370433383,24178,287803,214519
1629370433393,24158,287790,214502
1629370433403,24149,287780,214427
1629370433413,24115,287754,214347
1629370433423,24101,287718,214284
1629370433433,24071,287730,214202
1629370433443,24034,287667,214121
1629370433453,24016,287644,214041
1629370433463,23985,287583,213945
1629370433473,23966,287554,213863
1629370433483,23943,287554,213773
1629370433493,23914,287507,213702
1629370433503,23887,287447,213631
1629370433513,23870,287436,213584
1629370433523,23847,287431,213540
1629370433533,23831,287433,213480
1629370433543,23810,287409,213428
1629370433553,23791,287377,213367
1629370433563,23777,287397,213309
1629370433573,23751,287361,213237
1629370433583,23734,287358,213195
1629370433593,23729,287328,213170
1629370433603,23719,287355,213132
1629370433613,23699,287375,213095
1629370433623,23687,287340,213043
1629370433633,23670,287327,212979
1629370433643,23659,287290,212911
1629370433653,23632,287261,212842
1629370433663,23609,287271,212758
1629370433673,23587,287213,212719
1629370433683,23565,287207,212659
1629370433693,23555,287210,212621
1629370433703,23537,287199,212571
1629370433713,23524,287168,212502
1629370433723,23512,287171,212481
1629370433733,23497,287183,212425
1629370433743,23486,287174,212419
1629370433753,23477,287196,212367
1629370433763,23472,287203,212343
1629370433773,23468,287136,212341
1629370433783,23463,287110,212309
1629370433793,23445,287106,212269
1629370433803,23440,287095,212273
1629370433813,23431,287096,212262
1629370433823,23415,287075,212269
1629370433833,23412,287057,212289
1629370433843,23403,287092,212298
1629370433853,23398,287084,212305
1629370433863,23393,287020,212298
1629370433873,23376,287067,212259
1629370433883,23372,287036,212272
1629370433893,23345,287006,212245
1629370433903,23314,286983,212220
1629370433913,23304,286941,212168
1629370433923,23288,286951,212194
1629370433933,23276,286928,212165
1629370433943,23265,286914,212189
1629370433953,23251,286876,212181
1629370433963,23245,286899,212188
1629370433973,23224,286850,212209
1629370433983,23205,286857,212171
1629370433993,23191,286853,212183
1629370434003,23177,286810,212152
1629370434013,23159,286845,212130
1629370434023,23143,286789,212144
1629370434033,23132,286795,212125
1629370434043,23121,286785,212127
1629370434053,23100,286792,212068
1629370434063,23092,286772,212106
1629370434073,23090,286755,212079
1629370434083,23068,286733,212060
1629370434093,23061,286755,212048
1629370434103,23050,286734,212065
1629370434113,23041,286727,212079
1629370434123,23028,286754,212079
1629370434133,23019,286740,212051
1629370434143,23002,286722,212048
1629370434153,22989,286777,212038
1629370434163,22988,286763,212064
1629370434173,22985,286751,212060
1629370434183,22985,286762,212061
1629370434193,22978,286787,212063
1629370434203,22976,286766,212036
1629370434213,22968,286791,212034
1629370434223,22961,286797,212024
1629370434233,22955,286781,211994
1629370434243,22940,286738,211936
1629370434253,22918,286696,211904
1629370434263,22897,286696,211864
1629370434273,22877,286659,211830
1629370434283,22871,286651,211797
1629370434293,22864,286608,211787
1629370434303,22851,286631,211757
1629370434313,22845,286622,211713
1629370434323,22833,286617,211633
1629370434333,22805,286508,211568
1629370434343,22783,286415,211462
1629370434353,22747,286396,211357
1629370434363,22708,286278,211209
1629370434373,22664,286160,211030
1629370434383,22598,286054,210790
1629370434393,22533,285902,210513
1629370434403,22457,285761,210294
1629370434413,22390,285550,210007
1629370434423,22313,285393,209728
1629370434433,22239,285269,209499
1629370434443,22173,285131,209255
1629370434453,22131,285032,209077
1629370434463,22056,284894,208840
1629370434473,22012,284803,208686
1629370434483,21958,284699,208470
1629370434493,21907,284607,208328
1629370434503,21858,284494,208146
1629370434513,21819,284453,207987
1629370434523,21776,284370,207845
1629370434533,21738,284295,207695
1629370434543,21692,284221,207562
1629370434553,21663,284112,207450
1629370434563,21631,284091,207326
1629370434573,21602,284010,207260
1629370434583,21587,283991,207157
1629370434593,21564,284006,207095
1629370434603,21549,283948,207053
1629370434613,21538,283981,206962
1629370434623,21513,283897,206936
1629370434633,21491,283917,206855
1629370434643,21469,283860,206759
1629370434653,21459,283873,206703
1629370434663,21443,283842,206668
1629370434673,21432,283804,206612
1629370434683,21424,283821,206572
1629370434693,21417,283843,206560
1629370434703,21406,283828,206528
1629370434713,21406,283805,206470
1629370434723,21388,283799,206451
1629370434733,21383,283826,206391
1629370434743,21382,283750,206369
1629370434753,21365,283751,206331
1629370434763,21355,283799,206284
1629370434773,21344,283769,206231
1629370434783,21338,283727,206178
1629370434793,21328,283656,206144
1629370434803,21317,283681,206092
1629370434813,21307,283644,206053
1629370434823,21298,283612,206012
1629370434833,21286,283554,205989
1629370434843,21285,283532,205958
1629370434853,21283,283513,205937
1629370434863,21271,283510,205925
1629370434873,21257,283457,205914
1629370434883,21254,283427,205909
1629370434893,21233,283432,205884
1629370434903,21226,283373,205841
1629370434913,21206,283357,205815
1629370434923,21197,283339,205806
1629370434933,21178,283315,205780
1629370434943,21170,283287,205804
1629370434953,21159,283261,205779
1629370434963,21142,283264,205785
1629370434973,21146,283242,205787
1629370434983,21135,283198,205782
1629370434993,21125,283235,205770
1629370435003,21114,283150,205751
1629370435013,21109,283109,205739
1629370435023,21104,283134,205742
1629370435033,21088,283096,205771
1629370435043,21086,283058,205758
1629370435053,21071,283096,205766
1629370435063,21063,283087,205778
1629370435073,21062,283065,205788
1629370435083,21053,283078,205811
1629370435093,21062,283059,205793
1629370435103,21063,283048,205832
1629370435113,21055,283072,205835
1629370435123,21055,283064,205833
1629370435133,21057,283022,205834
1629370435143,21054,283031,205857
1629370435153,21046,283073,205858
1629370435163,21044,283037,205871
1629370435173,21044,283018,205879
1629370435183,21045,283030,205879
1629370435193,21049,283022,205886
1629370435203,21042,283029,205923
1629370435213,21045,283031,205926
1629370435223,21046,283067,205917
1629370435233,21048,283024,205931
1629370435243,21054,283043,205947
1629370435253,21051,283022,205949
1629370435263,21058,283056,205991
1629370435273,21051,283065,205978
1629370435283,21066,283077,205997
1629370435293,21064,283065,205999
1629370435303,21071,283047,206018
1629370435313,21075,283069,206017
1629370435323,21083,283068,206033
1629370435333,21090,283120,206062
1629370435343,21098,283131,206079
1629370435353,21108,283118,206086
1629370435363,21119,283129,206104
1629370435373,21118,283138,206146
1629370435383,21125,283196,206132
1629370435393,21122,283202,206165
1629370435403,21143,283225,206199
1629370435413,21153,283224,206189
1629370435423,21146,283245,206232
1629370435433,21164,283211,206195
1629370435443,21159,283206,206204
1629370435453,21162,283251,206182
1629370435463,21167,283272,206213
1629370435473,21186,283270,206244
1629370435483,21203,283278,206280
1629370435493,21222,283341,206341
1629370435503,21232,283401,206397
1629370435513,21243,283394,206406
1629370435523,21257,283472,206465
1629370435533,21278,283465,206489
1629370435543,21291,283503,206514
1629370435553,21310,283516,206550
1629370435563,21325,283570,206585
1629370435573,21324,283562,206583
1629370435583,21341,283577,206652
1629370435593,21359,283651,206668
1629370435603,21363,283651,206699
1629370435613,21372,283653,206719
1629370435623,21389,283690,206732
1629370435633,21401,283756,206791
1629370435643,21412,283752,206823
1629370435653,21427,283768,206826
1629370435663,21441,283809,206880
1629370435673,21455,283854,206855
1629370435683,21461,283823,206868
1629370435693,21459,283854,206871
1629370435703,21473,283834,206893
1629370435713,21473,283893,206882
1629370435723,21470,283896,206899
1629370435733,21481,283926,206883
1629370435743,21489,283919,206861
1629370435753,21485,283967,206874
1629370435763,21500,283919,206901
1629370435773,21504,283951,206907
1629370435783,21510,283957,206878
1629370435793,21524,283967,206921
1629370435803,21529,284003,206927
1629370435813,21541,284063,206911
1629370435823,21556,284104,206957
1629370435833,21567,284066,206985
1629370435843,21579,284066,206998
1629370435853,21590,284086,207022
1629370435863,21600,284125,207039
1629370435873,21609,284079,207055
1629370435883,21604,284121,207086
1629370435893,21621,284102,207112
1629370435903,21616,284081,207128
1629370435913,21619,284064,207144
1629370435923,21628,284072,207163
1629370435933,21628,284084,207179
1629370435943,21627,284069,207228
1629370435953,21632,284081,207247
1629370435963,21632,284097,207269
1629370435973,21633,284055,207267
1629370435983,21631,284063,207257
1629370435993,21624,284043,207296
1629370436003,21635,284032,207325
1629370436013,21639,284056,207344
1629370436023,21636,284018,207370
1629370436033,21636,284001,207389
1629370436043,21638,284056,207407
1629370436053,21640,283999,207436
1629370436063,21642,284048,207462
1629370436073,21645,284040,207490
1629370436083,21645,284018,207472
1629370436093,21647,284029,207502
1629370436103,21649,284037,207531
1629370436113,21654,284062,207533
1629370436123,21661,284019,207573
1629370436133,21667,284024,207584
1629370436143,21670,283993,207576
1629370436153,21675,284052,207640
1629370436163,21676,284047,207614
1629370436173,21672,284027,207652
1629370436183,21685,284039,207655
1629370436193,21688,284049,207667
1629370436203,21683,284072,207697
1629370436213,21700,283991,207703
1629370436223,21702,284073,207696
1629370436233,21709,284028,207739
1629370436243,21708,284007,207762
1629370436253,21710,284033,207755
1629370436263,21714,284026,207777
1629370436273,21718,284016,207783
1629370436283,21718,284051,207787
1629370436293,21721,284023,207781
1629370436303,21724,284014,207777
1629370436313,21726,284065,207796
1629370436323,21734,284030,207801
1629370436333,21735,284028,207806
1629370436343,21745,284055,207821
1629370436353,21745,284034,207840
1629370436363,21753,284061,207862
1629370436373,21754,284059,207834
1629370436383,21749,284041,207838
1629370436393,21759,284064,207831
1629370436403,21762,284077,207842
1629370436413,21764,284089,207862
1629370436423,21771,284076,207839
1629370436433,21774,284045,207859
1629370436443,21781,284077,207875
1629370436453,21778,284098,207864
1629370436463,21788,284050,207858
1629370436473,21794,284083,207864
1629370436483,21802,284117,207895
1629370436493,21800,284074,207908
1629370436503,21801,284096,207912
1629370436513,21818,284131,207921
1629370436523,21819,284144,207921
1629370436533,21828,284149,207939
1629370436543,21843,284130,207954
1629370436553,21839,284202,207951
1629370436563,21855,284232,207961
1629370436573,21866,284232,208010
1629370436583,21873,284230,207993
1629370436593,21872,284213,208008
1629370436603,21882,284246,208026
1629370436613,21894,284261,208049
1629370436623,21912,284283,208049
1629370436633,21925,284330,208100
1629370436643,21940,284343,208127
1629370436653,21943,284338,208132
1629370436663,21961,284355,208124
1629370436673,21960,284348,208159
1629370436683,21966,284396,208188
1629370436693,21982,284427,208199
1629370436703,21999,284375,208192
1629370436713,22010,284441,208223
1629370436723,22015,284469,208246
1629370436733,22032,284505,208256
1629370436743,22043,284509,208299
1629370436753,22053,284485,208309
1629370436763,22067,284515,208324
1629370436773,22074,284577,208314
1629370436783,22086,284581,208359
1629370436793,22100,284582,208365
1629370436803,22112,284571,208382
1629370436813,22124,284584,208392
1629370436823,22136,284618,208422
1629370436833,22142,284625,208447
1629370436843,22142,284631,208430
1629370436853,22151,284558,208424
1629370436863,22157,284587,208438
1629370436873,22157,284606,208459
1629370436883,22154,284571,208483
1629370436893,22157,284570,208475
1629370436903,22154,284567,208485
1629370436913,22153,284549,208503
1629370436923,22149,284513,208465
1629370436933,22145,284523,208488
1629370436943,22137,284482,208447
1629370436953,22124,284485,208468
1629370436963,22116,284445,208429
1629370436973,22111,284432,208475
1629370436983,22107,284390,208437
1629370436993,22093,284429,208426
1629370437003,22087,284372,208417
1629370437013,22072,284313,208391
1629370437023,22068,284339,208406
1629370437033,22059,284283,208403
1629370437043,22035,284336,208397
1629370437053,22034,284283,208397
1629370437063,22019,284224,208388
1629370437073,22009,284266,208361
1629370437083,21999,284230,208363
1629370437093,21995,284228,208351
1629370437103,21987,284228,208372
1629370437113,21979,284226,208344
1629370437123,21979,284168,208343
1629370437133,21974,284208,208321
1629370437143,21959,284136,208329
1629370437153,21954,284137,208303
1629370437163,21966,284153,208298
1629370437173,21952,284191,208292
1629370437183,21940,284107,208276
1629370437193,21945,284176,208282
1629370437203,21933,284097,208288
1629370437213,21929,284144,208297
1629370437223,21920,284129,208291
1629370437233,21920,284079,208252
1629370437243,21921,284102,208264
1629370437253,21915,284088,208278
1629370437263,21913,284120,208259
1629370437273,21911,284130,208267
1629370437283,21911,284105,208276
1629370437293,21912,284147,208271
1629370437303,21905,284110,208259
1629370437313,21911,284123,208261
1629370437323,21913,284165,208279
1629370437333,21915,284175,208292
1629370437343,21914,284147,208282
1629370437353,21911,284136,208283
1629370437363,21908,284127,208278
1629370437373,21904,284145,208267
1629370437383,21922,284182,208259
1629370437393,21908,284223,208264
1629370437403,21915,284177,208267
1629370437413,21917,284170,208291
1629370437423,21923,284197,208276
1629370437433,21921,284233,208303
1629370437443,21923,284187,208287
1629370437453,21930,284208,208267
1629370437463,21938,284249,208297
1629370437473,21941,284221,208286
1629370437483,21943,284240,208306
1629370437493,21955,284258,208300
1629370437503,21944,284275,208305
1629370437513,21951,284290,208309
1629370437523,21956,284276,208309
1629370437533,21958,284320,208323
1629370437543,21968,284334,208319
1629370437553,21972,284280,208332
1629370437563,21977,284309,208334
1629370437573,21987,284416,208348
1629370437583,21994,284368,208364
1629370437593,21988,284393,208358
1629370437603,22002,284379,208356
1629370437613,22005,284408,208381
1629370437623,22012,284415,208370
1629370437633,22013,284451,208405
1629370437643,22020,284455,208388
1629370437653,22036,284453,208398
1629370437663,22039,284469,208411
1629370437673,22042,284469,208387
1629370437683,22048,284552,208397
1629370437693,22062,284490,208389
1629370437703,22060,284542,208435
1629370437713,22066,284539,208417
1629370437723,22073,284575,208417
1629370437733,22080,284566,208431
1629370437743,22094,284597,208447
1629370437753,22096,284614,208476
1629370437763,22103,284643,208492
1629370437773,22108,284646,208479
1629370437783,22117,284677,208488
1629370437793,22119,284701,208494
1629370437803,22129,284725,208516
1629370437813,22151,284687,208520
1629370437823,22155,284785,208506
1629370437833,22157,284806,208549
1629370437843,22180,284777,208524
1629370437853,22178,284850,208568
1629370437863,22191,284807,208593
1629370437873,22201,284812,208622
1629370437883,22212,284829,208620
1629370437893,22216,284832,208629
1629370437903,22220,284811,208659
1629370437913,22232,284795,208676
1629370437923,22232,284790,208649
1629370437933,22223,284819,208675
1629370437943,22238,284797,208692
1629370437953,22230,284776,208714
1629370437963,22242,284748,208722
1629370437973,22240,284779,208726
1629370437983,22226,284825,208743
1629370437993,22227,284774,208752
1629370438003,22221,284762,208765
1629370438013,22235,284838,208785
1629370438023,22223,284747,208792
1629370438033,22218,284720,208809
1629370438043,22212,284747,208798
1629370438053,22207,284742,208805
1629370438063,22203,284674,208795
1629370438073,22201,284692,208814
1629370438083,22192,284635,208804
1629370438093,22183,284668,208832
1629370438103,22180,284642,208830
1629370438113,22164,284633,208840
1629370438123,22163,284602,208847
1629370438133,22146,284582,208840
1629370438143,22152,284553,208842
1629370438153,22137,284549,208847
1629370438163,22127,284600,208871
1629370438173,22140,284587,208848
1629370438183,22136,284561,208833
1629370438193,22119,284529,208840
1629370438203,22121,284559,208838
1629370438213,22115,284570,208843
1629370438223,22115,284522,208856
1629370438233,22111,284498,208877
1629370438243,22107,284535,208863
1629370438253,22102,284549,208854
1629370438263,22106,284531,208856
1629370438273,22105,284511,208868
1629370438283,22094,284523,208868
1629370438293,22095,284528,208858
1629370438303,22091,284463,208858
1629370438313,22095,284505,208863
1629370438323,22091,284506,208866
1629370438333,22092,284512,208873
1629370438343,22095,284500,208861
1629370438353,22085,284499,208858
1629370438363,22087,284502,208889
1629370438373,22088,284497,208859
1629370438383,22084,284508,208862
1629370438393,22083,284505,208864
1629370438403,22090,284509,208853
1629370438413,22083,284503,208850
1629370438423,22088,284538,208896
1629370438433,22085,284502,208879
1629370438443,22092,284548,208884
1629370438453,22095,284503,208854
1629370438463,22085,284535,208870
1629370438473,22087,284512,208866
1629370438483,22092,284570,208878
1629370438493,22091,284565,208872
1629370438503,22100,284540,208887
1629370438513,22097,284557,208879
1629370438523,22101,284580,208879
1629370438533,22104,284556,208875
1629370438543,22118,284609,208877
1629370438553,22114,284603,208905
1629370438563,22119,284588,208904
1629370438573,22122,284601,208892
1629370438583,22118,284662,208888
1629370438593,22124,284657,208877
1629370438603,22135,284712,208905
1629370438613,22142,284683,208911
1629370438623,22144,284641,208896
1629370438633,22144,284694,208899
1629370438643,22150,284711,208931
1629370438653,22149,284689,208914
1629370438663,22162,284667,208925
1629370438673,22166,284742,208950
1629370438683,22173,284746,208932
1629370438693,22176,284764,208936
1629370438703,22176,284802,208962
1629370438713,22185,284744,208944
1629370438723,22194,284804,208964
1629370438733,22198,284832,208988
1629370438743,22205,284821,208983
1629370438753,22214,284873,208983
1629370438763,22211,284882,208984
1629370438773,22220,284872,208988
1629370438783,22236,284887,208997
1629370438793,22242,284923,209008
1629370438803,22245,284906,209028
1629370438813,22256,284973,209020
1629370438823,22266,284979,209027
1629370438833,22268,284949,209053
1629370438843,22279,284999,209074
1629370438853,22287,285065,209062
1629370438863,22293,285006,209057
1629370438873,22301,285022,209079
1629370438883,22307,285035,209107
1629370438893,22316,285081,209114
1629370438903,22322,285123,209107
1629370438913,22338,285093,209107
1629370438923,22344,285114,209105
1629370438933,22349,285140,209133
1629370438943,22362,285170,209128
1629370438953,22369,285160,209165
1629370438963,22374,285208,209156
1629370438973,22377,285242,209146
1629370438983,22397,285234,209185
1629370438993,22391,285253,209193
1629370439003,22407,285199,209187
1629370439013,22413,285226,209186
1629370439023,22416,285224,209206
1629370439033,22420,285203,209235
1629370439043,22422,285168,209196
1629370439053,22420,285228,209230
1629370439063,22419,285164,209227
1629370439073,22415,285165,209217
1629370439083,22426,285174,209238
1629370439093,22414,285177,209241
1629370439103,22403,285140,209241
1629370439113,22407,285138,209258
1629370439123,22403,285115,209250
1629370439133,22411,285137,209236
1629370439143,22399,285084,209263
1629370439153,22390,285082,209259
1629370439163,22386,285079,209243
1629370439173,22382,285060,209257
1629370439183,22369,285032,209267
1629370439193,22360,285041,209256
1629370439203,22359,284995,209261
1629370439213,22347,284998,209259
1629370439223,22342,284964,209259
1629370439233,22331,284992,209266
1629370439243,22331,284995,209250
1629370439253,22324,284971,209253
1629370439263,22314,284989,209255
1629370439273,22308,284956,209255
1629370439283,22315,284970,209251
1629370439293,22300,284947,209239
1629370439303,22293,284931,209242
1629370439313,22297,284959,209248
1629370439323,22285,284948,209246
1629370439333,22282,284889,209228
1629370439343,22289,284921,209252
1629370439353,22279,284927,209258
1629370439363,22274,284915,209244
1629370439373,22269,284907,209243
1629370439383,22267,284892,209238
1629370439393,22257,284896,209234
1629370439403,22260,284865,209229
1629370439413,22254,284898,209239
1629370439423,22247,284895,209235
1629370439433,22254,284887,209205
1629370439443,22262,284840,209237
1629370439453,22253,284895,209230
1629370439463,22253,284877,209227
1629370439473,22251,284916,209222
1629370439483,22246,284894,209226
1629370439493,22251,284907,209224
1629370439503,22248,284885,209218
1629370439513,22248,284866,209224
1629370439523,22251,284903,209233
1629370439533,22252,284921,209235
1629370439543,22252,284912,209235
1629370439553,22262,284878,209209
1629370439563,22251,284885,209234
1629370439573,22264,284893,209201
1629370439583,22254,284921,209222
1629370439593,22258,284922,209225
1629370439603,22258,284932,209220
1629370439613,22276,284932,209215
1629370439623,22273,284967,209245
1629370439633,22267,284953,209230
1629370439643,22272,284973,209228
1629370439653,22277,284992,209261
1629370439663,22278,284999,209246
1629370439673,22282,284976,209260
1629370439683,22292,285001,209261
1629370439693,22294,284975,209254
1629370439703,22294,285056,209278
1629370439713,22300,285026,209303
1629370439723,22304,285060,209282
1629370439733,22315,285027,209277
1629370439743,22306,285040,209282
1629370439753,22319,285040,209269
1629370439763,22321,285081,209251
1629370439773,22323,285095,209292
1629370439783,22319,285097,209262
1629370439793,22333,285112,209291
1629370439803,22330,285113,209315
1629370439813,22345,285150,209317
1629370439823,22346,285143,209305
1629370439833,22353,285165,209332
1629370439843,22359,285167,209301
1629370439853,22360,285190,209303
1629370439863,22359,285161,209314
1629370439873,22370,285233,209321
1629370439883,22376,285189,209294
1629370439893,22376,285248,209298
1629370439903,22383,285227,209309
1629370439913,22394,285249,209317
1629370439923,22394,285265,209312
1629370439933,22404,285285,209319
1629370439943,22392,285344,209323
1629370439953,22412,285295,209323
1629370439963,22408,285304,209355
1629370439973,22415,285314,209336
1629370439983,22432,285351,209355
1629370439993,22436,285363,209361
1629370440003,22442,285366,209361
1629370440013,22451,285364,209353
1629370440023,22458,285410,209378
1629370440033,22469,285439,209353
1629370440043,22479,285462,209373
1629370440053,22479,285461,209384
1629370440063,22487,285460,209410
1629370440073,22487,285523,209384
1629370440083,22492,285492,209389
1629370440093,22510,285502,209410
1629370440103,22513,285521,209417
1629370440113,22513,285522,209414
1629370440123,22518,285504,209417
1629370440133,22521,285503,209456
1629370440143,22523,285499,209448
1629370440153,22526,285487,209438
1629370440163,22523,285465,209438
1629370440173,22519,285424,209446
1629370440183,22516,285456,209451
1629370440193,22514,285422,209451
1629370440203,22509,285426,209436
1629370440213,22503,285398,209438
1629370440223,22501,285429,209459
1629370440233,22493,285392,209439
1629370440243,22492,285415,209421
1629370440253,22484,285337,209426
1629370440263,22472,285374,209421
1629370440273,22463,285331,209431
1629370440283,22458,285329,209441
1629370440293,22447,285270,209411
1629370440303,22438,285209,209419
1629370440313,22433,285260,209418
1629370440323,22424,285269,209432
1629370440333,22421,285230,209399
1629370440343,22406,285204,209401
1629370440353,22398,285204,209389
1629370440363,22389,285223,209374
1629370440373,22378,285164,209394
1629370440383,22374,285157,209375
1629370440393,22363,285154,209351
1629370440403,22358,285173,209384
1629370440413,22357,285157,209354
1629370440423,22342,285126,209324
1629370440433,22340,285153,209349
1629370440443,22328,285142,209357
1629370440453,22328,285111,209317
1629370440463,22326,285152,209334
1629370440473,22322,285118,209330
1629370440483,22313,285078,209322
1629370440493,22305,285073,209289
1629370440503,22301,285043,209288
1629370440513,22298,285079,209294
1629370440523,22293,285086,209284
1629370440533,22294,285068,209296
1629370440543,22290,285040,209269
1629370440553,22291,285102,209285
1629370440563,22288,285077,209264
1629370440573,22277,285095,209267
1629370440583,22281,285028,209263
1629370440593,22285,285085,209289
1629370440603,22287,285080,209257
1629370440613,22274,285129,209266
1629370440623,22277,285086,209250
1629370440633,22276,285120,209229
1629370440643,22276,285086,209239
1629370440653,22275,285056,209249
1629370440663,22275,285050,209236
1629370440673,22280,285127,209255
1629370440683,22275,285143,209240
1629370440693,22289,285116,209246
1629370440703,22289,285136,209240
1629370440713,22279,285140,209254
1629370440723,22295,285104,209236
1629370440733,22292,285130,209245
1629370440743,22293,285155,209217
1629370440753,22288,285203,209265
1629370440763,22290,285128,209213
1629370440773,22285,285165,209222
1629370440783,22297,285180,209226
1629370440793,22296,285186,209245
1629370440803,22303,285225,209225
1629370440813,22305,285183,209232
1629370440823,22307,285205,209237
1629370440833,22311,285192,209230
1629370440843,22312,285239,209240
1629370440853,22312,285244,209228
1629370440863,22320,285275,209241
1629370440873,22325,285250,209215
1629370440883,22321,285274,209238
1629370440893,22332,285265,209212
1629370440903,22333,285261,209220
1629370440913,22337,285318,209230
1629370440923,22346,285286,209223
1629370440933,22340,285349,209214
1629370440943,22346,285365,209245
1629370440953,22361,285345,209235
1629370440963,22362,285347,209229
1629370440973,22364,285394,209231
1629370440983,22371,285373,209247
1629370440993,22373,285392,209257
1629370441003,22376,285413,209256
1629370441013,22379,285402,209255
1629370441023,22389,285440,209252
1629370441033,22388,285492,209240
1629370441043,22398,285454,209260
1629370441053,22415,285450,209240
1629370441063,22409,285514,209257
1629370441073,22426,285486,209260
1629370441083,22425,285545,209285
1629370441093,22430,285574,209279
1629370441103,22440,285559,209297
1629370441113,22443,285562,209298
1629370441123,22453,285567,209289
1629370441133,22458,285582,209318
1629370441143,22464,285592,209305
1629370441153,22466,285621,209314
1629370441163,22483,285631,209311
1629370441173,22482,285663,209324
1629370441183,22487,285694,209339
1629370441193,22494,285716,209339
1629370441203,22500,285732,209351
1629370441213,22504,285742,209345
1629370441223,22525,285727,209341
1629370441233,22528,285720,209333
1629370441243,22526,285776,209339
1629370441253,22533,285746,209351
1629370441263,22539,285706,209361
1629370441273,22539,285733,209350
1629370441283,22538,285679,209353
1629370441293,22541,285707,209353
1629370441303,22541,285714,209365
1629370441313,22537,285658,209378
1629370441323,22537,285679,209364
1629370441333,22531,285668,209365
1629370441343,22530,285652,209353
1629370441353,22526,285624,209359
1629370441363,22514,285664,209346
1629370441373,22520,285614,209366
1629370441383,22504,285612,209384
1629370441393,22507,285552,209376
1629370441403,22484,285586,209343
1629370441413,22479,285574,209333
1629370441423,22472,285536,209307
1629370441433,22459,285515,209335
1629370441443,22448,285471,209319
1629370441453,22441,285502,209296
1629370441463,22428,285459,209287
1629370441473,22419,285412,209279
1629370441483,22408,285404,209267
1629370441493,22398,285401,209267
1629370441503,22383,285451,209262
1629370441513,22380,285412,209253
1629370441523,22366,285440,209248
1629370441533,22363,285392,209256
1629370441543,22360,285405,209224
1629370441553,22344,285334,209239
1629370441563,22338,285369,209248
1629370441573,22334,285381,209210
1629370441583,22323,285311,209205
1629370441593,22330,285343,209245
1629370441603,22318,285345,209229
1629370441613,22317,285318,209210
1629370441623,22316,285339,209203
1629370441633,22306,285275,209188
1629370441643,22297,285278,209174
1629370441653,22295,285312,209173
1629370441663,22293,285298,209153
1629370441673,22288,285302,209186
1629370441683,22278,285299,209181
1629370441693,22280,285312,209172
1629370441703,22272,285310,209149
1629370441713,22270,285320,209166
1629370441723,22271,285269,209146
1629370441733,22260,285287,209136
1629370441743,22269,285318,209138
1629370441753,22253,285292,209137
1629370441763,22270,285314,209137
1629370441773,22263,285324,209141
1629370441783,22268,285352,209116
1629370441793,22266,285347,209137
1629370441803,22262,285341,209124
1629370441813,22263,285366,209132
1629370441823,22269,285348,209140
1629370441833,22271,285360,209145
1629370441843,22270,285376,209142
1629370441853,22264,285337,209144
1629370441863,22271,285373,209126
1629370441873,22274,285389,209144
1629370441883,22281,285397,209145
1629370441893,22274,285421,209116
1629370441903,22274,285383,209141
1629370441913,22276,285410,209120
1629370441923,22281,285457,209133
1629370441933,22286,285452,209147
1629370441943,22290,285441,209150
1629370441953,22292,285467,209136
1629370441963,22294,285498,209143
1629370441973,22301,285506,209163
1629370441983,22305,285470,209165
1629370441993,22311,285492,209145
1629370442003,22305,285529,209170
1629370442013,22316,285547,209189
1629370442023,22329,285587,209184
1629370442033,22320,285555,209158
1629370442043,22321,285589,209160
1629370442053,22328,285619,209185
1629370442063,22321,285600,209176
1629370442073,22339,285594,209181
1629370442083,22342,285617,209194
1629370442093,22348,285639,209166
1629370442103,22352,285647,209196
1629370442113,22358,285685,209191
1629370442123,22361,285705,209199
1629370442133,22364,285664,209184
1629370442143,22367,285678,209175
1629370442153,22375,285708,209179
1629370442163,22377,285701,209198
1629370442173,22378,285703,209199
1629370442183,22371,285759,209170
1629370442193,22380,285747,209177
1629370442203,22388,285768,209172
1629370442213,22397,285829,209156
1629370442223,22405,285801,209188
1629370442233,22402,285796,209199
1629370442243,22409,285825,209194
1629370442253,22413,285851,209177
1629370442263,22423,285858,209200
1629370442273,22423,285841,209203
1629370442283,22434,285894,209199
1629370442293,22438,285899,209189
1629370442303,22443,285874,209206
1629370442313,22451,285923,209207
1629370442323,22463,285952,209189
1629370442333,22473,285996,209197
1629370442343,22474,285944,209225
1629370442353,22478,285979,209202
1629370442363,22482,286020,209233
1629370442373,22496,286004,209218
1629370442383,22503,286039,209226
1629370442393,22507,286001,209260
1629370442403,22514,286076,209246
1629370442413,22515,286023,209231
1629370442423,22519,286024,209219
1629370442433,22522,286045,209253
1629370442443,22527,286031,209266
1629370442453,22526,285990,209248
1629370442463,22525,285996,209245
1629370442473,22517,285996,209245
1629370442483,22523,285969,209251
1629370442493,22511,285973,209265
1629370442503,22513,285966,209274
1629370442513,22509,285946,209269
1629370442523,22503,285939,209269
1629370442533,22505,285942,209245
1629370442543,22495,285927,209249
1629370442553,22496,285956,209271
1629370442563,22480,285918,209267
1629370442573,22476,285913,209260
1629370442583,22469,285865,209265
1629370442593,22452,285885,209249
1629370442603,22445,285853,209245
1629370442613,22438,285821,209243
1629370442623,22431,285824,209224
1629370442633,22423,285795,209260
1629370442643,22419,285783,209226
1629370442653,22405,285784,209229
1629370442663,22391,285784,209197
1629370442673,22385,285763,209225
1629370442683,22373,285738,209202
1629370442693,22378,285731,209193
1629370442703,22365,285737,209198
1629370442713,22367,285692,209189
1629370442723,22357,285734,209187
1629370442733,22351,285740,209185
1629370442743,22342,285714,209185
1629370442753,22339,285706,209166
1629370442763,22331,285732,209172
1629370442773,22332,285722,209146
1629370442783,22330,285714,209156
1629370442793,22315,285652,209143
1629370442803,22321,285676,209173
1629370442813,22316,285665,209149
1629370442823,22307,285682,209151
1629370442833,22307,285646,209135
1629370442843,22307,285639,209137
1629370442853,22293,285663,209138
1629370442863,22301,285638,209151
1629370442873,22282,285657,209139
1629370442883,22293,285639,209145
1629370442893,22292,285654,209122
1629370442903,22289,285665,209130
1629370442913,22286,285683,209122
1629370442923,22285,285686,209142
1629370442933,22291,285680,209107
1629370442943,22291,285692,209102
1629370442953,22294,285719,209126
1629370442963,22293,285697,209142
1629370442973,22295,285706,209114
1629370442983,22289,285717,209123
1629370442993,22293,285701,209145
1629370443003,22290,285740,209119
1629370443013,22300,285739,209124
1629370443023,22300,285758,209114
1629370443033,22301,285781,209121
1629370443043,22301,285750,209119
1629370443053,22304,285762,209142
1629370443063,22304,285769,209135
1629370443073,22310,285760,209134
1629370443083,22310,285758,209160
1629370443093,22319,285766,209162
1629370443103,22320,285830,209137
1629370443113,22327,285813,209154
1629370443123,22330,285845,209168
1629370443133,22326,285860,209177
1629370443143,22340,285828,209187
1629370443153,22336,285843,209176
1629370443163,22351,285861,209200
1629370443173,22344,285897,209203
1629370443183,22357,285928,209212
1629370443193,22362,285922,209199
1629370443203,22365,285889,209217
1629370443213,22371,285929,209234
1629370443223,22376,285942,209218
1629370443233,22382,285980,209250
1629370443243,22389,285960,209233
1629370443253,22391,285997,209232
1629370443263,22395,285992,209240
1629370443273,22401,285995,209242
1629370443283,22410,286037,209262
1629370443293,22417,286072,209254
1629370443303,22421,286079,209279
1629370443313,22426,286079,209304
1629370443323,22442,286067,209295
1629370443333,22448,286074,209303
1629370443343,22449,286149,209299
1629370443353,22459,286127,209317
1629370443363,22472,286131,209296
1629370443373,22480,286147,209345
1629370443383,22477,286189,209342
1629370443393,22489,286160,209345
1629370443403,22494,286179,209351
1629370443413,22499,286218,209379
1629370443423,22507,286249,209371
1629370443433,22517,286276,209392
1629370443443,22522,286257,209380
1629370443453,22528,286294,209399
1629370443463,22543,286279,209408
1629370443473,22549,286308,209423
1629370443483,22552,286330,209469
1629370443493,22567,286339,209416
1629370443503,22571,286382,209469
1629370443513,22578,286359,209450
1629370443523,22574,286414,209455
1629370443533,22590,286415,209499
1629370443543,22600,286430,209474
1629370443553,22613,286456,209480
1629370443563,22615,286405,209481
1629370443573,22625,286406,209494
1629370443583,22621,286403,209505
1629370443593,22634,286371,209529
1629370443603,22626,286367,209539
1629370443613,22623,286393,209526
1629370443623,22626,286365,209551
1629370443633,22628,286357,209541
1629370443643,22623,286384,209548
1629370443653,22629,286382,209553
1629370443663,22615,286331,209544
1629370443673,22622,286298,209540
1629370443683,22620,286337,209565
1629370443693,22614,286296,209536
1629370443703,22609,286315,209567
1629370443713,22599,286287,209538
1629370443723,22588,286275,209536
1629370443733,22581,286197,209525
1629370443743,22584,286262,209522
1629370443753,22570,286219,209529
1629370443763,22561,286193,209534
1629370443773,22545,286159,209502
1629370443783,22546,286187,209525
1629370443793,22540,286208,209495
1629370443803,22527,286156,209506
1629370443813,22521,286159,209504
1629370443823,22525,286137,209473
1629370443833,22514,286145,209498
1629370443843,22503,286147,209471
1629370443853,22500,286146,209474
1629370443863,22496,286117,209481
1629370443873,22492,286106,209448
1629370443883,22484,286097,209458
1629370443893,22485,286083,209468
1629370443903,22478,286025,209458
1629370443913,22474,286071,209458
1629370443923,22463,286049,209460
1629370443933,22467,286068,209438
1629370443943,22453,286020,209432
1629370443953,22451,285999,209415
1629370443963,22452,285999,209423
1629370443973,22460,286057,209403
1629370443983,22445,286013,209418
1629370443993,22442,286035,209390
1629370444003,22447,286016,209408
1629370444013,22440,286023,209397
1629370444023,22441,285977,209392
1629370444033,22436,285997,209390
1629370444043,22436,286031,209397
1629370444053,22436,286044,209372
1629370444063,22434,285993,209376
1629370444073,22436,286026,209373
1629370444083,22428,286022,209379
1629370444093,22430,286041,209389
1629370444103,22438,286041,209353
1629370444113,22434,286038,209387
1629370444123,22433,286049,209380
1629370444133,22438,286049,209382
1629370444143,22435,286005,209364
1629370444153,22436,286026,209390
1629370444163,22439,286095,209340
1629370444173,22449,285973,209374
1629370444183,22448,286096,209381
1629370444193,22442,286086,209370
1629370444203,22444,286057,209372
1629370444213,22450,286049,209363
1629370444223,22452,286083,209363
1629370444233,22452,286059,209349
1629370444243,22453,286090,209362
1629370444253,22457,286109,209367
1629370444263,22464,286087,209364
1629370444273,22462,286125,209367
1629370444283,22459,286098,209351
1629370444293,22474,286106,209369
1629370444303,22479,286172,209359
1629370444313,22477,286176,209375
1629370444323,22486,286155,209391
1629370444333,22485,286133,209395
1629370444343,22488,286149,209377
1629370444353,22492,286174,209387
1629370444363,22498,286213,209384
1629370444373,22499,286196,209370
1629370444383,22502,286208,209386
1629370444393,22510,286213,209393
1629370444403,22514,286204,209364
1629370444413,22513,286256,209368
1629370444423,22522,286213,209378
1629370444433,22527,286225,209395
1629370444443,22532,286250,209430
1629370444453,22531,286272,209404
1629370444463,22530,286288,209409
1629370444473,22551,286291,209392
1629370444483,22549,286309,209409
1629370444493,22563,286321,209411
1629370444503,22562,286354,209427
1629370444513,22568,286353,209418
1629370444523,22575,286328,209426
1629370444533,22579,286361,209437
1629370444543,22586,286367,209429
1629370444553,22593,286368,209438
1629370444563,22598,286419,209418
1629370444573,22610,286379,209450
1629370444583,22619,286439,209440
1629370444593,22614,286409,209451
1629370444603,22620,286453,209464
1629370444613,22631,286447,209460
1629370444623,22632,286508,209466
1629370444633,22642,286466,209467
1629370444643,22649,286473,209496
1629370444653,22654,286496,209486
1629370444663,22660,286487,209507
1629370444673,22661,286499,209492
1629370444683,22670,286497,209492
1629370444693,22663,286445,209490
1629370444703,22664,286431,209490
1629370444713,22664,286413,209484
1629370444723,22658,286407,209505
1629370444733,22648,286445,209479
1629370444743,22656,286341,209490
1629370444753,22651,286396,209488
1629370444763,22644,286377,209514
1629370444773,22639,286360,209482
1629370444783,22639,286343,209503
1629370444793,22639,286355,209482
1629370444803,22626,286294,209491
1629370444813,22612,286314,209467
1629370444823,22603,286257,209488
1629370444833,22595,286243,209449
1629370444843,22583,286194,209436
1629370444853,22578,286230,209430
1629370444863,22565,286194,209442
1629370444873,22556,286183,209429
1629370444883,22550,286199,209450
1629370444893,22542,286188,209418
1629370444903,22531,286161,209431
1629370444913,22526,286153,209434
1629370444923,22512,286109,209428
1629370444933,22515,286116,209422
1629370444943,22506,286078,209434
1629370444953,22493,286093,209396
1629370444963,22484,286110,209374
1629370444973,22482,286076,209393
1629370444983,22474,286095,209383
1629370444993,22473,286044,209370
1629370445003,22462,286032,209373
1629370445013,22457,286056,209369
1629370445023,22453,286001,209362
1629370445033,22443,286010,209377
1629370445043,22434,286019,209364
1629370445053,22432,285977,209336
1629370445063,22428,285960,209320
1629370445073,22422,285981,209329
1629370445083,22418,285945,209311
1629370445093,22412,285961,209325
1629370445103,22411,285956,209293
1629370445113,22408,285933,209305
1629370445123,22404,285912,209297
1629370445133,22401,285960,209283
1629370445143,22397,285944,209267
1629370445153,22393,285955,209296
1629370445163,22390,285934,209279
1629370445173,22393,285926,209285
1629370445183,22390,285949,209288
1629370445193,22382,285952,209279
1629370445203,22388,285958,209261
1629370445213,22385,285965,209249
1629370445223,22384,285961,209278
1629370445233,22388,285956,209257
1629370445243,22380,285943,209271
1629370445253,22381,285956,209240
1629370445263,22386,285996,209276
1629370445273,22391,285961,209252
1629370445283,22397,285994,209239
1629370445293,22385,285986,209258
1629370445303,22387,285948,209236
1629370445313,22393,285962,209226
1629370445323,22392,286022,209254
1629370445333,22395,286015,209241
1629370445343,22398,286031,209249
1629370445353,22395,285988,209258
1629370445363,22400,286055,209241
1629370445373,22398,286031,209242
1629370445383,22403,286048,209250
1629370445393,22397,286045,209233
1629370445403,22413,286027,209247
1629370445413,22407,286065,209233
1629370445423,22407,286033,209260
1629370445433,22418,286081,209265
1629370445443,22422,286048,209244
1629370445453,22421,286067,209253
1629370445463,22423,286092,209266
1629370445473,22423,286105,209267
1629370445483,22434,286100,209280
1629370445493,22439,286102,209264
1629370445503,22444,286144,209278
1629370445513,22443,286148,209308
1629370445523,22449,286159,209297
1629370445533,22454,286156,209287
1629370445543,22462,286191,209271
1629370445553,22463,286230,209308
1629370445563,22473,286198,209319
1629370445573,22478,286258,209297
1629370445583,22491,286230,209315
1629370445593,22486,286262,209343
1629370445603,22492,286253,209330
1629370445613,22503,286280,209345
1629370445623,22510,286319,209343
1629370445633,22516,286292,209349
1629370445643,22514,286339,209335
1629370445653,22518,286318,209353
1629370445663,22528,286336,209343
1629370445673,22531,286368,209373
1629370445683,22535,286371,209373
1629370445693,22541,286373,209368
1629370445703,22553,286403,209379
1629370445713,22563,286418,209382
1629370445723,22564,286452,209387
1629370445733,22566,286454,209402
1629370445743,22566,286415,209407
1629370445753,22586,286493,209399
1629370445763,22585,286457,209407
1629370445773,22595,286471,209391
1629370445783,22599,286486,209432
1629370445793,22592,286490,209408
1629370445803,22611,286486,209416
1629370445813,22612,286457,209437
1629370445823,22608,286464,209442
1629370445833,22613,286432,209433
1629370445843,22613,286422,209440
1629370445853,22608,286380,209467
1629370445863,22612,286438,209457
1629370445873,22606,286432,209448
1629370445883,22597,286375,209453
1629370445893,22597,286381,209443
1629370445903,22592,286314,209463
1629370445913,22583,286313,209465
1629370445923,22579,286326,209443
1629370445933,22562,286292,209452
1629370445943,22566,286273,209426
1629370445953,22558,286282,209437
1629370445963,22545,286238,209434
1629370445973,22538,286214,209438
1629370445983,22526,286241,209426
1629370445993,22518,286182,209426
1629370446003,22505,286148,209412
1629370446013,22496,286106,209410
1629370446023,22488,286149,209416
1629370446033,22475,286125,209410
1629370446043,22464,286129,209407
1629370446053,22462,286090,209413
1629370446063,22447,286083,209402
1629370446073,22447,286102,209384
1629370446083,22430,286087,209394
1629370446093,22423,286067,209387
1629370446103,22421,286074,209383
1629370446113,22419,286050,209358
1629370446123,22410,286023,209362
1629370446133,22403,286022,209364
1629370446143,22402,285970,209354
1629370446153,22393,286018,209351
1629370446163,22385,286001,209322
1629370446173,22382,285971,209343
1629370446183,22376,285906,209327
1629370446193,22378,285981,209328
1629370446203,22375,286001,209348
1629370446213,22365,285943,209323
1629370446223,22357,285967,209320
1629370446233,22364,285911,209323
1629370446243,22353,285959,209323
1629370446253,22354,285951,209316
1629370446263,22351,285929,209320
1629370446273,22355,285936,209305
1629370446283,22345,285937,209313
1629370446293,22345,285946,209326
1629370446303,22339,285941,209333
1629370446313,22343,285952,209303
1629370446323,22339,285941,209304
1629370446333,22346,285985,209311
1629370446343,22341,285937,209332
1629370446353,22342,285953,209330
1629370446363,22340,285950,209291
1629370446373,22346,285963,209310
1629370446383,22349,285950,209318
1629370446393,22351,285955,209327
1629370446403,22345,285965,209341
1629370446413,22354,285956,209349
1629370446423,22355,285967,209355
1629370446433,22348,285998,209306
1629370446443,22363,286006,209327
1629370446453,22357,286015,209325
1629370446463,22359,286004,209344
1629370446473,22360,286016,209334
1629370446483,22364,286017,209330
1629370446493,22366,286016,209359
1629370446503,22371,286003,209349
1629370446513,22377,286067,209369
1629370446523,22385,286072,209358
1629370446533,22392,286092,209344
1629370446543,22382,286073,209339
1629370446553,22393,286063,209361
1629370446563,22390,286093,209377
1629370446573,22389,286108,209396
1629370446583,22402,286145,209384
1629370446593,22407,286155,209393
1629370446603,22410,286164,209394
1629370446613,22410,286167,209393
1629370446623,22419,286156,209396
1629370446633,22420,286219,209411
1629370446643,22424,286198,209416
1629370446653,22434,286235,209398
1629370446663,22432,286264,209406
1629370446673,22438,286280,209398
1629370446683,22447,286247,209411
1629370446693,22444,286245,209433
1629370446703,22448,286290,209425
1629370446713,22451,286303,209406
1629370446723,22463,286302,209449
1629370446733,22465,286334,209452
1629370446743,22472,286328,209459
1629370446753,22487,286348,209452
1629370446763,22490,286360,209461
1629370446773,22488,286380,209456
1629370446783,22496,286414,209472
1629370446793,22499,286407,209460
1629370446803,22511,286392,209466
1629370446813,22516,286413,209494
1629370446823,22523,286476,209483
1629370446833,22526,286483,209509
1629370446843,22541,286454,209507
1629370446853,22544,286524,209539
1629370446863,22549,286558,209526
1629370446873,22554,286513,209520
1629370446883,22560,286535,209533
1629370446893,22567,286556,209534
1629370446903,22575,286566,209527
1629370446913,22585,286570,209553
1629370446923,22592,286561,209546
1629370446933,22595,286548,209550
1629370446943,22598,286555,209579
1629370446953,22603,286516,209547
1629370446963,22604,286573,209561
1629370446973,22606,286554,209586
1629370446983,22607,286580,209585
1629370446993,22603,286482,209570
1629370447003,22604,286512,209591
1629370447013,22600,286509,209565
1629370447023,22601,286484,209591
1629370447033,22598,286452,209588
1629370447043,22591,286477,209582
1629370447053,22582,286390,209576
1629370447063,22572,286416,209604
1629370447073,22583,286406,209569
1629370447083,22560,286433,209596
1629370447093,22556,286425,209579
1629370447103,22556,286369,209579
1629370447113,22545,286326,209583
1629370447123,22535,286308,209572
1629370447133,22527,286313,209576
1629370447143,22522,286314,209553
1629370447153,22512,286282,209553
1629370447163,22504,286273,209569
1629370447173,22492,286275,209577
1629370447183,22489,286257,209543
1629370447193,22481,286216,209566
1629370447203,22484,286211,209602
1629370447213,22476,286251,209567
1629370447223,22477,286215,209571
1629370447233,22471,286192,209556
1629370447243,22475,286202,209579
1629370447253,22467,286214,209584
1629370447263,22460,286187,209607
1629370447273,22457,286241,209579
1629370447283,22450,286175,209561
1629370447293,22446,286205,209567
1629370447303,22446,286194,209572
1629370447313,22441,286141,209559
1629370447323,22435,286158,209552
1629370447333,22438,286167,209563
1629370447343,22435,286125,209570
1629370447353,22430,286183,209571
1629370447363,22435,286168,209557
1629370447373,22419,286189,209557
1629370447383,22430,286141,209550
1629370447393,22423,286166,209543
1629370447403,22425,286123,209535
1629370447413,22426,286133,209531
1629370447423,22420,286127,209548
1629370447433,22418,286125,209564
1629370447443,22420,286168,209545
1629370447453,22412,286137,209546
1629370447463,22419,286140,209535
1629370447473,22416,286160,209531
1629370447483,22420,286139,209541
1629370447493,22413,286171,209551
1629370447503,22418,286162,209534
1629370447513,22414,286172,209517
1629370447523,22418,286155,209538
1629370447533,22427,286158,209501
1629370447543,22434,286147,209540
1629370447553,22421,286184,209528
1629370447563,22423,286182,209519
1629370447573,22433,286170,209505
1629370447583,22429,286191,209518
1629370447593,22431,286152,209504
1629370447603,22432,286181,209512
1629370447613,22434,286189,209506
1629370447623,22439,286188,209509
1629370447633,22438,286186,209484
1629370447643,22443,286218,209489
1629370447653,22443,286200,209488
1629370447663,22443,286169,209494
1629370447673,22439,286242,209475
1629370447683,22453,286223,209473
1629370447693,22458,286236,209496
1629370447703,22458,286214,209477
1629370447713,22463,286205,209476
1629370447723,22468,286252,209495
1629370447733,22471,286229,209460
1629370447743,22468,286236,209478
1629370447753,22478,286250,209478
1629370447763,22478,286257,209466
1629370447773,22485,286268,209487
1629370447783,22492,286271,209466
1629370447793,22497,286296,209461
1629370447803,22501,286311,209477
1629370447813,22508,286292,209501
1629370447823,22505,286324,209469
1629370447833,22517,286308,209462
1629370447843,22513,286368,209462
1629370447853,22517,286347,209474
1629370447863,22525,286377,209450
1629370447873,22531,286376,209468
1629370447883,22540,286364,209472
1629370447893,22540,286370,209466
1629370447903,22551,286417,209468
1629370447913,22553,286351,209493
1629370447923,22557,286388,209452
1629370447933,22563,286386,209434
1629370447943,22569,286412,209461
1629370447953,22575,286399,209468
1629370447963,22580,286444,209460
1629370447973,22584,286488,209468
1629370447983,22597,286480,209429
1629370447993,22595,286444,209485
1629370448003,22600,286481,209459
1629370448013,22614,286473,209459
1629370448023,22617,286466,209483
1629370448033,22627,286459,209464
1629370448043,22615,286423,209467
1629370448053,22619,286436,209495
1629370448063,22622,286372,209464
1629370448073,22621,286350,209469
1629370448083,22617,286360,209476
1629370448093,22614,286365,209484
1629370448103,22614,286382,209458
1629370448113,22610,286318,209441
1629370448123,22604,286294,209447
1629370448133,22597,286313,209434
1629370448143,22590,286282,209429
1629370448153,22596,286274,209413
1629370448163,22580,286225,209404
1629370448173,22574,286251,209405
1629370448183,22570,286191,209387
1629370448193,22560,286137,209374
1629370448203,22542,286160,209379
1629370448213,22539,286127,209372
1629370448223,22526,286080,209357
1629370448233,22517,286055,209336
1629370448243,22507,286054,209321
1629370448253,22500,286029,209304
1629370448263,22489,285991,209286
1629370448273,22478,285976,209257
1629370448283,22474,285942,209267
1629370448293,22461,285914,209247
1629370448303,22463,285938,209248
1629370448313,22447,285892,209244
1629370448323,22444,285932,209210
1629370448333,22444,285877,209203
1629370448343,22430,285920,209205
1629370448353,22434,285888,209173
1629370448363,22415,285840,209186
1629370448373,22422,285855,209179
1629370448383,22418,285813,209157
1629370448393,22410,285819,209155
1629370448403,22404,285801,209143
1629370448413,22402,285810,209158
1629370448423,22395,285808,209110
1629370448433,22394,285781,209144
1629370448443,22389,285766,209104
1629370448453,22390,285783,209097
1629370448463,22380,285755,209098
1629370448473,22388,285718,209091
1629370448483,22378,285733,209103
1629370448493,22377,285694,209086
1629370448503,22378,285716,209069
1629370448513,22378,285707,209094
1629370448523,22376,285718,209059
1629370448533,22373,285695,209056
1629370448543,22377,285698,209051
1629370448553,22385,285743,209063
1629370448563,22376,285708,209060
1629370448573,22377,285711,209055
1629370448583,22375,285711,209058
1629370448593,22373,285751,209037
1629370448603,22377,285708,209071
1629370448613,22379,285732,209047
1629370448623,22372,285715,209032
1629370448633,22378,285757,209048
1629370448643,22379,285702,209016
1629370448653,22383,285754,209039
1629370448663,22384,285732,209028
1629370448673,22379,285718,209012
1629370448683,22389,285758,209033
1629370448693,22394,285726,209044
1629370448703,22381,285773,209028
1629370448713,22393,285754,209021
1629370448723,22393,285772,209035
1629370448733,22400,285767,209019
1629370448743,22396,285755,209025
1629370448753,22400,285781,209028
1629370448763,22401,285755,209029
1629370448773,22415,285806,209021
1629370448783,22408,285771,209014
1629370448793,22416,285784,209015
1629370448803,22421,285827,209037
1629370448813,22418,285784,209043
1629370448823,22430,285827,209009
1629370448833,22445,285832,209032
1629370448843,22440,285842,209037
1629370448853,22445,285878,209016
1629370448863,22445,285868,209039
1629370448873,22450,285889,209015
1629370448883,22455,285881,209024
1629370448893,22458,285881,209031
1629370448903,22461,285870,209027
1629370448913,22465,285924,209023
1629370448923,22464,285910,209036
1629370448933,22473,285926,209041
1629370448943,22470,285957,209008
1629370448953,22475,285917,209016
1629370448963,22480,285957,209020
1629370448973,22492,285973,209027
1629370448983,22489,285969,209013
1629370448993,22502,285979,209013
1629370449003,22508,286004,209036
1629370449013,22507,286053,209029
1629370449023,22516,285982,209034
1629370449033,22517,286070,209057
1629370449043,22522,286030,209043
1629370449053,22529,286104,209055
1629370449063,22530,286051,209039
1629370449073,22537,286082,209040
1629370449083,22542,286078,209066
1629370449093,22552,286117,209064
1629370449103,22554,286122,209053
1629370449113,22565,286125,209055
1629370449123,22574,286108,209022
1629370449133,22575,286075,209054
1629370449143,22568,286091,209056
1629370449153,22580,286111,209062
1629370449163,22575,286037,209056
1629370449173,22579,286059,209091
1629370449183,22578,286052,209089
1629370449193,22571,286043,209073
1629370449203,22570,286020,209075
1629370449213,22569,286047,209064
1629370449223,22562,286012,209083
1629370449233,22562,286015,209039
1629370449243,22555,285976,209059
1629370449253,22554,285960,209052
1629370449263,22550,285933,209067
1629370449273,22546,285930,209058
1629370449283,22530,285908,209050
1629370449293,22521,285883,209058
1629370449303,22510,285883,209045
1629370449313,22509,285871,209041
1629370449323,22503,285825,209052
1629370449333,22504,285839,209024
1629370449343,22483,285842,209016
1629370449353,22480,285798,209044
1629370449363,22477,285844,209011
1629370449373,22461,285781,209008
1629370449383,22466,285816,209025
1629370449393,22457,285805,209041
1629370449403,22449,285737,208975
1629370449413,22442,285763,208991
1629370449423,22436,285746,208993
1629370449433,22433,285767,208975
1629370449443,22428,285742,208972
1629370449453,22424,285697,208948
1629370449463,22420,285682,208964
1629370449473,22414,285726,208977
1629370449483,22410,285721,208975
1629370449493,22397,285714,208939
1629370449503,22401,285711,208951
1629370449513,22393,285663,208924
1629370449523,22386,285698,208908
1629370449533,22388,285678,208914
1629370449543,22382,285671,208931
1629370449553,22384,285655,208934
1629370449563,22380,285657,208923
1629370449573,22373,285661,208896
1629370449583,22375,285633,208894
1629370449593,22380,285684,208892
1629370449603,22375,285661,208908
1629370449613,22372,285679,208921
1629370449623,22368,285653,208887
1629370449633,22371,285653,208909
1629370449643,22371,285643,208903
1629370449653,22361,285656,208874
1629370449663,22373,285695,208887
1629370449673,22369,285661,208901
1629370449683,22370,285690,208884
1629370449693,22373,285682,208879
1629370449703,22377,285696,208877
1629370449713,22374,285686,208885
1629370449723,22377,285675,208891
1629370449733,22377,285680,208863
1629370449743,22376,285738,208897
1629370449753,22385,285685,208845
1629370449763,22386,285723,208892
1629370449773,22383,285719,208880
1629370449783,22386,285718,208886
1629370449793,22375,285725,208855
1629370449803,22393,285719,208870
1629370449813,22399,285739,208876
1629370449823,22389,285762,208869
1629370449833,22397,285717,208860
1629370449843,22399,285739,208886
1629370449853,22401,285777,208876
1629370449863,22404,285772,208879
1629370449873,22403,285796,208859
1629370449883,22411,285772,208876
1629370449893,22414,285805,208897
1629370449903,22419,285804,208886
1629370449913,22412,285813,208861
1629370449923,22422,285852,208887
1629370449933,22427,285863,208875
1629370449943,22432,285887,208880
1629370449953,22423,285857,208875
1629370449963,22438,285843,208862
1629370449973,22450,285889,208890
1629370449983,22451,285897,208897
1629370449993,22460,285899,208885
1629370450003,22455,285942,208893
1629370450013,22463,285932,208871
1629370450023,22468,285953,208895
1629370450033,22472,285983,208914
1629370450043,22476,285972,208903
1629370450053,22479,285998,208930
1629370450063,22486,285983,208911
1629370450073,22495,286021,208921
1629370450083,22494,286006,208905
1629370450093,22506,286038,208901
1629370450103,22503,286017,208908
1629370450113,22523,286044,208934
1629370450123,22521,286095,208930
1629370450133,22529,286105,208939
1629370450143,22527,286084,208940
1629370450153,22540,286114,208951
1629370450163,22546,286110,208941
1629370450173,22543,286147,208939
1629370450183,22555,286198,208915
1629370450193,22558,286180,208950
1629370450203,22567,286171,208948
1629370450213,22567,286167,208958
1629370450223,22580,286153,208960
1629370450233,22582,286176,208968
1629370450243,22594,286153,208948
1629370450253,22590,286167,208940
1629370450263,22595,286159,208965
1629370450273,22600,286115,208975
1629370450283,22594,286105,208980
1629370450293,22594,286140,208985
1629370450303,22589,286107,208975
1629370450313,22588,286116,208950
1629370450323,22584,286120,208976
1629370450333,22580,286082,208956
1629370450343,22576,286109,208952
1629370450353,22569,286097,208976
1629370450363,22571,286043,208958
1629370450373,22563,286069,208933
1629370450383,22550,286052,208941
1629370450393,22544,286032,208931
1629370450403,22542,286044,208916
1629370450413,22532,286018,208934
1629370450423,22525,285965,208923
1629370450433,22523,285952,208930
1629370450443,22504,285918,208919
1629370450453,22499,285942,208941
1629370450463,22494,285908,208916
1629370450473,22487,285917,208921
1629370450483,22471,285917,208909
1629370450493,22468,285888,208888
1629370450503,22466,285864,208922
1629370450513,22457,285920,208893
1629370450523,22449,285882,208918
1629370450533,22446,285869,208867
1629370450543,22441,285852,208883
1629370450553,22430,285808,208874
1629370450563,22424,285854,208865
1629370450573,22421,285833,208824
1629370450583,22421,285810,208854
1629370450593,22410,285836,208877
1629370450603,22407,285802,208847
1629370450613,22401,285777,208855
1629370450623,22396,285757,208825
1629370450633,22395,285803,208837
1629370450643,22396,285809,208834
1629370450653,22386,285803,208832
1629370450663,22386,285782,208828
1629370450673,22386,285773,208844
1629370450683,22383,285775,208838
1629370450693,22376,285790,208824
1629370450703,22377,285782,208826
1629370450713,22376,285753,208818
1629370450723,22376,285821,208816
1629370450733,22370,285766,208829
1629370450743,22374,285805,208805
1629370450753,22369,285774,208829
1629370450763,22379,285785,208817
1629370450773,22376,285789,208770
1629370450783,22368,285776,208798
1629370450793,22377,285806,208827
1629370450803,22369,285790,208805
1629370450813,22368,285822,208806
1629370450823,22367,285805,208792
1629370450833,22369,285777,208794
1629370450843,22374,285813,208802
1629370450853,22374,285788,208819
1629370450863,22374,285806,208804
1629370450873,22375,285786,208796
1629370450883,22385,285815,208799
1629370450893,22379,285847,208803
1629370450903,22379,285846,208791
1629370450913,22378,285835,208818
1629370450923,22380,285830,208819
1629370450933,22381,285853,208807
1629370450943,22390,285852,208800
1629370450953,22392,285853,208819
1629370450963,22403,285886,208833
1629370450973,22413,285843,208827
1629370450983,22396,285883,208840
1629370450993,22403,285882,208827
1629370451003,22409,285910,208814
1629370451013,22407,285899,208815
1629370451023,22413,285896,208855
1629370451033,22419,285898,208844
1629370451043,22420,285973,208851
1629370451053,22416,285952,208857
1629370451063,22422,285922,208840
1629370451073,22431,285999,208832
1629370451083,22441,285975,208854
1629370451093,22441,285999,208863
1629370451103,22448,286008,208844
1629370451113,22454,286053,208846
1629370451123,22458,286020,208864
1629370451133,22458,286025,208862
1629370451143,22460,286047,208884
1629370451153,22466,286071,208880
1629370451163,22470,286029,208882
1629370451173,22480,286109,208892
1629370451183,22480,286113,208900
1629370451193,22487,286127,208896
1629370451203,22497,286103,208890
1629370451213,22503,286133,208910
1629370451223,22511,286108,208919
1629370451233,22514,286155,208931
1629370451243,22517,286202,208909
1629370451253,22529,286179,208917
1629370451263,22529,286167,208926
1629370451273,22539,286209,208933
1629370451283,22542,286207,208942
1629370451293,22544,286255,208926
1629370451303,22553,286239,208956
1629370451313,22555,286239,208948
1629370451323,22554,286270,208953
1629370451333,22568,286253,208965
1629370451343,22567,286251,208955
1629370451353,22581,286236,208966
1629370451363,22581,286212,208967
1629370451373,22578,286246,208981
1629370451383,22578,286218,208962
1629370451393,22574,286175,208982
1629370451403,22572,286193,208982
1629370451413,22584,286204,208988
1629370451423,22580,286181,208973
1629370451433,22559,286118,208985
1629370451443,22574,286139,209009
1629370451453,22560,286155,208999
1629370451463,22558,286123,208993
1629370451473,22548,286130,208989
1629370451483,22548,286118,208998
1629370451493,22540,286111,208989
1629370451503,22535,286093,208978
1629370451513,22520,286054,208990
1629370451523,22515,286022,208991
1629370451533,22510,286051,208973
1629370451543,22500,285994,208984
1629370451553,22486,285999,208972
1629370451563,22475,285957,208955
1629370451573,22472,285971,208941
1629370451583,22466,285920,208951
1629370451593,22452,285940,208946
1629370451603,22447,285939,208941
1629370451613,22439,285898,208957
1629370451623,22430,285907,208940
1629370451633,22420,285910,208949
1629370451643,22416,285875,208916
1629370451653,22411,285875,208910
1629370451663,22407,285856,208916
1629370451673,22403,285842,208905
1629370451683,22396,285837,208891
1629370451693,22394,285829,208914
1629370451703,22384,285832,208890
1629370451713,22393,285797,208902
1629370451723,22378,285786,208891
1629370451733,22370,285800,208877
1629370451743,22375,285834,208891
1629370451753,22373,285790,208877
1629370451763,22371,285786,208861
1629370451773,22358,285807,208860
1629370451783,22364,285756,208869
1629370451793,22364,285758,208876
1629370451803,22364,285805,208864
1629370451813,22353,285754,208869
1629370451823,22355,285748,208866
1629370451833,22352,285738,208852
1629370451843,22354,285798,208859
1629370451853,22352,285737,208841
1629370451863,22344,285763,208857
1629370451873,22349,285754,208851
1629370451883,22346,285778,208869
1629370451893,22349,285757,208851
1629370451903,22350,285770,208850
1629370451913,22355,285741,208847
1629370451923,22363,285772,208874
1629370451933,22356,285751,208858
1629370451943,22356,285778,208858
1629370451953,22359,285792,208859
1629370451963,22356,285770,208853
1629370451973,22359,285818,208856
1629370451983,22364,285768,208876
1629370451993,22363,285770,208864
1629370452003,22364,285798,208864
1629370452013,22368,285821,208842
1629370452023,22366,285764,208848
1629370452033,22371,285796,208876
1629370452043,22381,285800,208854
1629370452053,22378,285814,208860
1629370452063,22387,285782,208867
1629370452073,22384,285824,208842
1629370452083,22395,285828,208876
1629370452093,22390,285835,208885
1629370452103,22396,285792,208885
1629370452113,22402,285802,208888
1629370452123,22401,285820,208858
1629370452133,22409,285840,208854
1629370452143,22422,285833,208869
1629370452153,22421,285842,208848
1629370452163,22426,285843,208884
1629370452173,22430,285874,208874
1629370452183,22432,285826,208879
1629370452193,22436,285842,208901
1629370452203,22448,285905,208901
1629370452213,22451,285850,208898
1629370452223,22461,285913,208908
1629370452233,22471,285884,208888
1629370452243,22463,285902,208896
1629370452253,22472,285938,208896
1629370452263,22476,285900,208876
1629370452273,22486,285884,208916
1629370452283,22489,285940,208914
1629370452293,22497,285952,208904
1629370452303,22506,285949,208948
1629370452313,22514,285970,208932
1629370452323,22521,285932,208947
1629370452333,22526,285959,208952
1629370452343,22543,285997,208978
1629370452353,22552,285957,208993
1629370452363,22562,285995,208973
1629370452373,22570,286022,209003
1629370452383,22590,286047,209013
1629370452393,22591,286041,209017
1629370452403,22596,286051,209047
1629370452413,22615,286016,209048
1629370452423,22625,286079,209077
1629370452433,22645,286033,209094
1629370452443,22657,286088,209122
1629370452453,22674,286074,209159
1629370452463,22688,286052,209168
1629370452473,22705,286047,209207
1629370452483,22711,286068,209231
1629370452493,22719,286040,209263
1629370452503,22733,286079,209293
1629370452513,22742,286058,209321
1629370452523,22752,286020,209326
1629370452533,22735,286053,209354
1629370452543,22735,286064,209364
1629370452553,22750,286062,209378
1629370452563,22754,286027,209410
1629370452573,22753,286013,209398
1629370452583,22747,285970,209420
1629370452593,22739,286008,209411
1629370452603,22742,285975,209402
1629370452613,22734,285945,209417
1629370452623,22728,285968,209404
1629370452633,22718,285910,209408
1629370452643,22714,285909,209423
1629370452653,22706,285895,209401
1629370452663,22698,285881,209407
1629370452673,22691,285827,209411
1629370452683,22673,285790,209388
1629370452693,22682,285787,209390
1629370452703,22674,285790,209382
1629370452713,22679,285783,209396
1629370452723,22675,285782,209403
1629370452733,22676,285773,209410
1629370452743,22682,285767,209411
1629370452753,22675,285733,209419
1629370452763,22668,285719,209419
1629370452773,22668,285729,209427
1629370452783,22666,285669,209379
1629370452793,22666,285719,209430
1629370452803,22665,285679,209420
1629370452813,22667,285694,209436
1629370452823,22661,285698,209423
1629370452833,22653,285669,209441
1629370452843,22652,285675,209447
1629370452853,22663,285686,209445
1629370452863,22648,285673,209453
1629370452873,22660,285705,209453
1629370452883,22658,285660,209475
1629370452893,22655,285686,209481
1629370452903,22658,285621,209483
1629370452913,22658,285679,209469
1629370452923,22654,285659,209463
1629370452933,22652,285661,209475
1629370452943,22646,285674,209479
1629370452953,22651,285641,209470
1629370452963,22650,285654,209452
1629370452973,22653,285650,209469
1629370452983,22646,285668,209459
1629370452993,22647,285661,209469
1629370453003,22650,285656,209477
1629370453013,22648,285695,209478
1629370453023,22660,285644,209451
1629370453033,22662,285663,209485
1629370453043,22659,285668,209485
1629370453053,22658,285655,209507
1629370453063,22656,285687,209507
1629370453073,22661,285671,209478
1629370453083,22669,285706,209498
1629370453093,22668,285685,209506
1629370453103,22673,285718,209513
1629370453113,22672,285713,209516
1629370453123,22670,285709,209532
1629370453133,22675,285709,209513
1629370453143,22676,285763,209509
1629370453153,22685,285765,209514
1629370453163,22680,285780,209516
1629370453173,22686,285756,209511
1629370453183,22688,285755,209508
1629370453193,22687,285735,209515
1629370453203,22695,285761,209525
1629370453213,22690,285800,209521
1629370453223,22693,285803,209552
1629370453233,22701,285837,209537
1629370453243,22703,285773,209553
1629370453253,22708,285809,209541
1629370453263,22713,285863,209537
1629370453273,22712,285868,209540
1629370453283,22725,285821,209541
1629370453293,22733,285848,209554
1629370453303,22730,285856,209560
1629370453313,22737,285895,209590
1629370453323,22750,285898,209595
1629370453333,22744,285899,209608
1629370453343,22756,285905,209618
1629370453353,22758,285931,209616
1629370453363,22771,285955,209595
1629370453373,22762,285987,209616
1629370453383,22788,285950,209630
1629370453393,22782,285958,209634
1629370453403,22779,286034,209623
1629370453413,22784,286022,209605
1629370453423,22794,286026,209643
1629370453433,22794,286059,209619
1629370453443,22803,286076,209614
1629370453453,22806,286042,209619
1629370453463,22808,286092,209608
1629370453473,22817,286093,209629
1629370453483,22822,286109,209645
1629370453493,22826,286138,209668
1629370453503,22834,286129,209658
1629370453513,22841,286139,209656
1629370453523,22852,286147,209677
1629370453533,22860,286175,209685
1629370453543,22851,286172,209669
1629370453553,22869,286209,209678
1629370453563,22874,286201,209691
1629370453573,22883,286193,209725
1629370453583,22888,286239,209699
1629370453593,22889,286208,209718
1629370453603,22896,286162,209701
1629370453613,22905,286203,209717
1629370453623,22901,286188,209737
1629370453633,22908,286190,209723
1629370453643,22907,286185,209750
1629370453653,22910,286206,209738
1629370453663,22903,286176,209782
1629370453673,22902,286193,209750
1629370453683,22904,286150,209767
1629370453693,22891,286149,209773
1629370453703,22889,286145,209782
1629370453713,22891,286109,209770
1629370453723,22888,286133,209796
1629370453733,22887,286110,209789
1629370453743,22895,286062,209755
1629370453753,22873,286076,209772
1629370453763,22866,286037,209764
1629370453773,22861,286084,209765
1629370453783,22851,286046,209767
1629370453793,22843,285994,209752
1629370453803,22839,286005,209745
1629370453813,22831,286024,209740
1629370453823,22827,285997,209738
1629370453833,22821,286014,209749
1629370453843,22829,285981,209769
1629370453853,22804,285941,209787
1629370453863,22813,285963,209758
1629370453873,22809,285989,209755
1629370453883,22801,285967,209745
1629370453893,22795,285923,209774
1629370453903,22788,285926,209740
1629370453913,22784,285930,209744
1629370453923,22785,285926,209753
1629370453933,22777,285980,209779
1629370453943,22776,285910,209731
1629370453953,22775,285968,209730
1629370453963,22772,285938,209726
1629370453973,22771,285913,209746
1629370453983,22765,285901,209711
1629370453993,22762,285916,209729
1629370454003,22766,285955,209735
1629370454013,22758,285923,209739
1629370454023,22751,285907,209727
1629370454033,22753,285900,209715
1629370454043,22752,285923,209710
1629370454053,22753,285902,209725
1629370454063,22746,285933,209684
1629370454073,22751,285911,209700
1629370454083,22749,285930,209707
1629370454093,22754,285874,209702
1629370454103,22750,285907,209701
1629370454113,22745,285959,209694
1629370454123,22750,285902,209702
1629370454133,22758,285917,209709
1629370454143,22748,285931,209673
1629370454153,22745,285933,209695
1629370454163,22756,285961,209677
1629370454173,22747,285914,209668
1629370454183,22756,285957,209686
1629370454193,22748,285920,209695
1629370454203,22764,285963,209692
1629370454213,22756,285970,209699
1629370454223,22755,285969,209683
1629370454233,22753,285972,209672
1629370454243,22758,285956,209688
1629370454253,22760,286012,209683
1629370454263,22764,286016,209672
1629370454273,22760,286064,209669
1629370454283,22765,286059,209676
1629370454293,22767,286044,209658
1629370454303,22761,286005,209670
1629370454313,22770,286045,209674
1629370454323,22776,286041,209672
1629370454333,22774,286053,209682
1629370454343,22792,286033,209687
1629370454353,22787,286061,209685
1629370454363,22783,286108,209680
1629370454373,22793,286107,209688
1629370454383,22797,286112,209690
1629370454393,22803,286132,209682
1629370454403,22804,286142,209691
1629370454413,22807,286133,209692
1629370454423,22817,286180,209691
1629370454433,22820,286172,209721
1629370454443,22822,286205,209717
1629370454453,22834,286182,209713
1629370454463,22841,286197,209735
1629370454473,22851,286224,209724
1629370454483,22847,286250,209717
1629370454493,22854,286233,209727
1629370454503,22850,286229,209745
1629370454513,22867,286302,209749
1629370454523,22872,286264,209746
1629370454533,22881,286318,209764
1629370454543,22888,286305,209757
1629370454553,22892,286335,209771
1629370454563,22898,286333,209761
1629370454573,22906,286332,209772
1629370454583,22911,286345,209786
1629370454593,22912,286390,209748
1629370454603,22920,286395,209776
1629370454613,22919,286423,209765
1629370454623,22938,286427,209771
1629370454633,22941,286425,209793
1629370454643,22947,286449,209764
1629370454653,22946,286450,209806
1629370454663,22957,286489,209790
1629370454673,22964,286498,209782
1629370454683,22971,286495,209791
1629370454693,22976,286505,209809
1629370454703,22983,286515,209797
1629370454713,22988,286502,209806
1629370454723,22990,286522,209829
1629370454733,23002,286516,209850
1629370454743,22999,286516,209857
1629370454753,23006,286488,209844
1629370454763,23010,286506,209852
1629370454773,23008,286511,209851
1629370454783,23009,286490,209862
1629370454793,23007,286463,209875
1629370454803,23003,286518,209889
1629370454813,23003,286539,209885
1629370454823,22998,286536,209894
1629370454833,23004,286532,209899
1629370454843,23018,286525,209967
1629370454853,23040,286567,210031
1629370454863,23047,286558,210044
1629370454873,23050,286558,210049
1629370454883,23047,286530,210098
1629370454893,23056,286613,210127
1629370454903,23074,286575,210196
1629370454913,23097,286602,210256
1629370454923,23126,286643,210311
1629370454933,23143,286643,210391
1629370454943,23169,286693,210476
1629370454953,23196,286746,210532
1629370454963,23203,286790,210612
1629370454973,23225,286853,210662
1629370454983,23251,286856,210710
1629370454993,23262,286825,210763
1629370455003,23281,286933,210827
1629370455013,23309,286880,210906
1629370455023,23334,286928,210972
1629370455033,23355,286950,211025
1629370455043,23386,286964,211098
1629370455053,23405,286963,211149
1629370455063,23425,287011,211209
1629370455073,23438,287058,211279
1629370455083,23457,287085,211351
1629370455093,23483,287159,211404
1629370455103,23505,287151,211459
1629370455113,23526,287200,211512
1629370455123,23547,287174,211550
1629370455133,23564,287189,211613
1629370455143,23579,287223,211629
1629370455153,23601,287245,211677
1629370455163,23602,287264,211713
1629370455173,23619,287259,211763
1629370455183,23631,287244,211788
1629370455193,23640,287256,211785
1629370455203,23654,287257,211835
1629370455213,23662,287256,211852
1629370455223,23674,287300,211902
1629370455233,23678,287271,211910
1629370455243,23681,287271,211905
1629370455253,23692,287271,211914
1629370455263,23699,287287,211920
1629370455273,23700,287257,211928
1629370455283,23708,287273,211933
1629370455293,23708,287296,211948
1629370455303,23709,287289,211935
1629370455313,23709,287325,211957
1629370455323,23712,287285,211925
1629370455333,23716,287290,211946
1629370455343,23720,287262,211917
1629370455353,23706,287248,211917
1629370455363,23714,287276,211916
1629370455373,23709,287213,211908
1629370455383,23710,287179,211889
1629370455393,23708,287216,211893
1629370455403,23703,287218,211860
1629370455413,23697,287231,211827
1629370455423,23702,287170,211834
1629370455433,23705,287203,211829
1629370455443,23687,287160,211806
1629370455453,23687,287178,211799
1629370455463,23688,287161,211771
1629370455473,23689,287135,211770
1629370455483,23688,287135,211742
1629370455493,23681,287155,211742
1629370455503,23680,287141,211708
1629370455513,23677,287108,211705
1629370455523,23671,287095,211671
1629370455533,23662,287131,211664
1629370455543,23660,287096,211644
1629370455553,23661,287121,211613
1629370455563,23655,287135,211597
1629370455573,23657,287112,211593
1629370455583,23655,287050,211578
1629370455593,23653,287123,211563
1629370455603,23650,287103,211540
1629370455613,23646,287059,211531
1629370455623,23642,287054,211498
1629370455633,23645,287028,211503
1629370455643,23646,287069,211475
1629370455653,23637,287097,211464
1629370455663,23632,287072,211448
1629370455673,23629,287041,211420
1629370455683,23624,287063,211390
1629370455693,23623,287059,211371
1629370455703,23620,287046,211378
1629370455713,23617,287010,211358
1629370455723,23621,286994,211336
1629370455733,23612,287054,211312
1629370455743,23600,287049,211291
1629370455753,23602,287056,211276
1629370455763,23605,287049,211243
1629370455773,23608,287009,211258
1629370455783,23608,287028,211242
1629370455793,23591,287004,211216
1629370455803,23592,286959,211222
1629370455813,23598,287002,211198
1629370455823,23587,286922,211170
1629370455833,23582,286913,211166
1629370455843,23578,286938,211138
1629370455853,23571,286878,211142
1629370455863,23565,286872,211117
1629370455873,23563,286864,211091
1629370455883,23552,286878,211094
1629370455893,23544,286853,211071
1629370455903,23531,286819,211084
1629370455913,23523,286774,211050
1629370455923,23510,286786,211013
1629370455933,23496,286759,210999
1629370455943,23495,286717,211004
1629370455953,23496,286708,210965
1629370455963,23471,286713,210956
1629370455973,23455,286696,210957
1629370455983,23446,286648,210898
1629370455993,23429,286645,210893
1629370456003,23408,286607,210857
1629370456013,23398,286591,210826
1629370456023,23383,286539,210796
1629370456033,23359,286541,210764
1629370456043,23334,286507,210726
1629370456053,23313,286470,210691
1629370456063,23290,286479,210639
1629370456073,23272,286415,210588
1629370456083,23234,286391,210525
1629370456093,23210,286350,210479
1629370456103,23180,286342,210416
1629370456113,23156,286304,210377
1629370456123,23132,286297,210310
1629370456133,23103,286288,210263
1629370456143,23081,286252,210207
1629370456153,23048,286157,210150
1629370456163,23025,286214,210072
1629370456173,23002,286183,210002
1629370456183,22974,286171,209964
1629370456193,22945,286164,209902
1629370456203,22915,286127,209843
1629370456213,22895,286069,209771
1629370456223,22873,286080,209727
1629370456233,22846,286057,209688
1629370456243,22818,286008,209621
1629370456253,22787,285980,209533
1629370456263,22759,285936,209464
1629370456273,22734,285956,209413
1629370456283,22698,285917,209346
1629370456293,22686,285901,209272
1629370456303,22640,285900,209209
1629370456313,22612,285842,209152
1629370456323,22581,285868,209071
1629370456333,22550,285794,209009
1629370456343,22530,285789,208932
1629370456353,22506,285776,208869
1629370456363,22479,285780,208833
1629370456373,22455,285809,208771
1629370456383,22435,285749,208726
1629370456393,22426,285738,208680
1629370456403,22414,285758,208645
1629370456413,22393,285746,208617
1629370456423,22390,285800,208595
1629370456433,22370,285775,208584
1629370456443,22377,285762,208555
1629370456453,22375,285822,208573
1629370456463,22381,285828,208581
1629370456473,22390,285808,208606
1629370456483,22405,285845,208623
1629370456493,22421,285929,208681
1629370456503,22442,285935,208715
1629370456513,22477,285987,208797
1629370456523,22515,286039,208871
1629370456533,22552,286107,208960
1629370456543,22597,286138,209063
1629370456553,22636,286258,209174
1629370456563,22691,286280,209280
1629370456573,22741,286380,209389
1629370456583,22788,286401,209507
1629370456593,22834,286499,209624
1629370456603,22869,286529,209743
1629370456613,22928,286631,209842
1629370456623,22965,286645,209949
1629370456633,23008,286729,210046
1629370456643,23047,286749,210102
1629370456653,23078,286871,210204
1629370456663,23114,286887,210272
1629370456673,23147,286958,210370
1629370456683,23182,286974,210430
1629370456693,23213,287065,210534
1629370456703,23239,287044,210569
1629370456713,23262,287102,210609
1629370456723,23278,287117,210622
1629370456733,23287,287153,210642
1629370456743,23303,287110,210668
1629370456753,23326,287161,210703
1629370456763,23338,287158,210759
1629370456773,23357,287209,210764
1629370456783,23382,287222,210826
1629370456793,23402,287243,210838
1629370456803,23416,287267,210841
1629370456813,23423,287256,210883
1629370456823,23439,287236,210898
1629370456833,23447,287267,210905
1629370456843,23461,287258,210933
1629370456853,23473,287309,210986
1629370456863,23484,287306,211006
1629370456873,23489,287316,211020
1629370456883,23510,287289,211016
1629370456893,23520,287267,211050
1629370456903,23527,287310,211098
1629370456913,23544,287243,211131
1629370456923,23563,287293,211167
1629370456933,23575,287359,211188
1629370456943,23572,287286,211191
1629370456953,23581,287306,211246
1629370456963,23582,287340,211225
1629370456973,23585,287245,211221
1629370456983,23571,287234,211229
1629370456993,23567,287216,211213
1629370457003,23585,287249,211255
1629370457013,23576,287242,211259
1629370457023,23567,287229,211250
1629370457033,23565,287185,211251
1629370457043,23552,287145,211234
1629370457053,23548,287112,211241
1629370457063,23539,287095,211227
1629370457073,23524,287084,211227
1629370457083,23521,287085,211216
1629370457093,23520,287071,211218
1629370457103,23508,287054,211206
1629370457113,23501,287032,211195
1629370457123,23488,287001,211198
1629370457133,23475,287001,211157
1629370457143,23463,286948,211149
1629370457153,23459,286967,211148
1629370457163,23452,286934,211147
1629370457173,23442,286908,211135
1629370457183,23431,286895,211110
1629370457193,23419,286887,211109
1629370457203,23405,286872,211064
1629370457213,23396,286832,211033
1629370457223,23385,286808,211013
1629370457233,23376,286777,210991
1629370457243,23358,286780,210972
1629370457253,23335,286752,210944
1629370457263,23328,286730,210922
1629370457273,23315,286668,210887
1629370457283,23304,286677,210854
1629370457293,23290,286680,210819
1629370457303,23276,286679,210818
1629370457313,23262,286609,210787
1629370457323,23249,286593,210727
1629370457333,23238,286572,210722
1629370457343,23223,286561,210666
1629370457353,23205,286579,210639
1629370457363,23192,286498,210581
1629370457373,23188,286482,210570
1629370457383,23166,286490,210526
1629370457393,23158,286466,210467
1629370457403,23146,286410,210432
1629370457413,23121,286411,210406
1629370457423,23112,286411,210352
1629370457433,23102,286349,210318
1629370457443,23093,286386,210304
1629370457453,23079,286378,210269
1629370457463,23066,286359,210245
1629370457473,23057,286375,210254
1629370457483,23053,286300,210222
1629370457493,23055,286380,210207
1629370457503,23048,286373,210163
1629370457513,23038,286394,210190
1629370457523,23042,286332,210183
1629370457533,23040,286356,210130
1629370457543,23036,286374,210130
1629370457553,23030,286407,210144
1629370457563,23036,286369,210128
1629370457573,23049,286399,210146
1629370457583,23049,286434,210151
1629370457593,23052,286433,210169
1629370457603,23058,286410,210177
1629370457613,23065,286426,210202
1629370457623,23074,286442,210184
1629370457633,23083,286451,210225
1629370457643,23083,286474,210222
1629370457653,23090,286506,210251
1629370457663,23094,286534,210253
1629370457673,23106,286530,210287
1629370457683,23118,286557,210278
1629370457693,23130,286597,210291
1629370457703,23126,286593,210309
1629370457713,23129,286609,210325
1629370457723,23145,286652,210331
1629370457733,23154,286676,210336
1629370457743,23159,286649,210331
1629370457753,23165,286655,210342
1629370457763,23172,286668,210360
1629370457773,23174,286667,210386
1629370457783,23188,286681,210399
1629370457793,23198,286735,210421
1629370457803,23200,286740,210400
1629370457813,23206,286788,210434
1629370457823,23205,286816,210429
1629370457833,23212,286827,210431
1629370457843,23209,286795,210434
1629370457853,23210,286795,210444
1629370457863,23217,286826,210431
1629370457873,23223,286821,210409
1629370457883,23223,286787,210433
1629370457893,23222,286790,210430
1629370457903,23220,286805,210407
1629370457913,23219,286824,210414
1629370457923,23224,286856,210400
1629370457933,23221,286817,210400
1629370457943,23222,286858,210389
1629370457953,23224,286859,210393
1629370457963,23231,286830,210375
1629370457973,23228,286830,210381
1629370457983,23230,286790,210363
1629370457993,23234,286856,210401
1629370458003,23234,286817,210392
1629370458013,23242,286850,210401
1629370458023,23237,286813,210388
1629370458033,23238,286815,210398
1629370458043,23239,286841,210393
1629370458053,23235,286797,210444
1629370458063,23244,286831,210444
1629370458073,23242,286872,210480
1629370458083,23233,286858,210485
1629370458093,23248,286821,210506
1629370458103,23247,286816,210515
1629370458113,23248,286864,210509
1629370458123,23246,286837,210537
1629370458133,23243,286805,210537
1629370458143,23253,286792,210538
1629370458153,23241,286818,210564
1629370458163,23244,286821,210579
1629370458173,23243,286793,210595
1629370458183,23238,286796,210614
1629370458193,23236,286795,210617
1629370458203,23226,286810,210599
1629370458213,23221,286791,210600
1629370458223,23214,286806,210622
1629370458233,23205,286816,210648
1629370458243,23209,286783,210624
1629370458253,23201,286775,210622
1629370458263,23189,286751,210632
1629370458273,23177,286764,210585
