timestamp,ecg_waveform
1629897192371,2040
1629897192375,2041
1629897192379,2043
1629897192383,2044
1629897192387,2044
1629897192391,2044
1629897192395,2043
1629897192399,2043
1629897192403,2045
1629897192407,2050
1629897192411,2059
1629897192415,2069
1629897192419,2084
1629897192423,2104
1629897192427,2123
1629897192431,2134
1629897192435,2128
1629897192439,2103
1629897192443,2067
1629897192447,2035
1629897192451,2018
1629897192455,2019
1629897192459,2033
1629897192463,2048
1629897192467,2056
1629897192471,2057
1629897192475,2055
1629897192479,2055
1629897192483,2054
1629897192487,2054
1629897192491,2054
1629897192495,2054
1629897192499,2055
1629897192503,2056
1629897192507,2056
1629897192511,2057
1629897192515,2057
1629897192519,2056
1629897192523,2055
1629897192527,2055
1629897192531,2055
1629897192535,2055
1629897192539,2055
1629897192543,2056
1629897192547,2056
1629897192551,2056
1629897192555,2057
1629897192559,2057
1629897192563,2058
1629897192567,2058
1629897192571,2059
1629897192575,2060
1629897192579,2061
1629897192583,2062
1629897192587,2063
1629897192591,2064
1629897192595,2065
1629897192599,2066
1629897192603,2067
1629897192607,2068
1629897192611,2070
1629897192615,2072
1629897192619,2074
1629897192623,2077
1629897192627,2079
1629897192631,2081
1629897192635,2083
1629897192639,2084
1629897192643,2086
1629897192647,2087
1629897192651,2089
1629897192655,2090
1629897192659,2092
1629897192663,2093
1629897192667,2094
1629897192671,2095
1629897192675,2096
1629897192679,2095
1629897192683,2094
1629897192687,2092
1629897192691,2090
1629897192695,2087
1629897192699,2083
1629897192703,2079
1629897192707,2075
1629897192711,2071
1629897192715,2067
1629897192719,2063
1629897192723,2059
1629897192727,2056
1629897192731,2053
1629897192735,2051
1629897192739,2050
1629897192743,2049
1629897192747,2048
1629897192751,2048
1629897192755,2047
1629897192759,2046
1629897192763,2044
1629897192767,2044
1629897192771,2043
1629897192775,2043
1629897192779,2043
1629897192783,2044
1629897192787,2044
1629897192791,2044
1629897192795,2043
1629897192799,2043
1629897192803,2043
1629897192807,2043
1629897192811,2044
1629897192815,2044
1629897192819,2044
1629897192823,2044
1629897192827,2045
1629897192831,2045
1629897192835,2045
1629897192839,2045
1629897192843,2045
1629897192847,2044
1629897192851,2044
1629897192855,2044
1629897192859,2043
1629897192863,2044
1629897192867,2044
1629897192871,2045
1629897192875,2045
1629897192879,2045
1629897192883,2045
1629897192887,2045
1629897192891,2044
1629897192895,2044
1629897192899,2045
1629897192903,2045
1629897192907,2045
1629897192911,2046
1629897192915,2045
1629897192919,2045
1629897192923,2044
1629897192927,2044
1629897192931,2043
1629897192935,2043
1629897192939,2043
1629897192943,2044
1629897192947,2045
1629897192951,2045
1629897192955,2045
1629897192959,2045
1629897192963,2045
1629897192967,2044
1629897192971,2044
1629897192975,2044
1629897192979,2045
1629897192983,2046
1629897192987,2046
1629897192991,2047
1629897192995,2047
1629897192999,2047
1629897193003,2046
1629897193007,2046
1629897193011,2046
1629897193015,2047
1629897193019,2047
1629897193023,2048
1629897193027,2048
1629897193031,2048
1629897193035,2048
1629897193039,2048
1629897193043,2048
1629897193047,2048
1629897193051,2050
1629897193055,2052
1629897193059,2055
1629897193063,2057
1629897193067,2058
1629897193071,2058
1629897193075,2057
1629897193079,2056
1629897193083,2055
1629897193087,2054
1629897193091,2054
1629897193095,2053
1629897193099,2052
1629897193103,2051
1629897193107,2051
1629897193111,2050
1629897193115,2050
1629897193119,2050
1629897193123,2049
1629897193127,2048
1629897193131,2048
1629897193135,2048
1629897193139,2048
1629897193143,2048
1629897193147,2049
1629897193151,2049
1629897193155,2050
1629897193159,2050
1629897193163,2050
1629897193167,2050
1629897193171,2050
1629897193175,2049
1629897193179,2048
1629897193183,2049
1629897193187,2054
1629897193191,2063
1629897193195,2074
1629897193199,2090
1629897193203,2111
1629897193207,2130
1629897193211,2142
1629897193215,2136
1629897193219,2111
1629897193223,2074
1629897193227,2039
1629897193231,2018
1629897193235,2015
1629897193239,2025
1629897193243,2040
1629897193247,2050
1629897193251,2052
1629897193255,2051
1629897193259,2051
1629897193263,2052
1629897193267,2052
1629897193271,2053
1629897193275,2053
1629897193279,2053
1629897193283,2053
1629897193287,2053
1629897193291,2054
1629897193295,2054
1629897193299,2055
1629897193303,2055
1629897193307,2056
1629897193311,2057
1629897193315,2057
1629897193319,2058
1629897193323,2058
1629897193327,2058
1629897193331,2059
1629897193335,2059
1629897193339,2060
1629897193343,2061
1629897193347,2062
1629897193351,2063
1629897193355,2064
1629897193359,2064
1629897193363,2065
1629897193367,2066
1629897193371,2066
1629897193375,2067
1629897193379,2068
1629897193383,2070
1629897193387,2071
1629897193391,2073
1629897193395,2074
1629897193399,2076
1629897193403,2077
1629897193407,2079
1629897193411,2081
1629897193415,2083
1629897193419,2086
1629897193423,2088
1629897193427,2091
1629897193431,2093
1629897193435,2094
1629897193439,2095
1629897193443,2096
1629897193447,2097
1629897193451,2097
1629897193455,2098
1629897193459,2098
1629897193463,2097
1629897193467,2095
1629897193471,2093
1629897193475,2090
1629897193479,2086
1629897193483,2081
1629897193487,2076
1629897193491,2072
1629897193495,2067
1629897193499,2064
1629897193503,2061
1629897193507,2059
1629897193511,2057
1629897193515,2055
1629897193519,2052
1629897193523,2050
1629897193527,2049
1629897193531,2048
1629897193535,2048
1629897193539,2048
1629897193543,2048
1629897193547,2047
1629897193551,2047
1629897193555,2047
1629897193559,2047
1629897193563,2046
1629897193567,2046
1629897193571,2045
1629897193575,2046
1629897193579,2047
1629897193583,2048
1629897193587,2048
1629897193591,2048
1629897193595,2048
1629897193599,2048
1629897193603,2048
1629897193607,2048
1629897193611,2048
1629897193615,2048
1629897193619,2048
1629897193623,2049
1629897193627,2049
1629897193631,2050
1629897193635,2050
1629897193639,2050
1629897193643,2050
1629897193647,2049
1629897193651,2049
1629897193655,2050
1629897193659,2050
1629897193663,2050
1629897193667,2050
1629897193671,2051
1629897193675,2051
1629897193679,2051
1629897193683,2050
1629897193687,2050
1629897193691,2049
1629897193695,2049
1629897193699,2049
1629897193703,2049
1629897193707,2049
1629897193711,2049
1629897193715,2050
1629897193719,2050
1629897193723,2050
1629897193727,2049
1629897193731,2049
1629897193735,2048
1629897193739,2048
1629897193743,2049
1629897193747,2049
1629897193751,2050
1629897193755,2050
1629897193759,2050
1629897193763,2050
1629897193767,2049
1629897193771,2048
1629897193775,2048
1629897193779,2048
1629897193783,2050
1629897193787,2053
1629897193791,2055
1629897193795,2057
1629897193799,2057
1629897193803,2057
1629897193807,2055
1629897193811,2054
1629897193815,2054
1629897193819,2053
1629897193823,2053
1629897193827,2052
1629897193831,2051
1629897193835,2050
1629897193839,2049
1629897193843,2048
1629897193847,2048
1629897193851,2048
1629897193855,2048
1629897193859,2048
1629897193863,2048
1629897193867,2048
1629897193871,2048
1629897193875,2048
1629897193879,2048
1629897193883,2048
1629897193887,2048
1629897193891,2048
1629897193895,2048
1629897193899,2049
1629897193903,2048
1629897193907,2048
1629897193911,2046
1629897193915,2047
1629897193919,2052
1629897193923,2063
1629897193927,2075
1629897193931,2092
1629897193935,2115
1629897193939,2137
1629897193943,2150
1629897193947,2146
1629897193951,2120
1629897193955,2079
1629897193959,2040
1629897193963,2015
1629897193967,2010
1629897193971,2022
1629897193975,2037
1629897193979,2049
1629897193983,2052
1629897193987,2052
1629897193991,2052
1629897193995,2052
1629897193999,2052
1629897194003,2052
1629897194007,2052
1629897194011,2052
1629897194015,2052
1629897194019,2053
1629897194023,2054
1629897194027,2055
1629897194031,2055
1629897194035,2056
1629897194039,2056
1629897194043,2056
1629897194047,2056
1629897194051,2056
1629897194055,2056
1629897194059,2057
1629897194063,2058
1629897194067,2059
1629897194071,2059
1629897194075,2060
1629897194079,2060
1629897194083,2061
1629897194087,2061
1629897194091,2062
1629897194095,2063
1629897194099,2064
1629897194103,2065
1629897194107,2067
1629897194111,2068
1629897194115,2068
1629897194119,2069
1629897194123,2070
1629897194127,2071
1629897194131,2073
1629897194135,2076
1629897194139,2079
1629897194143,2082
1629897194147,2084
1629897194151,2086
1629897194155,2088
1629897194159,2091
1629897194163,2092
1629897194167,2094
1629897194171,2095
1629897194175,2096
1629897194179,2097
1629897194183,2098
1629897194187,2098
1629897194191,2097
1629897194195,2096
1629897194199,2094
1629897194203,2090
1629897194207,2086
1629897194211,2081
1629897194215,2076
1629897194219,2071
1629897194223,2067
1629897194227,2063
1629897194231,2059
1629897194235,2055
1629897194239,2053
1629897194243,2050
1629897194247,2048
1629897194251,2047
1629897194255,2046
1629897194259,2045
1629897194263,2044
1629897194267,2043
1629897194271,2043
1629897194275,2042
1629897194279,2042
1629897194283,2041
1629897194287,2040
1629897194291,2040
1629897194295,2040
1629897194299,2040
1629897194303,2041
1629897194307,2041
1629897194311,2041
1629897194315,2040
1629897194319,2040
1629897194323,2040
1629897194327,2040
1629897194331,2040
1629897194335,2040
1629897194339,2040
1629897194343,2040
1629897194347,2041
1629897194351,2041
1629897194355,2041
1629897194359,2041
1629897194363,2041
1629897194367,2040
1629897194371,2040
1629897194375,2041
1629897194379,2041
1629897194383,2041
1629897194387,2042
1629897194391,2041
1629897194395,2041
1629897194399,2041
1629897194403,2041
1629897194407,2041
1629897194411,2040
1629897194415,2040
1629897194419,2040
1629897194423,2040
1629897194427,2040
1629897194431,2040
1629897194435,2039
1629897194439,2039
1629897194443,2039
1629897194447,2038
1629897194451,2038
1629897194455,2038
1629897194459,2038
1629897194463,2038
1629897194467,2038
1629897194471,2038
1629897194475,2038
1629897194479,2038
1629897194483,2038
1629897194487,2038
1629897194491,2038
1629897194495,2037
1629897194499,2037
1629897194503,2037
1629897194507,2037
1629897194511,2037
1629897194515,2038
1629897194519,2039
1629897194523,2042
1629897194527,2044
1629897194531,2046
1629897194535,2046
1629897194539,2046
1629897194543,2045
1629897194547,2045
1629897194551,2044
1629897194555,2044
1629897194559,2044
1629897194563,2043
1629897194567,2042
1629897194571,2041
1629897194575,2039
1629897194579,2039
1629897194583,2038
1629897194587,2039
1629897194591,2039
1629897194595,2039
1629897194599,2039
1629897194603,2039
1629897194607,2039
1629897194611,2039
1629897194615,2039
1629897194619,2039
1629897194623,2040
1629897194627,2040
1629897194631,2041
1629897194635,2041
1629897194639,2040
1629897194643,2039
1629897194647,2038
1629897194651,2040
1629897194655,2046
1629897194659,2055
1629897194663,2066
1629897194667,2083
1629897194671,2104
1629897194675,2125
1629897194679,2137
1629897194683,2132
1629897194687,2106
1629897194691,2066
1629897194695,2029
1629897194699,2007
1629897194703,2005
1629897194707,2018
1629897194711,2035
1629897194715,2046
1629897194719,2047
1629897194723,2044
1629897194727,2042
1629897194731,2041
1629897194735,2042
1629897194739,2043
1629897194743,2044
1629897194747,2044
1629897194751,2045
1629897194755,2045
1629897194759,2046
1629897194763,2045
1629897194767,2045
1629897194771,2045
1629897194775,2045
1629897194779,2046
1629897194783,2047
1629897194787,2047
1629897194791,2048
1629897194795,2048
1629897194799,2048
1629897194803,2048
1629897194807,2049
1629897194811,2049
1629897194815,2050
1629897194819,2051
1629897194823,2052
1629897194827,2053
1629897194831,2054
1629897194835,2055
1629897194839,2056
1629897194843,2056
1629897194847,2057
1629897194851,2058
1629897194855,2060
1629897194859,2062
1629897194863,2064
1629897194867,2065
1629897194871,2068
1629897194875,2070
1629897194879,2072
1629897194883,2074
1629897194887,2076
1629897194891,2078
1629897194895,2080
1629897194899,2082
1629897194903,2084
1629897194907,2086
1629897194911,2087
1629897194915,2088
1629897194919,2088
1629897194923,2088
1629897194927,2087
1629897194931,2085
1629897194935,2082
1629897194939,2079
1629897194943,2075
1629897194947,2070
1629897194951,2065
1629897194955,2060
1629897194959,2055
1629897194963,2051
1629897194967,2048
1629897194971,2045
1629897194975,2042
1629897194979,2041
1629897194983,2039
1629897194987,2038
1629897194991,2037
1629897194995,2035
1629897194999,2035
1629897195003,2034
1629897195007,2033
1629897195011,2033
1629897195015,2033
1629897195019,2033
1629897195023,2033
1629897195027,2033
1629897195031,2033
1629897195035,2033
1629897195039,2033
1629897195043,2033
1629897195047,2032
1629897195051,2032
1629897195055,2033
1629897195059,2033
1629897195063,2034
1629897195067,2034
1629897195071,2034
1629897195075,2034
1629897195079,2034
1629897195083,2034
1629897195087,2034
1629897195091,2034
1629897195095,2034
1629897195099,2035
1629897195103,2036
1629897195107,2036
1629897195111,2036
1629897195115,2036
1629897195119,2035
1629897195123,2034
1629897195127,2034
1629897195131,2034
1629897195135,2035
1629897195139,2036
1629897195143,2037
1629897195147,2038
1629897195151,2038
1629897195155,2038
1629897195159,2038
1629897195163,2037
1629897195167,2037
1629897195171,2036
1629897195175,2036
1629897195179,2036
1629897195183,2037
1629897195187,2037
1629897195191,2037
1629897195195,2037
1629897195199,2037
1629897195203,2037
1629897195207,2036
1629897195211,2036
1629897195215,2036
1629897195219,2037
1629897195223,2038
1629897195227,2038
1629897195231,2038
1629897195235,2038
1629897195239,2038
1629897195243,2037
1629897195247,2037
1629897195251,2037
1629897195255,2037
1629897195259,2038
1629897195263,2039
1629897195267,2039
1629897195271,2039
1629897195275,2039
1629897195279,2039
1629897195283,2038
1629897195287,2038
1629897195291,2038
1629897195295,2039
1629897195299,2041
1629897195303,2044
1629897195307,2047
1629897195311,2048
1629897195315,2048
1629897195319,2048
1629897195323,2046
1629897195327,2045
1629897195331,2045
1629897195335,2044
1629897195339,2045
1629897195343,2044
1629897195347,2044
1629897195351,2043
1629897195355,2042
1629897195359,2041
1629897195363,2039
1629897195367,2038
1629897195371,2038
1629897195375,2038
1629897195379,2039
1629897195383,2039
1629897195387,2039
1629897195391,2039
1629897195395,2039
1629897195399,2039
1629897195403,2039
1629897195407,2039
1629897195411,2040
1629897195415,2040
1629897195419,2039
1629897195423,2038
1629897195427,2037
1629897195431,2039
1629897195435,2044
1629897195439,2052
1629897195443,2060
1629897195447,2073
1629897195451,2090
1629897195455,2110
1629897195459,2124
1629897195463,2124
1629897195467,2103
1629897195471,2068
1629897195475,2033
1629897195479,2010
1629897195483,2006
1629897195487,2017
1629897195491,2031
1629897195495,2041
1629897195499,2043
1629897195503,2041
1629897195507,2041
1629897195511,2041
1629897195515,2041
1629897195519,2041
1629897195523,2041
1629897195527,2041
1629897195531,2041
1629897195535,2042
1629897195539,2042
1629897195543,2043
1629897195547,2043
1629897195551,2044
1629897195555,2044
1629897195559,2044
1629897195563,2044
1629897195567,2044
1629897195571,2044
1629897195575,2044
1629897195579,2045
1629897195583,2046
1629897195587,2046
1629897195591,2047
1629897195595,2048
1629897195599,2048
1629897195603,2048
1629897195607,2048
1629897195611,2049
1629897195615,2050
1629897195619,2051
1629897195623,2052
1629897195627,2054
1629897195631,2055
1629897195635,2057
1629897195639,2058
1629897195643,2060
1629897195647,2061
1629897195651,2063
1629897195655,2065
1629897195659,2067
1629897195663,2070
1629897195667,2073
1629897195671,2076
1629897195675,2078
1629897195679,2079
1629897195683,2081
1629897195687,2082
1629897195691,2083
1629897195695,2085
1629897195699,2086
1629897195703,2087
1629897195707,2087
1629897195711,2086
1629897195715,2084
1629897195719,2081
1629897195723,2077
1629897195727,2072
1629897195731,2067
1629897195735,2062
1629897195739,2057
1629897195743,2053
1629897195747,2050
1629897195751,2048
1629897195755,2045
1629897195759,2043
1629897195763,2041
1629897195767,2039
1629897195771,2037
1629897195775,2036
1629897195779,2035
1629897195783,2035
1629897195787,2035
1629897195791,2035
1629897195795,2035
1629897195799,2034
1629897195803,2034
1629897195807,2034
1629897195811,2033
1629897195815,2033
1629897195819,2034
1629897195823,2034
1629897195827,2034
1629897195831,2035
1629897195835,2035
1629897195839,2035
1629897195843,2035
1629897195847,2034
1629897195851,2034
1629897195855,2034
1629897195859,2034
1629897195863,2035
1629897195867,2035
1629897195871,2036
1629897195875,2037
1629897195879,2037
1629897195883,2037
1629897195887,2036
1629897195891,2036
1629897195895,2036
1629897195899,2037
1629897195903,2037
1629897195907,2038
1629897195911,2038
1629897195915,2038
1629897195919,2038
1629897195923,2038
1629897195927,2038
1629897195931,2038
1629897195935,2038
1629897195939,2038
1629897195943,2039
1629897195947,2039
1629897195951,2040
1629897195955,2040
1629897195959,2039
1629897195963,2039
1629897195967,2039
1629897195971,2039
1629897195975,2039
1629897195979,2039
1629897195983,2039
1629897195987,2039
1629897195991,2039
1629897195995,2039
1629897195999,2040
1629897196003,2039
1629897196007,2039
1629897196011,2038
1629897196015,2038
1629897196019,2038
1629897196023,2039
1629897196027,2039
1629897196031,2040
1629897196035,2040
1629897196039,2040
1629897196043,2040
1629897196047,2040
1629897196051,2040
1629897196055,2040
1629897196059,2041
1629897196063,2041
1629897196067,2042
1629897196071,2042
1629897196075,2042
1629897196079,2042
1629897196083,2042
1629897196087,2041
1629897196091,2041
1629897196095,2041
1629897196099,2041
1629897196103,2042
1629897196107,2042
1629897196111,2043
1629897196115,2043
1629897196119,2043
1629897196123,2045
1629897196127,2047
1629897196131,2048
1629897196135,2050
1629897196139,2050
1629897196143,2050
1629897196147,2049
1629897196151,2048
1629897196155,2048
1629897196159,2048
1629897196163,2048
1629897196167,2048
1629897196171,2047
1629897196175,2047
1629897196179,2046
1629897196183,2045
1629897196187,2045
1629897196191,2045
1629897196195,2044
1629897196199,2044
1629897196203,2044
1629897196207,2044
1629897196211,2044
1629897196215,2044
1629897196219,2044
1629897196223,2044
1629897196227,2045
1629897196231,2046
1629897196235,2046
1629897196239,2046
1629897196243,2045
1629897196247,2043
1629897196251,2043
1629897196255,2045
1629897196259,2050
1629897196263,2059
1629897196267,2069
1629897196271,2084
1629897196275,2103
1629897196279,2121
1629897196283,2130
1629897196287,2121
1629897196291,2095
1629897196295,2059
1629897196299,2028
1629897196303,2013
1629897196307,2016
1629897196311,2029
1629897196315,2043
1629897196319,2051
1629897196323,2050
1629897196327,2048
1629897196331,2048
1629897196335,2048
1629897196339,2048
1629897196343,2049
1629897196347,2049
1629897196351,2050
1629897196355,2050
1629897196359,2051
1629897196363,2051
1629897196367,2051
1629897196371,2052
1629897196375,2052
1629897196379,2053
1629897196383,2054
1629897196387,2054
1629897196391,2055
1629897196395,2055
1629897196399,2056
1629897196403,2056
1629897196407,2056
1629897196411,2057
1629897196415,2058
1629897196419,2059
1629897196423,2060
1629897196427,2061
1629897196431,2061
1629897196435,2062
1629897196439,2063
1629897196443,2064
1629897196447,2065
1629897196451,2066
1629897196455,2067
1629897196459,2069
1629897196463,2071
1629897196467,2073
1629897196471,2075
1629897196475,2076
1629897196479,2078
1629897196483,2081
1629897196487,2083
1629897196491,2085
1629897196495,2087
1629897196499,2089
1629897196503,2091
1629897196507,2094
1629897196511,2095
1629897196515,2097
1629897196519,2097
1629897196523,2098
1629897196527,2097
1629897196531,2097
1629897196535,2097
1629897196539,2095
1629897196543,2092
1629897196547,2089
1629897196551,2084
1629897196555,2080
1629897196559,2075
1629897196563,2070
1629897196567,2066
1629897196571,2062
1629897196575,2059
1629897196579,2056
1629897196583,2054
1629897196587,2052
1629897196591,2050
1629897196595,2049
1629897196599,2048
1629897196603,2048
1629897196607,2047
1629897196611,2046
1629897196615,2046
1629897196619,2045
1629897196623,2046
1629897196627,2046
1629897196631,2046
1629897196635,2046
1629897196639,2045
1629897196643,2045
1629897196647,2045
1629897196651,2044
1629897196655,2044
1629897196659,2044
1629897196663,2045
1629897196667,2045
1629897196671,2045
1629897196675,2045
1629897196679,2045
1629897196683,2044
1629897196687,2044
1629897196691,2044
1629897196695,2044
1629897196699,2044
1629897196703,2045
1629897196707,2045
1629897196711,2045
1629897196715,2045
1629897196719,2045
1629897196723,2045
1629897196727,2044
1629897196731,2044
1629897196735,2044
1629897196739,2045
1629897196743,2045
1629897196747,2045
1629897196751,2045
1629897196755,2045
1629897196759,2045
1629897196763,2045
1629897196767,2045
1629897196771,2045
1629897196775,2044
1629897196779,2044
1629897196783,2045
1629897196787,2045
1629897196791,2045
1629897196795,2045
1629897196799,2045
1629897196803,2045
1629897196807,2044
1629897196811,2044
1629897196815,2044
1629897196819,2044
1629897196823,2044
1629897196827,2044
1629897196831,2044
1629897196835,2044
1629897196839,2044
1629897196843,2044
1629897196847,2043
1629897196851,2043
1629897196855,2043
1629897196859,2044
1629897196863,2044
1629897196867,2045
1629897196871,2045
1629897196875,2045
1629897196879,2045
1629897196883,2045
1629897196887,2045
1629897196891,2045
1629897196895,2045
1629897196899,2045
1629897196903,2045
1629897196907,2046
1629897196911,2046
1629897196915,2046
1629897196919,2046
1629897196923,2046
1629897196927,2045
1629897196931,2045
1629897196935,2045
1629897196939,2045
1629897196943,2045
1629897196947,2045
1629897196951,2046
1629897196955,2047
1629897196959,2048
1629897196963,2051
1629897196967,2053
1629897196971,2054
1629897196975,2053
1629897196979,2052
1629897196983,2052
1629897196987,2051
1629897196991,2052
1629897196995,2051
1629897196999,2051
1629897197003,2049
1629897197007,2048
1629897197011,2047
1629897197015,2047
1629897197019,2046
1629897197023,2046
1629897197027,2046
1629897197031,2046
1629897197035,2046
1629897197039,2046
1629897197043,2046
1629897197047,2045
1629897197051,2045
1629897197055,2045
1629897197059,2045
1629897197063,2045
1629897197067,2046
1629897197071,2047
1629897197075,2047
1629897197079,2047
1629897197083,2045
1629897197087,2044
1629897197091,2047
1629897197095,2052
1629897197099,2061
1629897197103,2072
1629897197107,2088
1629897197111,2108
1629897197115,2125
1629897197119,2132
1629897197123,2122
1629897197127,2094
1629897197131,2057
1629897197135,2027
1629897197139,2013
1629897197143,2017
1629897197147,2030
1629897197151,2044
1629897197155,2051
1629897197159,2051
1629897197163,2049
1629897197167,2048
1629897197171,2048
1629897197175,2048
1629897197179,2049
1629897197183,2050
1629897197187,2051
1629897197191,2052
1629897197195,2053
1629897197199,2053
1629897197203,2053
1629897197207,2053
1629897197211,2054
1629897197215,2053
1629897197219,2054
1629897197223,2055
1629897197227,2055
1629897197231,2057
1629897197235,2057
1629897197239,2058
1629897197243,2058
1629897197247,2058
1629897197251,2059
1629897197255,2060
1629897197259,2061
1629897197263,2062
1629897197267,2063
1629897197271,2064
1629897197275,2065
1629897197279,2066
1629897197283,2067
1629897197287,2068
1629897197291,2069
1629897197295,2070
1629897197299,2072
1629897197303,2074
1629897197307,2076
1629897197311,2078
1629897197315,2080
1629897197319,2082
1629897197323,2084
1629897197327,2087
1629897197331,2089
1629897197335,2090
1629897197339,2093
1629897197343,2094
1629897197347,2097
1629897197351,2098
1629897197355,2100
1629897197359,2101
1629897197363,2100
1629897197367,2100
1629897197371,2099
1629897197375,2097
1629897197379,2095
1629897197383,2092
1629897197387,2088
1629897197391,2083
1629897197395,2079
1629897197399,2074
1629897197403,2070
1629897197407,2066
1629897197411,2063
1629897197415,2060
1629897197419,2058
1629897197423,2057
1629897197427,2055
1629897197431,2054
1629897197435,2052
1629897197439,2051
1629897197443,2050
1629897197447,2049
1629897197451,2048
1629897197455,2048
1629897197459,2048
1629897197463,2048
1629897197467,2048
1629897197471,2048
1629897197475,2048
1629897197479,2049
1629897197483,2049
1629897197487,2049
1629897197491,2048
1629897197495,2048
1629897197499,2048
1629897197503,2048
1629897197507,2050
1629897197511,2051
1629897197515,2051
1629897197519,2051
1629897197523,2051
1629897197527,2051
1629897197531,2051
1629897197535,2051
1629897197539,2052
1629897197543,2052
1629897197547,2052
1629897197551,2052
1629897197555,2053
1629897197559,2053
1629897197563,2053
1629897197567,2053
1629897197571,2053
1629897197575,2053
1629897197579,2053
1629897197583,2053
1629897197587,2053
1629897197591,2054
1629897197595,2054
1629897197599,2054
1629897197603,2054
1629897197607,2053
1629897197611,2053
1629897197615,2053
1629897197619,2054
1629897197623,2054
1629897197627,2054
1629897197631,2054
1629897197635,2054
1629897197639,2054
1629897197643,2054
1629897197647,2053
1629897197651,2053
1629897197655,2053
1629897197659,2054
1629897197663,2054
1629897197667,2055
1629897197671,2055
1629897197675,2055
1629897197679,2055
1629897197683,2055
1629897197687,2055
1629897197691,2055
1629897197695,2055
1629897197699,2056
1629897197703,2057
1629897197707,2057
1629897197711,2058
1629897197715,2058
1629897197719,2057
1629897197723,2057
1629897197727,2057
1629897197731,2057
1629897197735,2057
1629897197739,2057
1629897197743,2057
1629897197747,2058
1629897197751,2060
1629897197755,2062
1629897197759,2065
1629897197763,2066
1629897197767,2066
1629897197771,2066
1629897197775,2064
1629897197779,2064
1629897197783,2064
1629897197787,2064
1629897197791,2064
1629897197795,2064
1629897197799,2062
1629897197803,2061
1629897197807,2059
1629897197811,2058
1629897197815,2058
1629897197819,2058
1629897197823,2059
1629897197827,2059
1629897197831,2059
1629897197835,2059
1629897197839,2059
1629897197843,2059
1629897197847,2059
1629897197851,2059
1629897197855,2059
1629897197859,2059
1629897197863,2060
1629897197867,2061
1629897197871,2061
1629897197875,2060
1629897197879,2059
1629897197883,2059
1629897197887,2063
1629897197891,2072
1629897197895,2083
1629897197899,2099
1629897197903,2120
1629897197907,2143
1629897197911,2158
1629897197915,2157
1629897197919,2136
1629897197923,2098
1629897197927,2058
1629897197931,2032
1629897197935,2024
1629897197939,2033
1629897197943,2048
1629897197947,2061
1629897197951,2066
1629897197955,2066
1629897197959,2065
1629897197963,2064
1629897197967,2064
1629897197971,2064
1629897197975,2064
1629897197979,2065
1629897197983,2066
1629897197987,2066
1629897197991,2066
1629897197995,2067
1629897197999,2067
1629897198003,2067
1629897198007,2067
1629897198011,2068
1629897198015,2068
1629897198019,2069
1629897198023,2069
1629897198027,2070
1629897198031,2071
1629897198035,2071
1629897198039,2072
1629897198043,2072
1629897198047,2072
1629897198051,2073
1629897198055,2074
1629897198059,2075
1629897198063,2076
1629897198067,2077
1629897198071,2078
1629897198075,2079
1629897198079,2080
1629897198083,2081
1629897198087,2082
1629897198091,2084
1629897198095,2085
1629897198099,2088
1629897198103,2090
1629897198107,2093
1629897198111,2096
1629897198115,2098
1629897198119,2100
1629897198123,2102
1629897198127,2104
1629897198131,2106
1629897198135,2107
1629897198139,2110
1629897198143,2112
1629897198147,2114
1629897198151,2115
1629897198155,2116
1629897198159,2115
1629897198163,2114
1629897198167,2112
1629897198171,2108
1629897198175,2104
1629897198179,2100
1629897198183,2096
1629897198187,2091
1629897198191,2087
1629897198195,2083
1629897198199,2078
1629897198203,2074
1629897198207,2070
1629897198211,2068
1629897198215,2065
1629897198219,2064
1629897198223,2063
1629897198227,2062
1629897198231,2062
1629897198235,2060
1629897198239,2060
1629897198243,2059
1629897198247,2057
1629897198251,2057
1629897198255,2056
1629897198259,2057
1629897198263,2057
1629897198267,2057
1629897198271,2057
1629897198275,2057
1629897198279,2057
1629897198283,2057
1629897198287,2057
1629897198291,2057
1629897198295,2057
1629897198299,2057
1629897198303,2058
1629897198307,2058
1629897198311,2059
1629897198315,2059
1629897198319,2059
1629897198323,2058
1629897198327,2058
1629897198331,2059
1629897198335,2059
1629897198339,2059
1629897198343,2060
1629897198347,2060
1629897198351,2060
1629897198355,2060
1629897198359,2060
1629897198363,2060
1629897198367,2060
1629897198371,2059
1629897198375,2060
1629897198379,2060
1629897198383,2060
1629897198387,2060
1629897198391,2060
1629897198395,2060
1629897198399,2059
1629897198403,2059
1629897198407,2059
1629897198411,2059
1629897198415,2059
1629897198419,2059
1629897198423,2059
1629897198427,2058
1629897198431,2058
1629897198435,2058
1629897198439,2058
1629897198443,2058
1629897198447,2058
1629897198451,2058
1629897198455,2058
1629897198459,2057
1629897198463,2057
1629897198467,2057
1629897198471,2058
1629897198475,2058
1629897198479,2058
1629897198483,2058
1629897198487,2057
1629897198491,2057
1629897198495,2056
1629897198499,2056
1629897198503,2057
1629897198507,2057
1629897198511,2059
1629897198515,2062
1629897198519,2064
1629897198523,2065
1629897198527,2065
1629897198531,2064
1629897198535,2063
1629897198539,2062
1629897198543,2062
1629897198547,2062
1629897198551,2061
1629897198555,2061
1629897198559,2059
1629897198563,2058
1629897198567,2056
1629897198571,2056
1629897198575,2055
1629897198579,2055
1629897198583,2055
1629897198587,2056
1629897198591,2056
1629897198595,2055
1629897198599,2055
1629897198603,2054
1629897198607,2054
1629897198611,2054
1629897198615,2054
1629897198619,2055
1629897198623,2056
1629897198627,2057
1629897198631,2056
1629897198635,2055
1629897198639,2053
1629897198643,2054
1629897198647,2059
1629897198651,2068
1629897198655,2079
1629897198659,2095
1629897198663,2117
1629897198667,2139
1629897198671,2155
1629897198675,2154
1629897198679,2131
1629897198683,2091
1629897198687,2050
1629897198691,2023
1629897198695,2017
1629897198699,2027
1629897198703,2043
1629897198707,2055
1629897198711,2059
1629897198715,2057
1629897198719,2056
1629897198723,2055
1629897198727,2055
1629897198731,2055
1629897198735,2055
1629897198739,2055
1629897198743,2056
1629897198747,2057
1629897198751,2057
1629897198755,2057
1629897198759,2057
1629897198763,2057
1629897198767,2057
1629897198771,2058
1629897198775,2058
1629897198779,2058
1629897198783,2059
1629897198787,2059
1629897198791,2060
1629897198795,2060
1629897198799,2061
1629897198803,2061
1629897198807,2061
1629897198811,2062
1629897198815,2062
1629897198819,2063
1629897198823,2064
1629897198827,2065
1629897198831,2066
1629897198835,2067
1629897198839,2068
1629897198843,2069
1629897198847,2070
1629897198851,2071
1629897198855,2073
1629897198859,2075
1629897198863,2077
1629897198867,2080
1629897198871,2083
1629897198875,2085
1629897198879,2087
1629897198883,2089
1629897198887,2091
1629897198891,2093
1629897198895,2095
1629897198899,2097
1629897198903,2099
1629897198907,2100
1629897198911,2101
1629897198915,2102
1629897198919,2101
1629897198923,2099
1629897198927,2096
1629897198931,2093
1629897198935,2088
1629897198939,2083
1629897198943,2079
1629897198947,2073
1629897198951,2069
1629897198955,2065
1629897198959,2060
1629897198963,2057
1629897198967,2053
1629897198971,2050
1629897198975,2048
1629897198979,2048
1629897198983,2047
1629897198987,2046
1629897198991,2045
1629897198995,2044
1629897198999,2043
1629897199003,2042
1629897199007,2041
1629897199011,2041
1629897199015,2041
1629897199019,2041
1629897199023,2041
1629897199027,2041
1629897199031,2041
1629897199035,2041
1629897199039,2041
1629897199043,2041
1629897199047,2040
1629897199051,2040
1629897199055,2040
1629897199059,2040
1629897199063,2041
1629897199067,2042
1629897199071,2042
1629897199075,2043
1629897199079,2042
1629897199083,2042
1629897199087,2042
1629897199091,2042
1629897199095,2042
1629897199099,2042
1629897199103,2043
1629897199107,2043
1629897199111,2043
1629897199115,2044
1629897199119,2044
1629897199123,2043
1629897199127,2042
1629897199131,2042
1629897199135,2042
1629897199139,2042
1629897199143,2042
1629897199147,2043
1629897199151,2043
1629897199155,2043
1629897199159,2042
1629897199163,2042
1629897199167,2041
1629897199171,2041
1629897199175,2041
1629897199179,2041
1629897199183,2042
1629897199187,2042
1629897199191,2042
1629897199195,2041
1629897199199,2041
1629897199203,2040
1629897199207,2040
1629897199211,2040
1629897199215,2039
1629897199219,2040
1629897199223,2040
1629897199227,2040
1629897199231,2041
1629897199235,2041
1629897199239,2041
1629897199243,2040
1629897199247,2040
1629897199251,2040
1629897199255,2040
1629897199259,2040
1629897199263,2040
1629897199267,2040
1629897199271,2041
1629897199275,2041
1629897199279,2041
1629897199283,2041
1629897199287,2040
1629897199291,2040
1629897199295,2040
1629897199299,2040
1629897199303,2040
1629897199307,2040
1629897199311,2040
1629897199315,2040
1629897199319,2042
1629897199323,2043
1629897199327,2046
1629897199331,2048
1629897199335,2048
1629897199339,2048
1629897199343,2048
1629897199347,2047
1629897199351,2046
1629897199355,2046
1629897199359,2046
1629897199363,2045
1629897199367,2044
1629897199371,2043
1629897199375,2042
1629897199379,2041
1629897199383,2040
1629897199387,2040
1629897199391,2040
1629897199395,2040
1629897199399,2040
1629897199403,2039
1629897199407,2039
1629897199411,2039
1629897199415,2039
1629897199419,2039
1629897199423,2039
1629897199427,2039
1629897199431,2039
1629897199435,2040
1629897199439,2040
1629897199443,2039
1629897199447,2037
1629897199451,2037
1629897199455,2039
1629897199459,2046
1629897199463,2054
1629897199467,2065
1629897199471,2079
1629897199475,2099
1629897199479,2119
1629897199483,2131
1629897199487,2125
1629897199491,2098
1629897199495,2060
1629897199499,2025
1629897199503,2005
1629897199507,2006
1629897199511,2019
1629897199515,2034
1629897199519,2043
1629897199523,2043
1629897199527,2040
1629897199531,2039
1629897199535,2039
1629897199539,2039
1629897199543,2040
1629897199547,2041
1629897199551,2042
1629897199555,2042
1629897199559,2042
1629897199563,2042
1629897199567,2042
1629897199571,2042
1629897199575,2042
1629897199579,2042
1629897199583,2043
1629897199587,2043
1629897199591,2044
1629897199595,2045
1629897199599,2045
1629897199603,2045
1629897199607,2045
1629897199611,2046
1629897199615,2046
1629897199619,2047
1629897199623,2048
1629897199627,2048
1629897199631,2049
1629897199635,2050
1629897199639,2050
1629897199643,2051
1629897199647,2052
1629897199651,2053
1629897199655,2054
1629897199659,2055
1629897199663,2057
1629897199667,2059
1629897199671,2061
1629897199675,2063
1629897199679,2065
1629897199683,2067
1629897199687,2069
1629897199691,2072
1629897199695,2074
1629897199699,2076
1629897199703,2079
1629897199707,2081
1629897199711,2083
1629897199715,2084
1629897199719,2085
1629897199723,2086
1629897199727,2086
1629897199731,2086
1629897199735,2085
1629897199739,2083
1629897199743,2080
1629897199747,2076
1629897199751,2072
1629897199755,2067
1629897199759,2062
1629897199763,2057
1629897199767,2051
1629897199771,2048
1629897199775,2046
1629897199779,2044
1629897199783,2042
1629897199787,2040
1629897199791,2038
1629897199795,2036
1629897199799,2035
1629897199803,2034
1629897199807,2033
1629897199811,2033
1629897199815,2032
1629897199819,2032
1629897199823,2032
1629897199827,2032
1629897199831,2032
1629897199835,2032
1629897199839,2033
1629897199843,2033
1629897199847,2033
1629897199851,2032
1629897199855,2032
1629897199859,2033
1629897199863,2033
1629897199867,2033
1629897199871,2033
1629897199875,2034
1629897199879,2034
1629897199883,2034
1629897199887,2033
1629897199891,2033
1629897199895,2033
1629897199899,2034
1629897199903,2034
1629897199907,2034
1629897199911,2035
1629897199915,2035
1629897199919,2035
1629897199923,2035
1629897199927,2035
1629897199931,2035
1629897199935,2035
1629897199939,2035
1629897199943,2036
1629897199947,2036
1629897199951,2036
1629897199955,2036
1629897199959,2036
1629897199963,2036
1629897199967,2035
1629897199971,2035
1629897199975,2035
1629897199979,2036
1629897199983,2036
1629897199987,2036
1629897199991,2036
1629897199995,2036
1629897199999,2036
1629897200003,2035
1629897200007,2035
1629897200011,2035
1629897200015,2035
1629897200019,2036
1629897200023,2036
1629897200027,2036
1629897200031,2036
1629897200035,2036
1629897200039,2036
1629897200043,2036
1629897200047,2036
1629897200051,2036
1629897200055,2037
1629897200059,2037
1629897200063,2038
1629897200067,2038
1629897200071,2038
1629897200075,2038
1629897200079,2038
1629897200083,2037
1629897200087,2037
1629897200091,2037
1629897200095,2038
1629897200099,2038
1629897200103,2039
1629897200107,2040
1629897200111,2040
1629897200115,2040
1629897200119,2040
1629897200123,2039
1629897200127,2039
1629897200131,2039
1629897200135,2039
1629897200139,2040
1629897200143,2040
1629897200147,2040
1629897200151,2040
1629897200155,2041
1629897200159,2041
1629897200163,2043
1629897200167,2045
1629897200171,2047
1629897200175,2048
1629897200179,2048
1629897200183,2048
1629897200187,2048
1629897200191,2047
1629897200195,2046
1629897200199,2046
1629897200203,2046
1629897200207,2046
1629897200211,2045
1629897200215,2043
1629897200219,2043
1629897200223,2042
1629897200227,2042
1629897200231,2042
1629897200235,2042
1629897200239,2042
1629897200243,2041
1629897200247,2041
1629897200251,2041
1629897200255,2040
1629897200259,2041
1629897200263,2041
1629897200267,2041
1629897200271,2042
1629897200275,2042
1629897200279,2043
1629897200283,2042
1629897200287,2041
1629897200291,2040
1629897200295,2041
1629897200299,2046
1629897200303,2053
1629897200307,2063
1629897200311,2076
1629897200315,2094
1629897200319,2113
1629897200323,2126
1629897200327,2124
1629897200331,2104
1629897200335,2069
1629897200339,2035
1629897200343,2013
1629897200347,2010
1629897200351,2021
1629897200355,2036
1629897200359,2047
1629897200363,2048
1629897200367,2045
1629897200371,2044
1629897200375,2044
1629897200379,2044
1629897200383,2045
1629897200387,2046
1629897200391,2047
1629897200395,2047
1629897200399,2048
1629897200403,2048
1629897200407,2047
1629897200411,2048
1629897200415,2048
1629897200419,2048
1629897200423,2049
1629897200427,2049
1629897200431,2049
1629897200435,2050
1629897200439,2050
1629897200443,2051
1629897200447,2052
1629897200451,2052
1629897200455,2053
1629897200459,2053
1629897200463,2054
1629897200467,2055
1629897200471,2056
1629897200475,2057
1629897200479,2058
1629897200483,2059
1629897200487,2060
1629897200491,2061
1629897200495,2062
1629897200499,2063
1629897200503,2065
1629897200507,2067
1629897200511,2069
1629897200515,2071
1629897200519,2073
1629897200523,2074
1629897200527,2076
1629897200531,2078
1629897200535,2081
1629897200539,2084
1629897200543,2087
1629897200547,2088
1629897200551,2090
1629897200555,2091
1629897200559,2093
1629897200563,2093
1629897200567,2094
1629897200571,2094
1629897200575,2093
1629897200579,2092
1629897200583,2090
1629897200587,2087
1629897200591,2083
1629897200595,2078
1629897200599,2074
1629897200603,2069
1629897200607,2064
1629897200611,2060
1629897200615,2056
1629897200619,2053
1629897200623,2051
1629897200627,2049
1629897200631,2048
1629897200635,2047
1629897200639,2045
1629897200643,2044
1629897200647,2043
1629897200651,2042
1629897200655,2042
1629897200659,2041
1629897200663,2041
1629897200667,2041
1629897200671,2041
1629897200675,2041
1629897200679,2041
1629897200683,2041
1629897200687,2040
1629897200691,2040
1629897200695,2040
1629897200699,2040
1629897200703,2041
1629897200707,2041
1629897200711,2041
1629897200715,2042
1629897200719,2042
1629897200723,2041
1629897200727,2041
1629897200731,2041
1629897200735,2041
1629897200739,2041
1629897200743,2042
1629897200747,2042
1629897200751,2042
1629897200755,2042
1629897200759,2042
1629897200763,2043
1629897200767,2042
1629897200771,2042
1629897200775,2041
1629897200779,2041
1629897200783,2042
1629897200787,2042
1629897200791,2043
1629897200795,2043
1629897200799,2043
1629897200803,2043
1629897200807,2042
1629897200811,2042
1629897200815,2042
1629897200819,2042
1629897200823,2042
1629897200827,2042
1629897200831,2043
1629897200835,2043
1629897200839,2042
1629897200843,2042
1629897200847,2042
1629897200851,2042
1629897200855,2042
1629897200859,2042
1629897200863,2043
1629897200867,2043
1629897200871,2043
1629897200875,2043
1629897200879,2043
1629897200883,2043
1629897200887,2042
1629897200891,2042
1629897200895,2042
1629897200899,2043
1629897200903,2043
1629897200907,2044
1629897200911,2044
1629897200915,2044
1629897200919,2044
1629897200923,2043
1629897200927,2043
1629897200931,2043
1629897200935,2043
1629897200939,2044
1629897200943,2045
1629897200947,2045
1629897200951,2045
1629897200955,2045
1629897200959,2045
1629897200963,2045
1629897200967,2045
1629897200971,2045
1629897200975,2045
1629897200979,2045
1629897200983,2046
1629897200987,2046
1629897200991,2046
1629897200995,2046
1629897200999,2046
1629897201003,2046
1629897201007,2045
1629897201011,2045
1629897201015,2046
1629897201019,2046
1629897201023,2046
1629897201027,2047
1629897201031,2048
1629897201035,2051
1629897201039,2053
1629897201043,2054
1629897201047,2054
1629897201051,2053
1629897201055,2052
1629897201059,2051
1629897201063,2051
1629897201067,2051
1629897201071,2051
1629897201075,2050
1629897201079,2049
1629897201083,2048
1629897201087,2047
1629897201091,2046
1629897201095,2045
1629897201099,2045
1629897201103,2046
1629897201107,2047
1629897201111,2047
1629897201115,2047
1629897201119,2046
1629897201123,2045
1629897201127,2044
1629897201131,2045
1629897201135,2045
1629897201139,2047
1629897201143,2048
1629897201147,2048
1629897201151,2048
1629897201155,2046
1629897201159,2046
1629897201163,2048
1629897201167,2052
1629897201171,2060
1629897201175,2069
1629897201179,2083
1629897201183,2102
1629897201187,2121
1629897201191,2132
1629897201195,2126
1629897201199,2102
1629897201203,2067
1629897201207,2034
1629897201211,2015
1629897201215,2015
1629897201219,2027
1629897201223,2043
1629897201227,2051
1629897201231,2052
1629897201235,2050
1629897201239,2050
1629897201243,2049
1629897201247,2049
1629897201251,2050
1629897201255,2050
1629897201259,2050
1629897201263,2051
1629897201267,2052
1629897201271,2053
1629897201275,2053
1629897201279,2053
1629897201283,2053
1629897201287,2053
1629897201291,2053
1629897201295,2054
1629897201299,2055
1629897201303,2055
1629897201307,2056
1629897201311,2056
1629897201315,2056
1629897201319,2057
1629897201323,2058
1629897201327,2058
1629897201331,2058
1629897201335,2059
1629897201339,2059
1629897201343,2060
1629897201347,2062
1629897201351,2063
1629897201355,2064
1629897201359,2065
1629897201363,2065
1629897201367,2066
1629897201371,2068
1629897201375,2069
1629897201379,2072
1629897201383,2074
1629897201387,2076
1629897201391,2078
1629897201395,2081
1629897201399,2083
1629897201403,2084
1629897201407,2086
1629897201411,2088
1629897201415,2090
1629897201419,2092
1629897201423,2093
1629897201427,2095
1629897201431,2096
1629897201435,2096
1629897201439,2096
1629897201443,2095
1629897201447,2094
1629897201451,2092
1629897201455,2088
1629897201459,2085
1629897201463,2080
1629897201467,2076
1629897201471,2072
1629897201475,2068
1629897201479,2064
1629897201483,2060
1629897201487,2057
1629897201491,2053
1629897201495,2051
1629897201499,2049
1629897201503,2048
1629897201507,2048
1629897201511,2048
1629897201515,2047
1629897201519,2046
1629897201523,2045
1629897201527,2045
1629897201531,2045
1629897201535,2045
1629897201539,2044
1629897201543,2045
1629897201547,2045
1629897201551,2045
1629897201555,2045
1629897201559,2045
1629897201563,2045
1629897201567,2045
1629897201571,2045
1629897201575,2045
1629897201579,2045
1629897201583,2046
1629897201587,2046
1629897201591,2047
1629897201595,2047
1629897201599,2047
1629897201603,2047
1629897201607,2047
1629897201611,2047
1629897201615,2047
1629897201619,2047
1629897201623,2048
1629897201627,2048
1629897201631,2048
1629897201635,2048
1629897201639,2048
1629897201643,2048
1629897201647,2048
1629897201651,2048
1629897201655,2048
1629897201659,2048
1629897201663,2048
1629897201667,2048
1629897201671,2049
1629897201675,2049
1629897201679,2049
1629897201683,2049
1629897201687,2048
1629897201691,2048
1629897201695,2048
1629897201699,2048
1629897201703,2048
1629897201707,2048
1629897201711,2049
1629897201715,2049
1629897201719,2048
1629897201723,2048
1629897201727,2048
1629897201731,2048
1629897201735,2048
1629897201739,2048
1629897201743,2049
1629897201747,2049
1629897201751,2049
1629897201755,2049
1629897201759,2049
1629897201763,2049
1629897201767,2049
1629897201771,2049
1629897201775,2049
1629897201779,2050
1629897201783,2050
1629897201787,2050
1629897201791,2050
1629897201795,2050
1629897201799,2051
1629897201803,2051
1629897201807,2050
1629897201811,2050
1629897201815,2051
1629897201819,2051
1629897201823,2052
1629897201827,2052
1629897201831,2052
1629897201835,2053
1629897201839,2052
1629897201843,2052
1629897201847,2052
1629897201851,2052
1629897201855,2052
1629897201859,2053
1629897201863,2053
1629897201867,2054
1629897201871,2054
1629897201875,2054
1629897201879,2054
1629897201883,2054
1629897201887,2054
1629897201891,2054
1629897201895,2056
1629897201899,2058
1629897201903,2061
1629897201907,2063
1629897201911,2064
1629897201915,2064
1629897201919,2063
1629897201923,2061
1629897201927,2060
1629897201931,2060
1629897201935,2060
1629897201939,2060
1629897201943,2059
1629897201947,2058
1629897201951,2057
1629897201955,2056
1629897201959,2056
1629897201963,2055
1629897201967,2055
1629897201971,2055
1629897201975,2055
1629897201979,2055
1629897201983,2056
1629897201987,2056
1629897201991,2056
1629897201995,2056
1629897201999,2056
1629897202003,2056
1629897202007,2056
1629897202011,2057
1629897202015,2057
1629897202019,2056
1629897202023,2055
1629897202027,2056
1629897202031,2060
1629897202035,2068
1629897202039,2078
1629897202043,2091
1629897202047,2110
1629897202051,2131
1629897202055,2147
1629897202059,2149
1629897202063,2132
1629897202067,2098
1629897202071,2060
1629897202075,2033
1629897202079,2024
1629897202083,2031
1629897202087,2046
1629897202091,2058
1629897202095,2063
1629897202099,2063
1629897202103,2062
1629897202107,2062
1629897202111,2062
1629897202115,2062
1629897202119,2062
1629897202123,2062
1629897202127,2062
1629897202131,2062
1629897202135,2063
1629897202139,2064
1629897202143,2065
1629897202147,2065
1629897202151,2066
1629897202155,2066
1629897202159,2067
1629897202163,2067
1629897202167,2067
1629897202171,2067
1629897202175,2068
1629897202179,2068
1629897202183,2070
1629897202187,2071
1629897202191,2072
1629897202195,2073
1629897202199,2073
1629897202203,2074
1629897202207,2074
1629897202211,2074
1629897202215,2075
1629897202219,2076
1629897202223,2078
1629897202227,2080
1629897202231,2082
1629897202235,2083
1629897202239,2084
1629897202243,2085
1629897202247,2085
1629897202251,2087
1629897202255,2089
1629897202259,2092
1629897202263,2095
1629897202267,2097
1629897202271,2100
1629897202275,2102
1629897202279,2105
1629897202283,2106
1629897202287,2107
1629897202291,2108
1629897202295,2109
1629897202299,2111
1629897202303,2112
1629897202307,2112
1629897202311,2112
1629897202315,2110
1629897202319,2107
1629897202323,2103
1629897202327,2098
1629897202331,2094
1629897202335,2089
1629897202339,2086
1629897202343,2081
1629897202347,2078
1629897202351,2074
1629897202355,2071
1629897202359,2069
1629897202363,2066
1629897202367,2064
1629897202371,2062
1629897202375,2061
1629897202379,2061
1629897202383,2061
1629897202387,2061
1629897202391,2061
1629897202395,2060
1629897202399,2059
1629897202403,2058
1629897202407,2057
1629897202411,2057
1629897202415,2057
1629897202419,2058
1629897202423,2059
1629897202427,2059
1629897202431,2060
1629897202435,2060
1629897202439,2060
1629897202443,2060
1629897202447,2060
1629897202451,2059
1629897202455,2059
1629897202459,2060
1629897202463,2060
1629897202467,2060
1629897202471,2061
1629897202475,2061
1629897202479,2061
1629897202483,2061
1629897202487,2061
1629897202491,2061
1629897202495,2060
1629897202499,2060
1629897202503,2061
1629897202507,2062
1629897202511,2062
1629897202515,2062
1629897202519,2061
1629897202523,2061
1629897202527,2061
1629897202531,2061
1629897202535,2061
1629897202539,2061
1629897202543,2061
1629897202547,2061
1629897202551,2061
1629897202555,2061
1629897202559,2061
1629897202563,2061
1629897202567,2060
1629897202571,2060
1629897202575,2059
1629897202579,2059
1629897202583,2060
1629897202587,2060
1629897202591,2060
1629897202595,2060
1629897202599,2060
1629897202603,2060
1629897202607,2059
1629897202611,2059
1629897202615,2059
1629897202619,2058
1629897202623,2059
1629897202627,2059
1629897202631,2060
1629897202635,2060
1629897202639,2060
1629897202643,2060
1629897202647,2059
1629897202651,2059
1629897202655,2059
1629897202659,2060
1629897202663,2061
1629897202667,2061
1629897202671,2061
1629897202675,2061
1629897202679,2061
1629897202683,2060
1629897202687,2060
1629897202691,2060
1629897202695,2062
1629897202699,2064
1629897202703,2067
1629897202707,2069
1629897202711,2070
1629897202715,2069
1629897202719,2068
1629897202723,2066
1629897202727,2065
1629897202731,2065
1629897202735,2065
1629897202739,2064
1629897202743,2064
1629897202747,2063
1629897202751,2062
1629897202755,2061
1629897202759,2060
1629897202763,2059
1629897202767,2059
1629897202771,2059
1629897202775,2059
1629897202779,2059
1629897202783,2060
1629897202787,2060
1629897202791,2060
1629897202795,2060
1629897202799,2060
1629897202803,2060
1629897202807,2060
1629897202811,2060
1629897202815,2060
1629897202819,2059
1629897202823,2058
1629897202827,2060
1629897202831,2066
1629897202835,2076
1629897202839,2087
1629897202843,2104
1629897202847,2125
1629897202851,2147
1629897202855,2160
1629897202859,2157
1629897202863,2133
1629897202867,2092
1629897202871,2052
1629897202875,2028
1629897202879,2023
1629897202883,2033
1629897202887,2048
1629897202891,2060
1629897202895,2062
1629897202899,2061
1629897202903,2061
1629897202907,2061
1629897202911,2061
1629897202915,2062
1629897202919,2062
1629897202923,2063
1629897202927,2063
1629897202931,2063
1629897202935,2063
1629897202939,2064
1629897202943,2064
1629897202947,2065
1629897202951,2066
1629897202955,2066
1629897202959,2066
1629897202963,2066
1629897202967,2065
1629897202971,2066
1629897202975,2066
1629897202979,2067
1629897202983,2069
1629897202987,2069
1629897202991,2070
1629897202995,2070
1629897202999,2070
1629897203003,2071
1629897203007,2071
1629897203011,2072
1629897203015,2073
1629897203019,2075
1629897203023,2076
1629897203027,2078
1629897203031,2079
1629897203035,2081
1629897203039,2082
1629897203043,2083
1629897203047,2085
1629897203051,2087
1629897203055,2089
1629897203059,2091
1629897203063,2094
1629897203067,2097
1629897203071,2100
1629897203075,2102
1629897203079,2104
1629897203083,2105
1629897203087,2106
1629897203091,2107
1629897203095,2108
1629897203099,2109
1629897203103,2109
1629897203107,2109
1629897203111,2107
1629897203115,2105
1629897203119,2101
1629897203123,2096
1629897203127,2089
1629897203131,2084
1629897203135,2078
1629897203139,2074
1629897203143,2071
1629897203147,2068
1629897203151,2065
1629897203155,2063
1629897203159,2060
1629897203163,2057
1629897203167,2055
1629897203171,2053
1629897203175,2052
1629897203179,2052
1629897203183,2051
1629897203187,2051
1629897203191,2051
1629897203195,2050
1629897203199,2050
1629897203203,2049
1629897203207,2049
1629897203211,2049
1629897203215,2048
1629897203219,2048
1629897203223,2049
1629897203227,2049
1629897203231,2050
1629897203235,2050
1629897203239,2050
1629897203243,2049
1629897203247,2049
1629897203251,2049
1629897203255,2049
1629897203259,2050
1629897203263,2051
1629897203267,2051
1629897203271,2051
1629897203275,2051
1629897203279,2051
1629897203283,2051
1629897203287,2050
1629897203291,2051
1629897203295,2051
1629897203299,2051
1629897203303,2052
1629897203307,2052
1629897203311,2052
1629897203315,2052
1629897203319,2052
1629897203323,2052
1629897203327,2051
1629897203331,2051
1629897203335,2051
1629897203339,2051
1629897203343,2050
1629897203347,2050
1629897203351,2050
1629897203355,2050
1629897203359,2050
1629897203363,2050
1629897203367,2050
1629897203371,2050
1629897203375,2050
1629897203379,2050
1629897203383,2050
1629897203387,2050
1629897203391,2050
1629897203395,2050
1629897203399,2050
1629897203403,2049
1629897203407,2049
1629897203411,2048
1629897203415,2048
1629897203419,2049
1629897203423,2049
1629897203427,2050
1629897203431,2050
1629897203435,2050
1629897203439,2050
1629897203443,2050
1629897203447,2050
1629897203451,2050
1629897203455,2049
1629897203459,2050
1629897203463,2050
1629897203467,2050
1629897203471,2050
1629897203475,2051
1629897203479,2053
1629897203483,2054
1629897203487,2056
1629897203491,2057
1629897203495,2057
1629897203499,2057
1629897203503,2056
1629897203507,2056
1629897203511,2055
1629897203515,2055
1629897203519,2055
1629897203523,2054
1629897203527,2052
1629897203531,2051
1629897203535,2050
1629897203539,2049
1629897203543,2049
1629897203547,2049
1629897203551,2048
1629897203555,2048
1629897203559,2048
1629897203563,2048
1629897203567,2048
1629897203571,2048
1629897203575,2048
1629897203579,2048
1629897203583,2048
1629897203587,2049
1629897203591,2049
1629897203595,2050
1629897203599,2049
1629897203603,2048
1629897203607,2046
1629897203611,2047
1629897203615,2051
1629897203619,2062
1629897203623,2074
1629897203627,2089
1629897203631,2110
1629897203635,2133
1629897203639,2148
1629897203643,2147
1629897203647,2124
1629897203651,2085
1629897203655,2045
1629897203659,2018
1629897203663,2011
1629897203667,2021
1629897203671,2038
1629897203675,2049
1629897203679,2053
1629897203683,2051
1629897203687,2049
1629897203691,2048
1629897203695,2048
1629897203699,2048
1629897203703,2049
1629897203707,2050
1629897203711,2051
1629897203715,2051
1629897203719,2052
1629897203723,2052
1629897203727,2051
1629897203731,2051
1629897203735,2051
1629897203739,2052
1629897203743,2052
1629897203747,2053
1629897203751,2054
1629897203755,2054
1629897203759,2054
1629897203763,2055
1629897203767,2055
1629897203771,2055
1629897203775,2056
1629897203779,2056
1629897203783,2057
1629897203787,2058
1629897203791,2059
1629897203795,2060
1629897203799,2061
1629897203803,2061
1629897203807,2062
1629897203811,2063
1629897203815,2064
1629897203819,2066
1629897203823,2068
1629897203827,2070
1629897203831,2072
1629897203835,2074
1629897203839,2076
1629897203843,2078
1629897203847,2081
1629897203851,2083
1629897203855,2086
1629897203859,2088
1629897203863,2090
1629897203867,2092
1629897203871,2093
1629897203875,2094
1629897203879,2095
1629897203883,2096
1629897203887,2095
1629897203891,2094
1629897203895,2093
1629897203899,2090
1629897203903,2087
1629897203907,2082
1629897203911,2077
1629897203915,2072
1629897203919,2067
1629897203923,2062
1629897203927,2057
1629897203931,2053
1629897203935,2050
1629897203939,2048
1629897203943,2047
1629897203947,2045
1629897203951,2044
1629897203955,2042
1629897203959,2041
1629897203963,2040
1629897203967,2039
1629897203971,2038
1629897203975,2038
1629897203979,2038
1629897203983,2038
1629897203987,2038
1629897203991,2038
1629897203995,2038
1629897203999,2038
1629897204003,2038
1629897204007,2037
1629897204011,2037
1629897204015,2037
1629897204019,2038
1629897204023,2038
1629897204027,2038
1629897204031,2039
1629897204035,2039
1629897204039,2039
1629897204043,2039
1629897204047,2038
1629897204051,2038
1629897204055,2039
1629897204059,2039
1629897204063,2040
1629897204067,2040
1629897204071,2040
1629897204075,2040
1629897204079,2039
1629897204083,2039
1629897204087,2039
1629897204091,2039
1629897204095,2039
1629897204099,2040
1629897204103,2041
1629897204107,2041
1629897204111,2041
1629897204115,2041
1629897204119,2040
1629897204123,2039
1629897204127,2038
1629897204131,2039
1629897204135,2039
1629897204139,2039
1629897204143,2040
1629897204147,2040
1629897204151,2039
1629897204155,2039
1629897204159,2039
1629897204163,2039
1629897204167,2038
1629897204171,2038
1629897204175,2038
1629897204179,2038
1629897204183,2039
1629897204187,2039
1629897204191,2039
1629897204195,2039
1629897204199,2039
1629897204203,2039
1629897204207,2038
1629897204211,2038
1629897204215,2038
1629897204219,2038
1629897204223,2039
1629897204227,2039
1629897204231,2040
1629897204235,2040
1629897204239,2040
1629897204243,2040
1629897204247,2039
1629897204251,2039
1629897204255,2039
1629897204259,2039
1629897204263,2039
1629897204267,2040
1629897204271,2040
1629897204275,2040
1629897204279,2040
1629897204283,2040
1629897204287,2040
1629897204291,2040
1629897204295,2040
1629897204299,2041
1629897204303,2041
1629897204307,2041
1629897204311,2041
1629897204315,2040
1629897204319,2041
1629897204323,2042
1629897204327,2044
1629897204331,2047
1629897204335,2048
1629897204339,2048
1629897204343,2048
1629897204347,2047
1629897204351,2046
1629897204355,2046
1629897204359,2046
1629897204363,2045
1629897204367,2044
1629897204371,2043
1629897204375,2043
1629897204379,2042
1629897204383,2042
1629897204387,2041
1629897204391,2041
1629897204395,2040
1629897204399,2040
1629897204403,2040
1629897204407,2039
1629897204411,2039
1629897204415,2039
1629897204419,2040
1629897204423,2040
1629897204427,2040
1629897204431,2041
1629897204435,2041
1629897204439,2041
1629897204443,2041
1629897204447,2039
1629897204451,2038
1629897204455,2038
1629897204459,2042
1629897204463,2048
1629897204467,2058
1629897204471,2069
1629897204475,2086
1629897204479,2107
1629897204483,2126
1629897204487,2133
1629897204491,2122
1629897204495,2091
1629897204499,2051
1629897204503,2020
1629897204507,2006
1629897204511,2010
1629897204515,2024
1629897204519,2038
1629897204523,2044
1629897204527,2043
1629897204531,2041
1629897204535,2041
1629897204539,2042
1629897204543,2042
1629897204547,2043
1629897204551,2043
1629897204555,2043
1629897204559,2044
1629897204563,2044
1629897204567,2044
1629897204571,2044
1629897204575,2044
1629897204579,2045
1629897204583,2046
1629897204587,2046
1629897204591,2047
1629897204595,2047
1629897204599,2047
1629897204603,2048
1629897204607,2048
1629897204611,2048
1629897204615,2048
1629897204619,2049
1629897204623,2050
1629897204627,2051
1629897204631,2052
1629897204635,2053
1629897204639,2054
1629897204643,2054
1629897204647,2055
1629897204651,2056
1629897204655,2057
1629897204659,2058
1629897204663,2060
1629897204667,2062
1629897204671,2064
1629897204675,2065
1629897204679,2068
1629897204683,2069
1629897204687,2072
1629897204691,2074
1629897204695,2076
1629897204699,2079
1629897204703,2082
1629897204707,2084
1629897204711,2086
1629897204715,2088
1629897204719,2089
1629897204723,2090
1629897204727,2090
1629897204731,2091
1629897204735,2091
1629897204739,2090
1629897204743,2088
1629897204747,2085
1629897204751,2082
1629897204755,2077
1629897204759,2073
1629897204763,2068
1629897204767,2063
1629897204771,2058
1629897204775,2054
1629897204779,2050
1629897204783,2048
1629897204787,2046
1629897204791,2044
1629897204795,2043
1629897204799,2042
1629897204803,2040
1629897204807,2039
1629897204811,2038
1629897204815,2037
1629897204819,2037
1629897204823,2037
1629897204827,2037
1629897204831,2037
1629897204835,2037
1629897204839,2037
1629897204843,2037
1629897204847,2036
1629897204851,2036
1629897204855,2036
1629897204859,2037
1629897204863,2037
1629897204867,2037
1629897204871,2037
1629897204875,2038
1629897204879,2038
1629897204883,2038
1629897204887,2037
1629897204891,2037
1629897204895,2037
1629897204899,2037
1629897204903,2038
1629897204907,2038
1629897204911,2038
1629897204915,2038
1629897204919,2038
1629897204923,2038
1629897204927,2038
1629897204931,2038
1629897204935,2038
1629897204939,2039
1629897204943,2039
1629897204947,2039
1629897204951,2040
1629897204955,2040
1629897204959,2040
1629897204963,2040
1629897204967,2040
1629897204971,2039
1629897204975,2039
1629897204979,2039
1629897204983,2040
1629897204987,2040
1629897204991,2040
1629897204995,2040
1629897204999,2040
1629897205003,2040
1629897205007,2039
1629897205011,2039
1629897205015,2039
1629897205019,2039
1629897205023,2040
1629897205027,2040
1629897205031,2040
1629897205035,2040
1629897205039,2040
1629897205043,2040
1629897205047,2040
1629897205051,2040
1629897205055,2040
1629897205059,2040
1629897205063,2040
1629897205067,2040
1629897205071,2041
1629897205075,2041
1629897205079,2041
1629897205083,2041
1629897205087,2041
1629897205091,2040
1629897205095,2040
1629897205099,2041
1629897205103,2042
1629897205107,2042
1629897205111,2042
1629897205115,2042
1629897205119,2041
1629897205123,2041
1629897205127,2040
1629897205131,2041
1629897205135,2041
1629897205139,2042
1629897205143,2043
1629897205147,2043
1629897205151,2043
1629897205155,2043
1629897205159,2043
1629897205163,2043
1629897205167,2043
1629897205171,2043
1629897205175,2043
1629897205179,2043
1629897205183,2044
1629897205187,2044
1629897205191,2044
1629897205195,2044
1629897205199,2046
1629897205203,2047
1629897205207,2049
1629897205211,2051
1629897205215,2051
1629897205219,2051
1629897205223,2050
1629897205227,2049
1629897205231,2049
1629897205235,2049
1629897205239,2049
1629897205243,2048
1629897205247,2048
1629897205251,2047
1629897205255,2045
1629897205259,2045
1629897205263,2044
1629897205267,2044
1629897205271,2044
1629897205275,2044
1629897205279,2044
1629897205283,2044
1629897205287,2044
1629897205291,2044
1629897205295,2043
1629897205299,2044
1629897205303,2044
1629897205307,2045
1629897205311,2045
1629897205315,2045
1629897205319,2046
1629897205323,2044
1629897205327,2043
1629897205331,2042
1629897205335,2045
1629897205339,2052
1629897205343,2061
1629897205347,2072
1629897205351,2087
1629897205355,2107
1629897205359,2125
1629897205363,2132
1629897205367,2123
1629897205371,2094
1629897205375,2057
1629897205379,2027
1629897205383,2012
1629897205387,2016
1629897205391,2030
1629897205395,2044
1629897205399,2050
1629897205403,2050
1629897205407,2048
1629897205411,2047
1629897205415,2047
1629897205419,2047
1629897205423,2048
1629897205427,2048
1629897205431,2048
1629897205435,2049
1629897205439,2049
1629897205443,2049
1629897205447,2049
1629897205451,2049
1629897205455,2049
1629897205459,2050
1629897205463,2051
1629897205467,2052
1629897205471,2052
1629897205475,2052
1629897205479,2053
1629897205483,2054
1629897205487,2054
1629897205491,2054
1629897205495,2054
1629897205499,2055
1629897205503,2056
1629897205507,2057
1629897205511,2059
1629897205515,2059
1629897205519,2060
1629897205523,2060
1629897205527,2061
1629897205531,2062
1629897205535,2064
1629897205539,2065
1629897205543,2067
1629897205547,2069
1629897205551,2071
1629897205555,2073
1629897205559,2075
1629897205563,2076
1629897205567,2078
1629897205571,2080
1629897205575,2083
1629897205579,2085
1629897205583,2088
1629897205587,2090
1629897205591,2092
1629897205595,2093
1629897205599,2094
1629897205603,2095
1629897205607,2095
1629897205611,2095
1629897205615,2095
1629897205619,2093
1629897205623,2091
1629897205627,2088
1629897205631,2084
1629897205635,2080
1629897205639,2075
1629897205643,2070
1629897205647,2064
1629897205651,2060
1629897205655,2057
1629897205659,2054
1629897205663,2052
1629897205667,2050
1629897205671,2049
1629897205675,2048
1629897205679,2046
1629897205683,2045
1629897205687,2044
1629897205691,2043
1629897205695,2043
1629897205699,2043
1629897205703,2043
1629897205707,2043
1629897205711,2043
1629897205715,2043
1629897205719,2042
1629897205723,2042
1629897205727,2041
1629897205731,2041
1629897205735,2041
1629897205739,2042
1629897205743,2042
1629897205747,2043
1629897205751,2043
1629897205755,2043
1629897205759,2043
1629897205763,2042
1629897205767,2042
1629897205771,2042
1629897205775,2042
1629897205779,2043
1629897205783,2043
1629897205787,2043
1629897205791,2044
1629897205795,2043
1629897205799,2043
1629897205803,2043
1629897205807,2043
1629897205811,2043
1629897205815,2043
1629897205819,2043
1629897205823,2043
1629897205827,2043
1629897205831,2043
1629897205835,2043
1629897205839,2043
1629897205843,2043
1629897205847,2043
1629897205851,2043
1629897205855,2043
1629897205859,2043
1629897205863,2043
1629897205867,2043
1629897205871,2043
1629897205875,2043
1629897205879,2043
1629897205883,2043
1629897205887,2043
1629897205891,2042
1629897205895,2042
1629897205899,2042
1629897205903,2043
1629897205907,2043
1629897205911,2043
1629897205915,2043
1629897205919,2043
1629897205923,2043
1629897205927,2042
1629897205931,2042
1629897205935,2043
1629897205939,2043
1629897205943,2044
1629897205947,2044
1629897205951,2044
1629897205955,2044
1629897205959,2044
1629897205963,2044
1629897205967,2044
1629897205971,2044
1629897205975,2044
1629897205979,2044
1629897205983,2044
1629897205987,2044
1629897205991,2045
1629897205995,2045
1629897205999,2045
1629897206003,2045
1629897206007,2044
1629897206011,2044
1629897206015,2044
1629897206019,2045
1629897206023,2045
1629897206027,2045
1629897206031,2046
1629897206035,2046
1629897206039,2046
1629897206043,2045
1629897206047,2045
1629897206051,2045
1629897206055,2045
1629897206059,2046
1629897206063,2046
1629897206067,2046
1629897206071,2046
1629897206075,2046
1629897206079,2046
1629897206083,2046
1629897206087,2047
1629897206091,2049
1629897206095,2051
1629897206099,2053
1629897206103,2054
1629897206107,2054
1629897206111,2053
1629897206115,2052
1629897206119,2051
1629897206123,2049
1629897206127,2049
1629897206131,2049
1629897206135,2048
1629897206139,2048
1629897206143,2048
1629897206147,2047
1629897206151,2046
1629897206155,2046
1629897206159,2046
1629897206163,2046
1629897206167,2046
1629897206171,2045
1629897206175,2045
1629897206179,2045
1629897206183,2046
1629897206187,2046
1629897206191,2046
1629897206195,2046
1629897206199,2047
1629897206203,2047
1629897206207,2047
1629897206211,2046
1629897206215,2045
1629897206219,2044
1629897206223,2047
1629897206227,2052
1629897206231,2062
1629897206235,2072
1629897206239,2087
1629897206243,2107
1629897206247,2125
1629897206251,2134
1629897206255,2124
1629897206259,2097
1629897206263,2060
1629897206267,2029
1629897206271,2014
1629897206275,2017
1629897206279,2030
1629897206283,2044
1629897206287,2051
1629897206291,2051
1629897206295,2049
1629897206299,2049
1629897206303,2049
1629897206307,2050
1629897206311,2050
1629897206315,2051
1629897206319,2051
1629897206323,2051
1629897206327,2051
1629897206331,2052
1629897206335,2052
1629897206339,2053
1629897206343,2053
1629897206347,2054
1629897206351,2054
1629897206355,2054
1629897206359,2054
1629897206363,2054
1629897206367,2054
1629897206371,2054
1629897206375,2055
1629897206379,2057
1629897206383,2058
1629897206387,2058
1629897206391,2059
1629897206395,2059
1629897206399,2060
1629897206403,2061
1629897206407,2062
1629897206411,2062
1629897206415,2063
1629897206419,2064
1629897206423,2066
1629897206427,2067
1629897206431,2069
1629897206435,2071
1629897206439,2073
1629897206443,2074
1629897206447,2076
1629897206451,2078
1629897206455,2080
1629897206459,2082
1629897206463,2085
1629897206467,2088
1629897206471,2090
1629897206475,2091
1629897206479,2093
1629897206483,2094
1629897206487,2095
1629897206491,2096
1629897206495,2096
1629897206499,2097
1629897206503,2097
1629897206507,2096
1629897206511,2094
1629897206515,2091
1629897206519,2086
1629897206523,2081
1629897206527,2076
1629897206531,2072
1629897206535,2068
1629897206539,2064
1629897206543,2061
1629897206547,2057
1629897206551,2055
1629897206555,2052
1629897206559,2051
1629897206563,2049
1629897206567,2048
1629897206571,2047
1629897206575,2046
1629897206579,2045
1629897206583,2045
1629897206587,2045
1629897206591,2045
1629897206595,2045
1629897206599,2044
1629897206603,2044
1629897206607,2044
1629897206611,2043
1629897206615,2043
1629897206619,2044
1629897206623,2044
1629897206627,2044
1629897206631,2044
1629897206635,2044
1629897206639,2044
1629897206643,2044
1629897206647,2044
1629897206651,2044
1629897206655,2044
1629897206659,2044
1629897206663,2044
1629897206667,2045
1629897206671,2045
1629897206675,2045
1629897206679,2045
1629897206683,2045
1629897206687,2044
1629897206691,2044
1629897206695,2044
1629897206699,2044
1629897206703,2045
1629897206707,2045
1629897206711,2045
1629897206715,2045
1629897206719,2045
1629897206723,2045
1629897206727,2045
1629897206731,2044
1629897206735,2044
1629897206739,2044
1629897206743,2045
1629897206747,2045
1629897206751,2045
1629897206755,2045
1629897206759,2045
1629897206763,2045
1629897206767,2044
1629897206771,2044
1629897206775,2044
1629897206779,2045
1629897206783,2045
1629897206787,2045
1629897206791,2045
1629897206795,2045
1629897206799,2045
1629897206803,2045
1629897206807,2045
1629897206811,2045
1629897206815,2045
1629897206819,2045
1629897206823,2046
1629897206827,2046
1629897206831,2046
1629897206835,2046
1629897206839,2046
1629897206843,2046
1629897206847,2046
1629897206851,2046
1629897206855,2046
1629897206859,2047
1629897206863,2047
1629897206867,2047
1629897206871,2048
1629897206875,2048
1629897206879,2048
1629897206883,2048
1629897206887,2047
1629897206891,2048
1629897206895,2048
1629897206899,2048
1629897206903,2048
1629897206907,2048
1629897206911,2048
1629897206915,2048
1629897206919,2048
1629897206923,2048
1629897206927,2048
1629897206931,2048
1629897206935,2048
1629897206939,2048
1629897206943,2049
1629897206947,2049
1629897206951,2049
1629897206955,2049
1629897206959,2050
1629897206963,2050
1629897206967,2049
1629897206971,2049
1629897206975,2049
1629897206979,2049
1629897206983,2051
1629897206987,2054
1629897206991,2057
1629897206995,2059
1629897206999,2060
1629897207003,2059
1629897207007,2057
1629897207011,2056
1629897207015,2055
1629897207019,2055
1629897207023,2055
1629897207027,2054
1629897207031,2053
1629897207035,2052
1629897207039,2052
1629897207043,2051
1629897207047,2049
1629897207051,2049
1629897207055,2049
1629897207059,2049
1629897207063,2050
1629897207067,2050
1629897207071,2050
1629897207075,2050
1629897207079,2050
1629897207083,2050
1629897207087,2049
1629897207091,2050
1629897207095,2050
1629897207099,2051
1629897207103,2052
1629897207107,2052
1629897207111,2050
1629897207115,2050
1629897207119,2052
1629897207123,2059
1629897207127,2069
1629897207131,2082
1629897207135,2101
1629897207139,2122
1629897207143,2139
1629897207147,2143
1629897207151,2127
1629897207155,2094
1629897207159,2055
1629897207163,2028
1629897207167,2017
1629897207171,2024
1629897207175,2038
1629897207179,2051
1629897207183,2057
1629897207187,2056
1629897207191,2055
1629897207195,2055
1629897207199,2054
1629897207203,2054
1629897207207,2055
1629897207211,2056
1629897207215,2056
1629897207219,2057
1629897207223,2057
1629897207227,2057
1629897207231,2058
1629897207235,2058
1629897207239,2058
1629897207243,2059
1629897207247,2059
1629897207251,2059
1629897207255,2059
1629897207259,2060
1629897207263,2061
1629897207267,2062
1629897207271,2063
1629897207275,2063
1629897207279,2064
1629897207283,2064
1629897207287,2065
1629897207291,2066
1629897207295,2066
1629897207299,2068
1629897207303,2069
1629897207307,2070
1629897207311,2072
1629897207315,2073
1629897207319,2075
1629897207323,2075
1629897207327,2076
1629897207331,2078
1629897207335,2079
1629897207339,2081
1629897207343,2083
1629897207347,2086
1629897207351,2088
1629897207355,2091
1629897207359,2093
1629897207363,2095
1629897207367,2097
1629897207371,2098
1629897207375,2100
1629897207379,2102
1629897207383,2104
1629897207387,2105
1629897207391,2106
1629897207395,2106
1629897207399,2106
1629897207403,2104
1629897207407,2102
1629897207411,2098
1629897207415,2095
1629897207419,2090
1629897207423,2086
1629897207427,2082
1629897207431,2078
1629897207435,2074
1629897207439,2071
1629897207443,2067
1629897207447,2064
1629897207451,2061
1629897207455,2059
1629897207459,2058
1629897207463,2057
1629897207467,2056
1629897207471,2055
1629897207475,2055
1629897207479,2054
1629897207483,2054
1629897207487,2053
1629897207491,2052
1629897207495,2052
1629897207499,2052
1629897207503,2053
1629897207507,2054
1629897207511,2054
1629897207515,2055
1629897207519,2054
1629897207523,2054
1629897207527,2053
1629897207531,2054
1629897207535,2054
1629897207539,2055
1629897207543,2055
1629897207547,2056
1629897207551,2056
1629897207555,2056
1629897207559,2056
1629897207563,2056
1629897207567,2056
1629897207571,2056
1629897207575,2056
1629897207579,2056
1629897207583,2056
1629897207587,2056
1629897207591,2057
1629897207595,2057
1629897207599,2057
1629897207603,2057
1629897207607,2057
1629897207611,2058
1629897207615,2058
1629897207619,2058
1629897207623,2058
1629897207627,2057
1629897207631,2057
1629897207635,2058
1629897207639,2058
1629897207643,2058
1629897207647,2057
1629897207651,2056
1629897207655,2056
1629897207659,2056
1629897207663,2057
1629897207667,2057
1629897207671,2057
1629897207675,2057
1629897207679,2056
1629897207683,2056
1629897207687,2056
1629897207691,2056
1629897207695,2056
1629897207699,2057
1629897207703,2057
1629897207707,2057
1629897207711,2057
1629897207715,2057
1629897207719,2057
1629897207723,2057
1629897207727,2057
1629897207731,2057
1629897207735,2057
1629897207739,2057
1629897207743,2057
1629897207747,2058
1629897207751,2058
1629897207755,2059
1629897207759,2059
1629897207763,2058
1629897207767,2058
1629897207771,2058
1629897207775,2058
1629897207779,2058
1629897207783,2059
1629897207787,2059
1629897207791,2060
1629897207795,2060
1629897207799,2060
1629897207803,2059
1629897207807,2058
1629897207811,2058
1629897207815,2058
1629897207819,2059
1629897207823,2062
1629897207827,2064
1629897207831,2067
1629897207835,2068
1629897207839,2068
1629897207843,2067
1629897207847,2066
1629897207851,2065
1629897207855,2065
1629897207859,2064
1629897207863,2064
1629897207867,2064
1629897207871,2063
1629897207875,2062
1629897207879,2061
1629897207883,2060
1629897207887,2058
1629897207891,2058
1629897207895,2058
1629897207899,2058
1629897207903,2059
1629897207907,2059
1629897207911,2059
1629897207915,2059
1629897207919,2059
1629897207923,2058
1629897207927,2058
1629897207931,2059
1629897207935,2059
1629897207939,2060
1629897207943,2060
1629897207947,2059
1629897207951,2058
1629897207955,2058
1629897207959,2063
1629897207963,2072
1629897207967,2083
1629897207971,2098
1629897207975,2119
1629897207979,2142
1629897207983,2158
1629897207987,2159
1629897207991,2139
1629897207995,2102
1629897207999,2061
1629897208003,2033
1629897208007,2023
1629897208011,2031
1629897208015,2046
1629897208019,2059
1629897208023,2065
1629897208027,2064
1629897208031,2064
1629897208035,2064
1629897208039,2063
1629897208043,2063
1629897208047,2063
1629897208051,2063
1629897208055,2064
1629897208059,2064
1629897208063,2065
1629897208067,2065
1629897208071,2066
1629897208075,2067
1629897208079,2067
1629897208083,2067
1629897208087,2067
1629897208091,2067
1629897208095,2067
1629897208099,2068
1629897208103,2069
1629897208107,2070
1629897208111,2071
1629897208115,2071
1629897208119,2071
1629897208123,2070
1629897208127,2071
1629897208131,2072
1629897208135,2073
1629897208139,2074
1629897208143,2076
1629897208147,2077
1629897208151,2078
1629897208155,2079
1629897208159,2080
1629897208163,2082
1629897208167,2083
1629897208171,2084
1629897208175,2086
1629897208179,2088
1629897208183,2091
1629897208187,2094
1629897208191,2096
1629897208195,2099
1629897208199,2101
1629897208203,2103
1629897208207,2104
1629897208211,2106
1629897208215,2108
1629897208219,2109
1629897208223,2111
1629897208227,2112
1629897208231,2113
1629897208235,2113
1629897208239,2112
1629897208243,2110
1629897208247,2106
1629897208251,2102
1629897208255,2097
1629897208259,2092
1629897208263,2088
1629897208267,2083
1629897208271,2079
1629897208275,2075
1629897208279,2071
1629897208283,2068
1629897208287,2065
1629897208291,2063
1629897208295,2061
1629897208299,2060
1629897208303,2059
1629897208307,2058
1629897208311,2056
1629897208315,2055
1629897208319,2055
1629897208323,2055
1629897208327,2054
1629897208331,2054
1629897208335,2053
1629897208339,2053
1629897208343,2053
1629897208347,2054
1629897208351,2055
1629897208355,2055
1629897208359,2054
1629897208363,2054
1629897208367,2054
1629897208371,2054
1629897208375,2054
1629897208379,2055
1629897208383,2056
1629897208387,2056
1629897208391,2056
1629897208395,2056
1629897208399,2056
1629897208403,2056
1629897208407,2055
1629897208411,2055
1629897208415,2055
1629897208419,2056
1629897208423,2056
1629897208427,2057
1629897208431,2057
1629897208435,2057
1629897208439,2057
1629897208443,2057
1629897208447,2056
1629897208451,2056
1629897208455,2056
1629897208459,2056
1629897208463,2056
1629897208467,2056
1629897208471,2057
1629897208475,2057
1629897208479,2057
1629897208483,2056
1629897208487,2055
1629897208491,2055
1629897208495,2054
1629897208499,2055
1629897208503,2055
1629897208507,2055
1629897208511,2055
1629897208515,2054
1629897208519,2054
1629897208523,2054
1629897208527,2054
1629897208531,2054
1629897208535,2054
1629897208539,2054
1629897208543,2054
1629897208547,2054
1629897208551,2054
1629897208555,2054
1629897208559,2053
1629897208563,2053
1629897208567,2053
1629897208571,2053
1629897208575,2054
1629897208579,2054
1629897208583,2053
1629897208587,2053
1629897208591,2053
1629897208595,2054
1629897208599,2054
1629897208603,2054
1629897208607,2053
1629897208611,2052
1629897208615,2052
1629897208619,2053
1629897208623,2056
1629897208627,2059
1629897208631,2062
1629897208635,2063
1629897208639,2062
1629897208643,2061
1629897208647,2059
1629897208651,2058
1629897208655,2058
1629897208659,2058
1629897208663,2058
1629897208667,2057
1629897208671,2056
1629897208675,2054
1629897208679,2053
1629897208683,2052
1629897208687,2051
1629897208691,2051
1629897208695,2051
1629897208699,2051
1629897208703,2051
1629897208707,2052
1629897208711,2052
1629897208715,2052
1629897208719,2052
1629897208723,2052
1629897208727,2051
1629897208731,2051
1629897208735,2052
1629897208739,2052
1629897208743,2052
1629897208747,2051
1629897208751,2050
1629897208755,2052
1629897208759,2058
1629897208763,2068
1629897208767,2079
1629897208771,2095
1629897208775,2118
1629897208779,2140
1629897208783,2154
1629897208787,2150
1629897208791,2124
1629897208795,2083
1629897208799,2044
1629897208803,2020
1629897208807,2016
1629897208811,2028
1629897208815,2044
1629897208819,2055
1629897208823,2057
1629897208827,2055
1629897208831,2054
1629897208835,2053
1629897208839,2053
1629897208843,2053
1629897208847,2054
1629897208851,2054
1629897208855,2054
1629897208859,2055
1629897208863,2055
1629897208867,2056
1629897208871,2056
1629897208875,2056
1629897208879,2056
1629897208883,2056
1629897208887,2057
1629897208891,2057
1629897208895,2057
1629897208899,2058
1629897208903,2058
1629897208907,2059
1629897208911,2059
1629897208915,2060
1629897208919,2060
1629897208923,2061
1629897208927,2061
1629897208931,2062
1629897208935,2063
1629897208939,2063
1629897208943,2065
1629897208947,2066
1629897208951,2067
1629897208955,2068
1629897208959,2069
1629897208963,2070
1629897208967,2072
1629897208971,2073
1629897208975,2075
1629897208979,2078
1629897208983,2080
1629897208987,2083
1629897208991,2085
1629897208995,2088
1629897208999,2090
1629897209003,2092
1629897209007,2093
1629897209011,2095
1629897209015,2096
1629897209019,2098
1629897209023,2099
1629897209027,2100
1629897209031,2100
1629897209035,2100
1629897209039,2098
1629897209043,2095
1629897209047,2091
1629897209051,2086
1629897209055,2081
1629897209059,2076
1629897209063,2072
1629897209067,2067
1629897209071,2063
1629897209075,2059
1629897209079,2056
1629897209083,2053
1629897209087,2050
1629897209091,2048
1629897209095,2047
1629897209099,2046
1629897209103,2046
1629897209107,2045
1629897209111,2045
1629897209115,2044
1629897209119,2042
1629897209123,2041
1629897209127,2040
1629897209131,2040
1629897209135,2040
1629897209139,2041
1629897209143,2041
1629897209147,2041
1629897209151,2041
1629897209155,2042
1629897209159,2042
1629897209163,2042
1629897209167,2042
1629897209171,2041
1629897209175,2041
1629897209179,2041
1629897209183,2042
1629897209187,2042
1629897209191,2043
1629897209195,2043
1629897209199,2043
1629897209203,2043
1629897209207,2043
1629897209211,2043
1629897209215,2043
1629897209219,2043
1629897209223,2044
1629897209227,2044
1629897209231,2045
1629897209235,2045
1629897209239,2045
1629897209243,2044
1629897209247,2044
1629897209251,2044
1629897209255,2044
1629897209259,2044
1629897209263,2045
1629897209267,2045
1629897209271,2045
1629897209275,2044
1629897209279,2044
1629897209283,2043
1629897209287,2043
1629897209291,2043
1629897209295,2043
1629897209299,2043
1629897209303,2044
1629897209307,2044
1629897209311,2044
1629897209315,2044
1629897209319,2044
1629897209323,2043
1629897209327,2043
1629897209331,2043
1629897209335,2042
1629897209339,2043
1629897209343,2043
1629897209347,2043
1629897209351,2044
1629897209355,2044
1629897209359,2044
1629897209363,2043
1629897209367,2043
1629897209371,2043
1629897209375,2043
1629897209379,2044
1629897209383,2044
1629897209387,2045
1629897209391,2045
1629897209395,2045
1629897209399,2045
1629897209403,2045
1629897209407,2044
1629897209411,2044
1629897209415,2044
1629897209419,2045
1629897209423,2045
1629897209427,2045
1629897209431,2046
1629897209435,2045
1629897209439,2045
1629897209443,2045
1629897209447,2045
1629897209451,2046
1629897209455,2048
1629897209459,2050
1629897209463,2052
1629897209467,2053
1629897209471,2052
1629897209475,2051
1629897209479,2050
1629897209483,2050
1629897209487,2050
1629897209491,2049
1629897209495,2048
1629897209499,2048
1629897209503,2047
1629897209507,2047
1629897209511,2047
1629897209515,2046
1629897209519,2045
1629897209523,2044
1629897209527,2044
1629897209531,2044
1629897209535,2044
1629897209539,2044
1629897209543,2045
1629897209547,2045
1629897209551,2045
1629897209555,2045
1629897209559,2045
1629897209563,2045
1629897209567,2045
1629897209571,2045
1629897209575,2044
1629897209579,2043
1629897209583,2043
1629897209587,2047
1629897209591,2054
1629897209595,2063
1629897209599,2075
1629897209603,2091
1629897209607,2112
1629897209611,2131
1629897209615,2139
1629897209619,2127
1629897209623,2097
1629897209627,2057
1629897209631,2025
1629897209635,2010
1629897209639,2014
1629897209643,2029
1629897209647,2043
1629897209651,2049
1629897209655,2048
1629897209659,2047
1629897209663,2046
1629897209667,2046
1629897209671,2047
1629897209675,2047
1629897209679,2048
1629897209683,2048
1629897209687,2047
1629897209691,2047
1629897209695,2048
1629897209699,2048
1629897209703,2048
1629897209707,2049
1629897209711,2050
1629897209715,2050
1629897209719,2050
1629897209723,2050
1629897209727,2050
1629897209731,2050
1629897209735,2051
1629897209739,2051
1629897209743,2053
1629897209747,2053
1629897209751,2054
1629897209755,2055
1629897209759,2056
1629897209763,2056
1629897209767,2056
1629897209771,2057
1629897209775,2058
1629897209779,2060
1629897209783,2061
1629897209787,2063
1629897209791,2064
1629897209795,2066
1629897209799,2067
1629897209803,2069
1629897209807,2070
1629897209811,2072
1629897209815,2074
1629897209819,2077
1629897209823,2079
1629897209827,2082
1629897209831,2084
1629897209835,2087
1629897209839,2088
1629897209843,2090
1629897209847,2091
1629897209851,2092
1629897209855,2093
1629897209859,2093
1629897209863,2094
1629897209867,2094
1629897209871,2092
1629897209875,2089
1629897209879,2086
1629897209883,2081
1629897209887,2076
1629897209891,2071
1629897209895,2066
1629897209899,2062
1629897209903,2058
1629897209907,2055
1629897209911,2052
1629897209915,2049
1629897209919,2047
1629897209923,2045
1629897209927,2043
1629897209931,2042
1629897209935,2041
1629897209939,2040
1629897209943,2040
1629897209947,2040
1629897209951,2040
1629897209955,2040
1629897209959,2039
1629897209963,2039
1629897209967,2039
1629897209971,2038
1629897209975,2038
1629897209979,2039
1629897209983,2039
1629897209987,2039
1629897209991,2039
1629897209995,2039
1629897209999,2039
1629897210003,2038
1629897210007,2038
1629897210011,2038
1629897210015,2039
1629897210019,2039
1629897210023,2039
1629897210027,2039
1629897210031,2040
1629897210035,2040
1629897210039,2040
1629897210043,2040
1629897210047,2039
1629897210051,2040
1629897210055,2040
1629897210059,2040
1629897210063,2040
1629897210067,2041
1629897210071,2041
1629897210075,2041
1629897210079,2041
1629897210083,2040
1629897210087,2040
1629897210091,2040
1629897210095,2040
1629897210099,2040
1629897210103,2041
1629897210107,2041
1629897210111,2041
1629897210115,2041
1629897210119,2040
1629897210123,2040
1629897210127,2039
1629897210131,2039
1629897210135,2039
1629897210139,2040
1629897210143,2040
1629897210147,2040
1629897210151,2040
1629897210155,2041
1629897210159,2040
1629897210163,2040
1629897210167,2040
1629897210171,2040
1629897210175,2039
1629897210179,2039
1629897210183,2040
1629897210187,2040
1629897210191,2040
1629897210195,2041
1629897210199,2041
1629897210203,2040
1629897210207,2040
1629897210211,2040
1629897210215,2040
1629897210219,2041
1629897210223,2041
1629897210227,2042
1629897210231,2042
1629897210235,2042
1629897210239,2042
1629897210243,2042
1629897210247,2041
1629897210251,2042
1629897210255,2041
1629897210259,2042
1629897210263,2042
1629897210267,2043
1629897210271,2043
1629897210275,2043
1629897210279,2043
1629897210283,2043
1629897210287,2043
1629897210291,2043
1629897210295,2042
1629897210299,2043
1629897210303,2043
1629897210307,2043
1629897210311,2043
1629897210315,2044
1629897210319,2046
1629897210323,2048
1629897210327,2049
1629897210331,2050
1629897210335,2050
1629897210339,2049
1629897210343,2048
1629897210347,2048
1629897210351,2048
1629897210355,2048
1629897210359,2048
1629897210363,2046
1629897210367,2045
1629897210371,2044
1629897210375,2043
1629897210379,2043
1629897210383,2043
1629897210387,2043
1629897210391,2043
1629897210395,2043
1629897210399,2043
1629897210403,2042
1629897210407,2042
1629897210411,2042
1629897210415,2042
1629897210419,2042
1629897210423,2043
1629897210427,2043
1629897210431,2044
1629897210435,2045
1629897210439,2044
1629897210443,2042
1629897210447,2041
1629897210451,2042
1629897210455,2047
1629897210459,2054
1629897210463,2064
1629897210467,2077
1629897210471,2096
1629897210475,2117
1629897210479,2131
1629897210483,2131
1629897210487,2110
1629897210491,2074
1629897210495,2037
1629897210499,2013
1629897210503,2009
1629897210507,2020
1629897210511,2036
1629897210515,2047
1629897210519,2048
1629897210523,2046
1629897210527,2045
1629897210531,2044
1629897210535,2044
1629897210539,2044
1629897210543,2045
1629897210547,2046
1629897210551,2047
1629897210555,2047
1629897210559,2047
1629897210563,2047
1629897210567,2047
1629897210571,2047
1629897210575,2047
1629897210579,2048
1629897210583,2048
1629897210587,2048
1629897210591,2049
1629897210595,2049
1629897210599,2049
1629897210603,2049
1629897210607,2050
1629897210611,2050
1629897210615,2051
1629897210619,2052
1629897210623,2054
1629897210627,2055
1629897210631,2056
1629897210635,2057
1629897210639,2058
1629897210643,2059
1629897210647,2059
1629897210651,2060
1629897210655,2061
1629897210659,2063
1629897210663,2065
1629897210667,2067
1629897210671,2069
1629897210675,2071
1629897210679,2073
1629897210683,2075
1629897210687,2077
1629897210691,2079
1629897210695,2081
1629897210699,2084
1629897210703,2086
1629897210707,2088
1629897210711,2090
1629897210715,2091
1629897210719,2092
1629897210723,2093
1629897210727,2093
1629897210731,2093
1629897210735,2092
1629897210739,2090
1629897210743,2088
1629897210747,2084
1629897210751,2080
1629897210755,2075
1629897210759,2070
1629897210763,2065
1629897210767,2061
1629897210771,2057
1629897210775,2053
1629897210779,2050
1629897210783,2048
1629897210787,2047
1629897210791,2046
1629897210795,2044
1629897210799,2043
1629897210803,2042
1629897210807,2040
1629897210811,2040
1629897210815,2039
1629897210819,2039
1629897210823,2039
1629897210827,2039
1629897210831,2039
1629897210835,2038
1629897210839,2038
1629897210843,2038
1629897210847,2038
1629897210851,2038
1629897210855,2038
1629897210859,2038
1629897210863,2038
1629897210867,2038
1629897210871,2038
1629897210875,2038
1629897210879,2038
1629897210883,2038
1629897210887,2038
1629897210891,2038
1629897210895,2038
1629897210899,2038
1629897210903,2039
1629897210907,2039
1629897210911,2039
1629897210915,2040
1629897210919,2039
1629897210923,2039
1629897210927,2038
1629897210931,2038
1629897210935,2038
1629897210939,2039
1629897210943,2040
1629897210947,2040
1629897210951,2040
1629897210955,2040
1629897210959,2039
1629897210963,2039
1629897210967,2039
1629897210971,2039
1629897210975,2039
1629897210979,2039
1629897210983,2040
1629897210987,2040
1629897210991,2040
1629897210995,2040
1629897210999,2039
1629897211003,2039
1629897211007,2039
1629897211011,2039
1629897211015,2039
1629897211019,2039
1629897211023,2039
1629897211027,2039
1629897211031,2040
1629897211035,2040
1629897211039,2039
1629897211043,2039
1629897211047,2039
1629897211051,2039
1629897211055,2039
1629897211059,2039
1629897211063,2040
1629897211067,2040
1629897211071,2040
1629897211075,2040
1629897211079,2040
1629897211083,2039
1629897211087,2039
1629897211091,2039
1629897211095,2040
1629897211099,2041
1629897211103,2041
1629897211107,2041
1629897211111,2041
1629897211115,2041
1629897211119,2040
1629897211123,2040
1629897211127,2039
1629897211131,2040
1629897211135,2040
1629897211139,2041
1629897211143,2042
1629897211147,2042
1629897211151,2042
1629897211155,2042
1629897211159,2042
1629897211163,2042
1629897211167,2042
1629897211171,2042
1629897211175,2042
1629897211179,2043
1629897211183,2045
1629897211187,2047
1629897211191,2049
1629897211195,2050
1629897211199,2051
1629897211203,2050
1629897211207,2049
1629897211211,2048
1629897211215,2048
1629897211219,2048
1629897211223,2048
1629897211227,2048
1629897211231,2047
1629897211235,2046
1629897211239,2045
1629897211243,2043
1629897211247,2042
1629897211251,2042
1629897211255,2042
1629897211259,2042
1629897211263,2043
1629897211267,2043
1629897211271,2043
1629897211275,2043
1629897211279,2043
1629897211283,2042
1629897211287,2042
1629897211291,2042
1629897211295,2043
1629897211299,2044
1629897211303,2044
1629897211307,2044
1629897211311,2042
1629897211315,2041
1629897211319,2044
1629897211323,2048
1629897211327,2057
1629897211331,2067
1629897211335,2083
1629897211339,2103
1629897211343,2122
1629897211347,2131
1629897211351,2122
1629897211355,2095
1629897211359,2058
1629897211363,2026
1629897211367,2010
1629897211371,2012
1629897211375,2026
1629897211379,2041
1629897211383,2048
1629897211387,2048
1629897211391,2047
1629897211395,2046
1629897211399,2046
1629897211403,2046
1629897211407,2046
1629897211411,2046
1629897211415,2047
1629897211419,2048
1629897211423,2048
1629897211427,2048
1629897211431,2048
1629897211435,2049
1629897211439,2049
1629897211443,2049
1629897211447,2049
1629897211451,2050
1629897211455,2050
1629897211459,2051
1629897211463,2052
1629897211467,2053
1629897211471,2053
1629897211475,2054
1629897211479,2055
1629897211483,2056
1629897211487,2056
1629897211491,2056
1629897211495,2056
1629897211499,2057
1629897211503,2058
1629897211507,2060
1629897211511,2062
1629897211515,2063
1629897211519,2064
1629897211523,2065
1629897211527,2066
1629897211531,2068
1629897211535,2069
1629897211539,2071
1629897211543,2073
1629897211547,2075
1629897211551,2077
1629897211555,2080
1629897211559,2082
1629897211563,2084
1629897211567,2086
1629897211571,2088
1629897211575,2090
1629897211579,2092
1629897211583,2093
1629897211587,2094
1629897211591,2095
1629897211595,2096
1629897211599,2096
1629897211603,2094
1629897211607,2092
1629897211611,2088
1629897211615,2084
1629897211619,2080
1629897211623,2076
1629897211627,2072
1629897211631,2068
1629897211635,2064
1629897211639,2060
1629897211643,2057
1629897211647,2054
1629897211651,2052
1629897211655,2049
1629897211659,2048
1629897211663,2048
1629897211667,2047
1629897211671,2046
1629897211675,2045
1629897211679,2045
1629897211683,2044
1629897211687,2044
1629897211691,2043
1629897211695,2043
1629897211699,2043
1629897211703,2044
1629897211707,2044
1629897211711,2044
1629897211715,2044
1629897211719,2044
1629897211723,2044
1629897211727,2043
1629897211731,2043
1629897211735,2043
1629897211739,2044
1629897211743,2045
1629897211747,2045
1629897211751,2046
1629897211755,2046
1629897211759,2045
1629897211763,2045
1629897211767,2044
1629897211771,2044
1629897211775,2044
1629897211779,2045
1629897211783,2045
1629897211787,2045
1629897211791,2045
1629897211795,2045
1629897211799,2045
1629897211803,2045
1629897211807,2044
1629897211811,2044
1629897211815,2044
1629897211819,2045
1629897211823,2045
1629897211827,2045
1629897211831,2045
1629897211835,2045
1629897211839,2045
1629897211843,2045
1629897211847,2044
1629897211851,2044
1629897211855,2044
1629897211859,2044
1629897211863,2044
1629897211867,2044
1629897211871,2044
1629897211875,2044
1629897211879,2044
1629897211883,2044
1629897211887,2044
1629897211891,2044
1629897211895,2044
1629897211899,2044
1629897211903,2044
1629897211907,2044
1629897211911,2044
1629897211915,2045
1629897211919,2045
1629897211923,2045
1629897211927,2045
1629897211931,2045
1629897211935,2045
1629897211939,2045
1629897211943,2046
1629897211947,2046
1629897211951,2047
1629897211955,2047
1629897211959,2047
1629897211963,2047
1629897211967,2046
1629897211971,2046
1629897211975,2046
1629897211979,2047
1629897211983,2047
1629897211987,2047
1629897211991,2048
1629897211995,2048
1629897211999,2048
1629897212003,2048
1629897212007,2047
1629897212011,2047
1629897212015,2047
1629897212019,2048
1629897212023,2048
1629897212027,2048
1629897212031,2048
1629897212035,2048
1629897212039,2048
1629897212043,2048
1629897212047,2049
1629897212051,2051
1629897212055,2053
1629897212059,2055
1629897212063,2057
1629897212067,2056
1629897212071,2055
1629897212075,2054
1629897212079,2054
1629897212083,2053
1629897212087,2053
1629897212091,2052
1629897212095,2052
1629897212099,2051
1629897212103,2050
1629897212107,2050
1629897212111,2049
1629897212115,2048
1629897212119,2048
1629897212123,2047
1629897212127,2047
1629897212131,2047
1629897212135,2048
1629897212139,2048
1629897212143,2048
1629897212147,2048
1629897212151,2048
1629897212155,2048
1629897212159,2048
1629897212163,2048
1629897212167,2048
1629897212171,2048
1629897212175,2047
1629897212179,2047
1629897212183,2048
1629897212187,2054
1629897212191,2063
1629897212195,2074
1629897212199,2090
1629897212203,2110
1629897212207,2129
1629897212211,2138
1629897212215,2131
1629897212219,2104
1629897212223,2067
1629897212227,2034
1629897212231,2017
1629897212235,2017
1629897212239,2029
1629897212243,2043
1629897212247,2051
1629897212251,2052
1629897212255,2050
1629897212259,2049
1629897212263,2050
1629897212267,2050
1629897212271,2051
1629897212275,2051
1629897212279,2051
1629897212283,2051
1629897212287,2051
1629897212291,2052
1629897212295,2052
1629897212299,2053
1629897212303,2053
1629897212307,2054
1629897212311,2055
1629897212315,2055
1629897212319,2056
1629897212323,2056
1629897212327,2056
1629897212331,2057
1629897212335,2057
1629897212339,2058
1629897212343,2059
1629897212347,2060
1629897212351,2061
1629897212355,2062
1629897212359,2063
1629897212363,2063
1629897212367,2063
1629897212371,2064
1629897212375,2065
1629897212379,2067
1629897212383,2068
1629897212387,2070
1629897212391,2071
1629897212395,2073
1629897212399,2075
1629897212403,2076
1629897212407,2078
1629897212411,2080
1629897212415,2083
1629897212419,2085
1629897212423,2088
1629897212427,2090
1629897212431,2093
1629897212435,2094
1629897212439,2096
1629897212443,2097
1629897212447,2098
1629897212451,2099
1629897212455,2100
1629897212459,2101
1629897212463,2101
1629897212467,2101
1629897212471,2099
1629897212475,2096
1629897212479,2092
1629897212483,2088
1629897212487,2083
1629897212491,2078
1629897212495,2073
1629897212499,2069
1629897212503,2065
1629897212507,2063
1629897212511,2060
1629897212515,2057
1629897212519,2055
1629897212523,2053
1629897212527,2052
1629897212531,2051
1629897212535,2050
1629897212539,2049
1629897212543,2048
1629897212547,2048
1629897212551,2048
1629897212555,2048
1629897212559,2048
1629897212563,2048
1629897212567,2048
1629897212571,2048
1629897212575,2048
1629897212579,2048
1629897212583,2048
1629897212587,2048
1629897212591,2049
1629897212595,2049
1629897212599,2049
1629897212603,2049
1629897212607,2049
1629897212611,2049
1629897212615,2049
1629897212619,2049
1629897212623,2049
1629897212627,2050
1629897212631,2050
1629897212635,2050
1629897212639,2050
1629897212643,2050
1629897212647,2049
1629897212651,2049
1629897212655,2050
1629897212659,2050
1629897212663,2051
1629897212667,2051
1629897212671,2051
1629897212675,2051
1629897212679,2050
1629897212683,2050
1629897212687,2050
1629897212691,2050
1629897212695,2050
1629897212699,2050
1629897212703,2050
1629897212707,2050
1629897212711,2050
1629897212715,2050
1629897212719,2050
1629897212723,2050
1629897212727,2050
1629897212731,2049
1629897212735,2049
1629897212739,2049
1629897212743,2049
1629897212747,2049
1629897212751,2049
1629897212755,2050
1629897212759,2050
1629897212763,2050
1629897212767,2049
1629897212771,2049
1629897212775,2049
1629897212779,2049
1629897212783,2049
1629897212787,2050
1629897212791,2051
1629897212795,2051
1629897212799,2051
1629897212803,2051
1629897212807,2050
1629897212811,2050
1629897212815,2050
1629897212819,2050
1629897212823,2051
1629897212827,2052
1629897212831,2052
1629897212835,2052
1629897212839,2052
1629897212843,2052
1629897212847,2052
1629897212851,2052
1629897212855,2051
1629897212859,2051
1629897212863,2053
1629897212867,2056
1629897212871,2059
1629897212875,2061
1629897212879,2061
1629897212883,2061
1629897212887,2059
1629897212891,2058
1629897212895,2058
1629897212899,2059
1629897212903,2059
1629897212907,2059
1629897212911,2058
1629897212915,2057
1629897212919,2056
1629897212923,2054
1629897212927,2053
1629897212931,2053
1629897212935,2053
1629897212939,2053
1629897212943,2053
1629897212947,2054
1629897212951,2054
1629897212955,2054
1629897212959,2054
1629897212963,2054
1629897212967,2054
1629897212971,2053
1629897212975,2054
1629897212979,2054
1629897212983,2056
1629897212987,2056
1629897212991,2055
1629897212995,2053
1629897212999,2054
1629897213003,2058
1629897213007,2067
1629897213011,2078
1629897213015,2094
1629897213019,2115
1629897213023,2138
1629897213027,2154
1629897213031,2154
1629897213035,2132
1629897213039,2093
1629897213043,2052
1629897213047,2025
1629897213051,2018
1629897213055,2027
1629897213059,2043
1629897213063,2055
1629897213067,2060
1629897213071,2059
1629897213075,2059
1629897213079,2058
1629897213083,2058
1629897213087,2058
1629897213091,2058
1629897213095,2059
1629897213099,2059
1629897213103,2060
1629897213107,2060
1629897213111,2061
1629897213115,2061
1629897213119,2062
1629897213123,2062
1629897213127,2062
1629897213131,2061
1629897213135,2061
1629897213139,2062
1629897213143,2063
1629897213147,2064
1629897213151,2065
1629897213155,2065
1629897213159,2065
1629897213163,2066
1629897213167,2066
1629897213171,2067
1629897213175,2068
1629897213179,2069
1629897213183,2070
1629897213187,2070
1629897213191,2071
1629897213195,2072
1629897213199,2073
1629897213203,2074
1629897213207,2076
1629897213211,2077
1629897213215,2079
1629897213219,2081
1629897213223,2083
1629897213227,2085
1629897213231,2089
1629897213235,2091
1629897213239,2093
1629897213243,2095
1629897213247,2097
1629897213251,2099
1629897213255,2100
1629897213259,2102
1629897213263,2104
1629897213267,2106
1629897213271,2107
1629897213275,2107
1629897213279,2107
1629897213283,2105
1629897213287,2102
1629897213291,2099
1629897213295,2095
1629897213299,2091
1629897213303,2086
1629897213307,2081
1629897213311,2076
1629897213315,2072
1629897213319,2068
1629897213323,2064
1629897213327,2061
1629897213331,2058
1629897213335,2056
1629897213339,2054
1629897213343,2053
1629897213347,2052
1629897213351,2051
1629897213355,2050
1629897213359,2049
1629897213363,2048
1629897213367,2048
1629897213371,2047
1629897213375,2047
1629897213379,2047
1629897213383,2047
1629897213387,2047
1629897213391,2048
1629897213395,2048
1629897213399,2048
1629897213403,2048
1629897213407,2047
1629897213411,2047
1629897213415,2048
1629897213419,2048
1629897213423,2048
1629897213427,2048
1629897213431,2049
1629897213435,2049
1629897213439,2049
1629897213443,2049
1629897213447,2049
1629897213451,2049
1629897213455,2049
1629897213459,2050
1629897213463,2050
1629897213467,2050
1629897213471,2051
1629897213475,2051
1629897213479,2051
1629897213483,2051
1629897213487,2050
1629897213491,2050
1629897213495,2050
1629897213499,2050
1629897213503,2051
1629897213507,2051
1629897213511,2051
1629897213515,2051
1629897213519,2051
1629897213523,2051
1629897213527,2050
1629897213531,2050
1629897213535,2050
1629897213539,2050
1629897213543,2051
1629897213547,2051
1629897213551,2051
1629897213555,2051
1629897213559,2051
1629897213563,2051
1629897213567,2050
1629897213571,2050
1629897213575,2051
1629897213579,2051
1629897213583,2051
1629897213587,2052
1629897213591,2052
1629897213595,2052
1629897213599,2052
1629897213603,2052
1629897213607,2051
1629897213611,2051
1629897213615,2051
1629897213619,2051
1629897213623,2052
1629897213627,2053
1629897213631,2055
1629897213635,2057
1629897213639,2060
1629897213643,2061
1629897213647,2061
1629897213651,2061
1629897213655,2060
1629897213659,2059
1629897213663,2059
1629897213667,2059
1629897213671,2059
1629897213675,2058
1629897213679,2057
1629897213683,2055
1629897213687,2054
1629897213691,2053
1629897213695,2052
1629897213699,2052
1629897213703,2052
1629897213707,2053
1629897213711,2053
1629897213715,2053
1629897213719,2052
1629897213723,2052
1629897213727,2051
1629897213731,2051
1629897213735,2052
1629897213739,2052
1629897213743,2053
1629897213747,2053
1629897213751,2053
1629897213755,2051
1629897213759,2049
1629897213763,2049
1629897213767,2053
1629897213771,2063
1629897213775,2074
1629897213779,2088
1629897213783,2110
1629897213787,2134
1629897213791,2153
1629897213795,2157
1629897213799,2139
1629897213803,2102
1629897213807,2057
1629897213811,2024
1629897213815,2011
1629897213819,2018
1629897213823,2035
1629897213827,2049
1629897213831,2055
1629897213835,2054
1629897213839,2052
1629897213843,2051
1629897213847,2050
1629897213851,2050
1629897213855,2050
1629897213859,2051
1629897213863,2052
1629897213867,2053
1629897213871,2052
1629897213875,2052
1629897213879,2051
1629897213883,2052
1629897213887,2052
1629897213891,2053
1629897213895,2053
1629897213899,2053
1629897213903,2054
1629897213907,2055
1629897213911,2055
1629897213915,2055
1629897213919,2055
1629897213923,2055
1629897213927,2055
1629897213931,2056
1629897213935,2056
1629897213939,2057
1629897213943,2058
1629897213947,2059
1629897213951,2060
1629897213955,2061
1629897213959,2062
1629897213963,2063
1629897213967,2064
1629897213971,2065
1629897213975,2066
1629897213979,2068
1629897213983,2070
1629897213987,2073
1629897213991,2076
1629897213995,2078
1629897213999,2080
1629897214003,2083
1629897214007,2084
1629897214011,2087
1629897214015,2089
1629897214019,2091
1629897214023,2093
1629897214027,2094
1629897214031,2095
1629897214035,2096
1629897214039,2096
1629897214043,2095
1629897214047,2093
1629897214051,2091
1629897214055,2087
1629897214059,2082
1629897214063,2077
1629897214067,2072
1629897214071,2067
1629897214075,2062
1629897214079,2057
1629897214083,2053
1629897214087,2049
1629897214091,2046
1629897214095,2043
1629897214099,2042
1629897214103,2040
1629897214107,2039
1629897214111,2039
1629897214115,2038
1629897214119,2037
1629897214123,2036
1629897214127,2035
1629897214131,2034
1629897214135,2033
1629897214139,2033
1629897214143,2033
1629897214147,2034
1629897214151,2034
1629897214155,2034
1629897214159,2034
1629897214163,2033
1629897214167,2033
1629897214171,2032
1629897214175,2033
1629897214179,2033
1629897214183,2034
1629897214187,2034
1629897214191,2035
1629897214195,2035
1629897214199,2035
1629897214203,2035
1629897214207,2035
1629897214211,2035
1629897214215,2035
1629897214219,2035
1629897214223,2036
1629897214227,2036
1629897214231,2037
1629897214235,2037
1629897214239,2037
1629897214243,2037
1629897214247,2036
1629897214251,2036
1629897214255,2036
1629897214259,2037
1629897214263,2037
1629897214267,2038
1629897214271,2038
1629897214275,2038
1629897214279,2038
1629897214283,2037
1629897214287,2037
1629897214291,2037
1629897214295,2037
1629897214299,2037
1629897214303,2037
1629897214307,2037
1629897214311,2038
1629897214315,2037
1629897214319,2037
1629897214323,2037
1629897214327,2036
1629897214331,2036
1629897214335,2036
1629897214339,2037
1629897214343,2037
1629897214347,2037
1629897214351,2037
1629897214355,2037
1629897214359,2037
1629897214363,2037
1629897214367,2036
1629897214371,2037
1629897214375,2037
1629897214379,2038
1629897214383,2037
1629897214387,2037
1629897214391,2037
1629897214395,2038
1629897214399,2038
1629897214403,2037
1629897214407,2036
1629897214411,2036
1629897214415,2037
1629897214419,2039
1629897214423,2043
1629897214427,2045
1629897214431,2047
1629897214435,2046
1629897214439,2045
1629897214443,2044
1629897214447,2043
1629897214451,2042
1629897214455,2042
1629897214459,2042
1629897214463,2041
1629897214467,2040
1629897214471,2040
1629897214475,2039
1629897214479,2038
1629897214483,2037
1629897214487,2037
1629897214491,2036
1629897214495,2036
1629897214499,2036
1629897214503,2036
1629897214507,2037
1629897214511,2037
1629897214515,2037
1629897214519,2036
1629897214523,2036
1629897214527,2037
1629897214531,2037
1629897214535,2037
1629897214539,2037
1629897214543,2036
1629897214547,2035
1629897214551,2038
1629897214555,2044
1629897214559,2053
1629897214563,2063
1629897214567,2077
1629897214571,2098
1629897214575,2121
1629897214579,2136
1629897214583,2134
1629897214587,2110
1629897214591,2070
1629897214595,2031
1629897214599,2007
1629897214603,2002
1629897214607,2013
1629897214611,2029
1629897214615,2041
1629897214619,2043
1629897214623,2041
1629897214627,2040
1629897214631,2040
1629897214635,2040
1629897214639,2040
1629897214643,2040
1629897214647,2040
1629897214651,2041
1629897214655,2041
1629897214659,2042
1629897214663,2042
1629897214667,2043
1629897214671,2043
1629897214675,2043
1629897214679,2044
1629897214683,2044
1629897214687,2044
1629897214691,2045
1629897214695,2045
1629897214699,2045
1629897214703,2046
1629897214707,2047
1629897214711,2048
1629897214715,2048
1629897214719,2048
1629897214723,2049
1629897214727,2049
1629897214731,2050
1629897214735,2051
1629897214739,2052
1629897214743,2053
1629897214747,2055
1629897214751,2057
1629897214755,2058
1629897214759,2060
1629897214763,2061
1629897214767,2062
1629897214771,2064
1629897214775,2067
1629897214779,2069
1629897214783,2072
1629897214787,2075
1629897214791,2077
1629897214795,2079
1629897214799,2082
1629897214803,2084
1629897214807,2085
1629897214811,2087
1629897214815,2088
1629897214819,2089
1629897214823,2091
1629897214827,2091
1629897214831,2090
1629897214835,2089
1629897214839,2086
1629897214843,2081
1629897214847,2076
1629897214851,2071
1629897214855,2066
1629897214859,2062
1629897214863,2058
1629897214867,2053
1629897214871,2050
1629897214875,2047
1629897214879,2044
1629897214883,2042
1629897214887,2039
1629897214891,2038
1629897214895,2036
1629897214899,2035
1629897214903,2035
1629897214907,2034
1629897214911,2034
1629897214915,2034
1629897214919,2034
1629897214923,2033
1629897214927,2033
1629897214931,2033
1629897214935,2032
1629897214939,2032
1629897214943,2033
1629897214947,2033
1629897214951,2033
1629897214955,2033
1629897214959,2033
1629897214963,2033
1629897214967,2033
1629897214971,2033
1629897214975,2033
1629897214979,2033
1629897214983,2033
1629897214987,2034
1629897214991,2034
1629897214995,2034
1629897214999,2034
1629897215003,2034
1629897215007,2033
1629897215011,2033
1629897215015,2034
1629897215019,2034
1629897215023,2034
1629897215027,2034
1629897215031,2035
1629897215035,2035
1629897215039,2035
1629897215043,2034
1629897215047,2034
1629897215051,2034
1629897215055,2034
1629897215059,2034
1629897215063,2035
1629897215067,2034
1629897215071,2035
1629897215075,2035
1629897215079,2034
1629897215083,2034
1629897215087,2034
1629897215091,2033
1629897215095,2033
1629897215099,2034
1629897215103,2034
1629897215107,2035
1629897215111,2035
1629897215115,2034
1629897215119,2033
1629897215123,2032
1629897215127,2032
1629897215131,2032
1629897215135,2033
1629897215139,2034
1629897215143,2034
1629897215147,2034
1629897215151,2034
1629897215155,2034
1629897215159,2034
1629897215163,2034
1629897215167,2033
1629897215171,2033
1629897215175,2034
1629897215179,2034
1629897215183,2034
1629897215187,2034
1629897215191,2034
1629897215195,2035
1629897215199,2035
1629897215203,2035
1629897215207,2034
1629897215211,2034
1629897215215,2034
1629897215219,2034
1629897215223,2035
1629897215227,2035
1629897215231,2036
1629897215235,2036
1629897215239,2035
1629897215243,2034
1629897215247,2034
1629897215251,2036
1629897215255,2038
1629897215259,2041
1629897215263,2043
1629897215267,2044
1629897215271,2043
1629897215275,2041
1629897215279,2041
1629897215283,2040
1629897215287,2040
1629897215291,2040
1629897215295,2040
1629897215299,2039
1629897215303,2038
1629897215307,2037
1629897215311,2037
1629897215315,2035
1629897215319,2035
1629897215323,2035
1629897215327,2034
1629897215331,2034
1629897215335,2034
1629897215339,2034
1629897215343,2035
1629897215347,2035
1629897215351,2035
1629897215355,2035
1629897215359,2035
1629897215363,2035
1629897215367,2035
1629897215371,2035
1629897215375,2034
1629897215379,2034
1629897215383,2034
1629897215387,2037
1629897215391,2044
1629897215395,2052
1629897215399,2062
1629897215403,2078
1629897215407,2098
1629897215411,2117
1629897215415,2126
1629897215419,2117
1629897215423,2088
1629897215427,2049
1629897215431,2017
1629897215435,2002
1629897215439,2005
1629897215443,2019
1629897215447,2033
1629897215451,2041
1629897215455,2040
1629897215459,2038
1629897215463,2038
1629897215467,2038
1629897215471,2038
1629897215475,2039
1629897215479,2039
1629897215483,2040
1629897215487,2040
1629897215491,2039
1629897215495,2039
1629897215499,2040
1629897215503,2041
1629897215507,2042
1629897215511,2043
1629897215515,2043
1629897215519,2043
1629897215523,2043
1629897215527,2043
1629897215531,2044
1629897215535,2045
1629897215539,2046
1629897215543,2047
1629897215547,2047
1629897215551,2048
1629897215555,2048
1629897215559,2049
1629897215563,2050
1629897215567,2051
1629897215571,2051
1629897215575,2052
1629897215579,2054
1629897215583,2055
1629897215587,2057
1629897215591,2059
1629897215595,2060
1629897215599,2062
1629897215603,2063
1629897215607,2065
1629897215611,2067
1629897215615,2069
1629897215619,2072
1629897215623,2075
1629897215627,2077
1629897215631,2080
1629897215635,2082
1629897215639,2084
1629897215643,2085
1629897215647,2087
1629897215651,2088
1629897215655,2089
1629897215659,2090
1629897215663,2091
1629897215667,2090
1629897215671,2089
1629897215675,2087
1629897215679,2083
1629897215683,2078
1629897215687,2073
1629897215691,2068
1629897215695,2063
1629897215699,2059
1629897215703,2056
1629897215707,2052
1629897215711,2049
1629897215715,2047
1629897215719,2044
1629897215723,2042
1629897215727,2040
1629897215731,2039
1629897215735,2038
1629897215739,2037
1629897215743,2037
1629897215747,2037
1629897215751,2037
1629897215755,2037
1629897215759,2036
1629897215763,2036
1629897215767,2035
1629897215771,2035
1629897215775,2035
1629897215779,2035
1629897215783,2035
1629897215787,2036
1629897215791,2036
1629897215795,2036
1629897215799,2036
1629897215803,2036
1629897215807,2036
1629897215811,2036
1629897215815,2036
1629897215819,2036
1629897215823,2036
1629897215827,2036
1629897215831,2037
1629897215835,2037
1629897215839,2037
1629897215843,2036
1629897215847,2036
1629897215851,2036
1629897215855,2036
1629897215859,2036
1629897215863,2037
1629897215867,2037
1629897215871,2037
1629897215875,2037
1629897215879,2037
1629897215883,2037
1629897215887,2037
1629897215891,2037
1629897215895,2037
1629897215899,2037
1629897215903,2037
1629897215907,2038
1629897215911,2038
1629897215915,2038
1629897215919,2038
1629897215923,2038
1629897215927,2037
1629897215931,2037
1629897215935,2037
1629897215939,2038
1629897215943,2038
1629897215947,2039
1629897215951,2039
1629897215955,2039
1629897215959,2039
1629897215963,2038
1629897215967,2038
1629897215971,2038
1629897215975,2038
1629897215979,2039
1629897215983,2039
1629897215987,2039
1629897215991,2040
1629897215995,2040
1629897215999,2039
1629897216003,2039
1629897216007,2039
1629897216011,2039
1629897216015,2039
1629897216019,2039
1629897216023,2039
1629897216027,2040
1629897216031,2041
1629897216035,2041
1629897216039,2041
1629897216043,2041
1629897216047,2040
1629897216051,2040
1629897216055,2040
1629897216059,2040
1629897216063,2041
1629897216067,2041
1629897216071,2042
1629897216075,2042
1629897216079,2042
1629897216083,2042
1629897216087,2042
1629897216091,2042
1629897216095,2041
1629897216099,2042
1629897216103,2042
1629897216107,2042
1629897216111,2042
1629897216115,2043
1629897216119,2044
1629897216123,2046
1629897216127,2047
1629897216131,2048
1629897216135,2049
1629897216139,2049
1629897216143,2048
1629897216147,2048
1629897216151,2048
1629897216155,2048
1629897216159,2048
1629897216163,2048
1629897216167,2046
1629897216171,2045
1629897216175,2044
1629897216179,2043
1629897216183,2043
1629897216187,2042
1629897216191,2042
1629897216195,2042
1629897216199,2043
1629897216203,2042
1629897216207,2042
1629897216211,2042
1629897216215,2042
1629897216219,2042
1629897216223,2043
1629897216227,2043
1629897216231,2044
1629897216235,2044
1629897216239,2044
1629897216243,2043
1629897216247,2042
1629897216251,2040
1629897216255,2041
1629897216259,2046
1629897216263,2054
1629897216267,2063
1629897216271,2076
1629897216275,2093
1629897216279,2113
1629897216283,2127
1629897216287,2127
1629897216291,2108
1629897216295,2073
1629897216299,2038
1629897216303,2014
1629897216307,2009
1629897216311,2020
1629897216315,2035
1629897216319,2047
1629897216323,2049
1629897216327,2047
1629897216331,2045
1629897216335,2045
1629897216339,2046
1629897216343,2046
1629897216347,2047
1629897216351,2048
1629897216355,2048
1629897216359,2048
1629897216363,2048
1629897216367,2048
1629897216371,2048
1629897216375,2048
1629897216379,2049
1629897216383,2050
1629897216387,2051
1629897216391,2051
1629897216395,2052
1629897216399,2052
1629897216403,2052
1629897216407,2052
1629897216411,2052
1629897216415,2053
1629897216419,2054
1629897216423,2055
1629897216427,2056
1629897216431,2057
1629897216435,2058
1629897216439,2059
1629897216443,2060
1629897216447,2060
1629897216451,2061
1629897216455,2062
1629897216459,2064
1629897216463,2065
1629897216467,2067
1629897216471,2069
1629897216475,2070
1629897216479,2073
1629897216483,2075
1629897216487,2077
1629897216491,2079
1629897216495,2081
1629897216499,2083
1629897216503,2086
1629897216507,2088
1629897216511,2090
1629897216515,2091
1629897216519,2092
1629897216523,2093
1629897216527,2094
1629897216531,2095
1629897216535,2095
1629897216539,2095
1629897216543,2093
1629897216547,2091
1629897216551,2087
1629897216555,2083
1629897216559,2078
1629897216563,2073
1629897216567,2068
1629897216571,2064
1629897216575,2060
1629897216579,2057
1629897216583,2054
1629897216587,2051
1629897216591,2049
1629897216595,2048
1629897216599,2047
1629897216603,2046
1629897216607,2044
1629897216611,2043
1629897216615,2043
1629897216619,2043
1629897216623,2042
1629897216627,2042
1629897216631,2042
1629897216635,2042
1629897216639,2042
1629897216643,2042
1629897216647,2042
1629897216651,2042
1629897216655,2042
1629897216659,2042
1629897216663,2042
1629897216667,2042
1629897216671,2042
1629897216675,2043
1629897216679,2043
1629897216683,2043
1629897216687,2043
1629897216691,2042
1629897216695,2042
1629897216699,2043
1629897216703,2043
1629897216707,2044
1629897216711,2044
1629897216715,2044
1629897216719,2045
1629897216723,2045
1629897216727,2045
1629897216731,2044
1629897216735,2044
1629897216739,2045
1629897216743,2045
1629897216747,2045
1629897216751,2045
1629897216755,2046
1629897216759,2046
1629897216763,2045
1629897216767,2045
1629897216771,2045
1629897216775,2045
1629897216779,2045
1629897216783,2046
1629897216787,2046
1629897216791,2046
1629897216795,2046
1629897216799,2046
1629897216803,2046
1629897216807,2045
1629897216811,2045
1629897216815,2045
1629897216819,2045
1629897216823,2046
1629897216827,2047
1629897216831,2047
1629897216835,2047
1629897216839,2046
1629897216843,2046
1629897216847,2046
1629897216851,2046
1629897216855,2046
1629897216859,2047
1629897216863,2047
1629897216867,2047
1629897216871,2047
1629897216875,2047
1629897216879,2047
1629897216883,2047
1629897216887,2047
1629897216891,2047
1629897216895,2048
1629897216899,2048
1629897216903,2048
1629897216907,2048
1629897216911,2048
1629897216915,2048
1629897216919,2048
1629897216923,2048
1629897216927,2048
1629897216931,2048
1629897216935,2048
1629897216939,2048
1629897216943,2049
1629897216947,2049
1629897216951,2049
1629897216955,2049
1629897216959,2049
1629897216963,2049
1629897216967,2048
1629897216971,2049
1629897216975,2049
1629897216979,2049
1629897216983,2050
1629897216987,2049
1629897216991,2049
1629897216995,2049
1629897216999,2049
1629897217003,2050
1629897217007,2052
1629897217011,2054
1629897217015,2056
1629897217019,2058
1629897217023,2058
1629897217027,2058
1629897217031,2057
1629897217035,2056
1629897217039,2055
1629897217043,2055
1629897217047,2054
1629897217051,2053
1629897217055,2052
1629897217059,2052
1629897217063,2051
1629897217067,2050
1629897217071,2050
1629897217075,2050
1629897217079,2049
1629897217083,2049
1629897217087,2048
1629897217091,2048
1629897217095,2048
1629897217099,2049
1629897217103,2049
1629897217107,2050
1629897217111,2050
1629897217115,2050
1629897217119,2050
1629897217123,2050
1629897217127,2049
1629897217131,2049
1629897217135,2048
1629897217139,2049
1629897217143,2052
1629897217147,2059
1629897217151,2068
1629897217155,2079
1629897217159,2095
1629897217163,2115
1629897217167,2131
1629897217171,2137
1629897217175,2124
1629897217179,2094
1629897217183,2058
1629897217187,2029
1629897217191,2018
1629897217195,2023
1629897217199,2037
1629897217203,2050
1629897217207,2056
1629897217211,2055
1629897217215,2053
1629897217219,2053
1629897217223,2053
1629897217227,2054
1629897217231,2055
1629897217235,2055
1629897217239,2055
1629897217243,2055
1629897217247,2055
1629897217251,2055
1629897217255,2055
1629897217259,2056
1629897217263,2057
1629897217267,2057
1629897217271,2058
1629897217275,2058
1629897217279,2059
1629897217283,2059
1629897217287,2060
1629897217291,2060
1629897217295,2060
1629897217299,2062
1629897217303,2062
1629897217307,2063
1629897217311,2064
1629897217315,2064
1629897217319,2065
1629897217323,2066
1629897217327,2067
1629897217331,2068
1629897217335,2069
1629897217339,2070
1629897217343,2072
1629897217347,2073
1629897217351,2075
1629897217355,2077
1629897217359,2078
1629897217363,2080
1629897217367,2081
1629897217371,2083
1629897217375,2086
1629897217379,2088
1629897217383,2091
1629897217387,2094
1629897217391,2096
1629897217395,2098
1629897217399,2099
1629897217403,2100
1629897217407,2101
1629897217411,2102
1629897217415,2103
1629897217419,2104
1629897217423,2104
1629897217427,2103
1629897217431,2101
1629897217435,2098
1629897217439,2094
1629897217443,2089
1629897217447,2085
1629897217451,2080
1629897217455,2076
1629897217459,2072
1629897217463,2069
1629897217467,2065
1629897217471,2063
1629897217475,2060
1629897217479,2058
1629897217483,2056
1629897217487,2054
1629897217491,2053
1629897217495,2051
1629897217499,2051
1629897217503,2051
1629897217507,2051
1629897217511,2051
1629897217515,2052
1629897217519,2052
1629897217523,2051
1629897217527,2051
1629897217531,2051
1629897217535,2051
1629897217539,2051
1629897217543,2051
1629897217547,2051
1629897217551,2052
1629897217555,2052
1629897217559,2052
1629897217563,2052
1629897217567,2052
1629897217571,2052
1629897217575,2052
1629897217579,2052
1629897217583,2053
1629897217587,2054
1629897217591,2054
1629897217595,2054
1629897217599,2054
1629897217603,2053
1629897217607,2053
1629897217611,2053
1629897217615,2053
1629897217619,2054
1629897217623,2054
