timestamp,ecg_waveform
1629807853158,2054
1629807853162,2049
1629807853166,2045
1629807853170,2041
1629807853174,2038
1629807853178,2036
1629807853182,2035
1629807853186,2035
1629807853190,2034
1629807853194,2033
1629807853198,2031
1629807853202,2029
1629807853206,2027
1629807853210,2026
1629807853214,2026
1629807853218,2027
1629807853222,2030
1629807853226,2032
1629807853230,2035
1629807853234,2037
1629807853238,2039
1629807853242,2039
1629807853246,2039
1629807853250,2037
1629807853254,2036
1629807853258,2036
1629807853262,2037
1629807853266,2038
1629807853270,2039
1629807853274,2038
1629807853278,2038
1629807853282,2037
1629807853286,2036
1629807853290,2037
1629807853294,2038
1629807853298,2039
1629807853302,2039
1629807853306,2038
1629807853310,2037
1629807853314,2035
1629807853318,2034
1629807853322,2034
1629807853326,2032
1629807853330,2031
1629807853334,2030
1629807853338,2030
1629807853342,2030
1629807853346,2031
1629807853350,2033
1629807853354,2033
1629807853358,2033
1629807853362,2033
1629807853366,2033
1629807853370,2033
1629807853374,2033
1629807853378,2033
1629807853382,2034
1629807853386,2033
1629807853390,2032
1629807853394,2032
1629807853398,2032
1629807853402,2032
1629807853406,2032
1629807853410,2033
1629807853414,2033
1629807853418,2032
1629807853422,2032
1629807853426,2032
1629807853430,2032
1629807853434,2033
1629807853438,2032
1629807853442,2032
1629807853446,2032
1629807853450,2033
1629807853454,2034
1629807853458,2035
1629807853462,2037
1629807853466,2038
1629807853470,2037
1629807853474,2037
1629807853478,2035
1629807853482,2034
1629807853486,2033
1629807853490,2033
1629807853494,2033
1629807853498,2034
1629807853502,2035
1629807853506,2035
1629807853510,2035
1629807853514,2034
1629807853518,2034
1629807853522,2035
1629807853526,2036
1629807853530,2038
1629807853534,2040
1629807853538,2042
1629807853542,2044
1629807853546,2046
1629807853550,2048
1629807853554,2048
1629807853558,2049
1629807853562,2048
1629807853566,2048
1629807853570,2046
1629807853574,2045
1629807853578,2043
1629807853582,2041
1629807853586,2039
1629807853590,2037
1629807853594,2036
1629807853598,2035
1629807853602,2036
1629807853606,2037
1629807853610,2038
1629807853614,2039
1629807853618,2039
1629807853622,2039
1629807853626,2040
1629807853630,2042
1629807853634,2043
1629807853638,2040
1629807853642,2031
1629807853646,2019
1629807853650,2011
1629807853654,2014
1629807853658,2044
1629807853662,2105
1629807853666,2181
1629807853670,2241
1629807853674,2253
1629807853678,2206
1629807853682,2116
1629807853686,2023
1629807853690,1964
1629807853694,1954
1629807853698,1982
1629807853702,2023
1629807853706,2052
1629807853710,2059
1629807853714,2053
1629807853718,2046
1629807853722,2040
1629807853726,2038
1629807853730,2038
1629807853734,2039
1629807853738,2041
1629807853742,2042
1629807853746,2043
1629807853750,2044
1629807853754,2044
1629807853758,2044
1629807853762,2044
1629807853766,2045
1629807853770,2046
1629807853774,2047
1629807853778,2047
1629807853782,2048
1629807853786,2048
1629807853790,2048
1629807853794,2049
1629807853798,2051
1629807853802,2052
1629807853806,2053
1629807853810,2053
1629807853814,2054
1629807853818,2055
1629807853822,2056
1629807853826,2058
1629807853830,2059
1629807853834,2061
1629807853838,2063
1629807853842,2064
1629807853846,2065
1629807853850,2067
1629807853854,2068
1629807853858,2071
1629807853862,2074
1629807853866,2078
1629807853870,2081
1629807853874,2085
1629807853878,2087
1629807853882,2089
1629807853886,2091
1629807853890,2093
1629807853894,2095
1629807853898,2096
1629807853902,2099
1629807853906,2102
1629807853910,2105
1629807853914,2108
1629807853918,2110
1629807853922,2110
1629807853926,2110
1629807853930,2108
1629807853934,2106
1629807853938,2103
1629807853942,2099
1629807853946,2094
1629807853950,2088
1629807853954,2081
1629807853958,2073
1629807853962,2065
1629807853966,2057
1629807853970,2050
1629807853974,2046
1629807853978,2042
1629807853982,2039
1629807853986,2036
1629807853990,2034
1629807853994,2032
1629807853998,2030
1629807854002,2029
1629807854006,2028
1629807854010,2026
1629807854014,2026
1629807854018,2026
1629807854022,2027
1629807854026,2029
1629807854030,2031
1629807854034,2032
1629807854038,2033
1629807854042,2033
1629807854046,2033
1629807854050,2033
1629807854054,2033
1629807854058,2034
1629807854062,2035
1629807854066,2036
1629807854070,2037
1629807854074,2038
1629807854078,2037
1629807854082,2037
1629807854086,2037
1629807854090,2037
1629807854094,2038
1629807854098,2038
1629807854102,2039
1629807854106,2040
1629807854110,2039
1629807854114,2038
1629807854118,2037
1629807854122,2036
1629807854126,2035
1629807854130,2034
1629807854134,2035
1629807854138,2035
1629807854142,2036
1629807854146,2037
1629807854150,2037
1629807854154,2036
1629807854158,2036
1629807854162,2035
1629807854166,2034
1629807854170,2034
1629807854174,2034
1629807854178,2034
1629807854182,2033
1629807854186,2033
1629807854190,2032
1629807854194,2033
1629807854198,2033
1629807854202,2034
1629807854206,2034
1629807854210,2035
1629807854214,2035
1629807854218,2035
1629807854222,2035
1629807854226,2035
1629807854230,2036
1629807854234,2036
1629807854238,2036
1629807854242,2036
1629807854246,2035
1629807854250,2035
1629807854254,2035
1629807854258,2035
1629807854262,2036
1629807854266,2036
1629807854270,2037
1629807854274,2037
1629807854278,2037
1629807854282,2037
1629807854286,2036
1629807854290,2036
1629807854294,2036
1629807854298,2036
1629807854302,2037
1629807854306,2038
1629807854310,2038
1629807854314,2038
1629807854318,2036
1629807854322,2035
1629807854326,2034
1629807854330,2033
1629807854334,2034
1629807854338,2036
1629807854342,2038
1629807854346,2040
1629807854350,2042
1629807854354,2044
1629807854358,2046
1629807854362,2047
1629807854366,2048
1629807854370,2049
1629807854374,2049
1629807854378,2049
1629807854382,2048
1629807854386,2047
1629807854390,2045
1629807854394,2043
1629807854398,2041
1629807854402,2040
1629807854406,2039
1629807854410,2038
1629807854414,2038
1629807854418,2038
1629807854422,2038
1629807854426,2039
1629807854430,2039
1629807854434,2040
1629807854438,2041
1629807854442,2043
1629807854446,2042
1629807854450,2037
1629807854454,2027
1629807854458,2016
1629807854462,2010
1629807854466,2019
1629807854470,2057
1629807854474,2127
1629807854478,2209
1629807854482,2272
1629807854486,2285
1629807854490,2238
1629807854494,2149
1629807854498,2059
1629807854502,2004
1629807854506,1995
1629807854510,2017
1629807854514,2047
1629807854518,2062
1629807854522,2059
1629807854526,2048
1629807854530,2041
1629807854534,2037
1629807854538,2036
1629807854542,2037
1629807854546,2039
1629807854550,2039
1629807854554,2040
1629807854558,2041
1629807854562,2042
1629807854566,2042
1629807854570,2043
1629807854574,2044
1629807854578,2044
1629807854582,2045
1629807854586,2045
1629807854590,2046
1629807854594,2046
1629807854598,2047
1629807854602,2048
1629807854606,2048
1629807854610,2048
1629807854614,2049
1629807854618,2050
1629807854622,2052
1629807854626,2053
1629807854630,2055
1629807854634,2057
1629807854638,2058
1629807854642,2059
1629807854646,2059
1629807854650,2060
1629807854654,2062
1629807854658,2063
1629807854662,2065
1629807854666,2067
1629807854670,2069
1629807854674,2072
1629807854678,2074
1629807854682,2077
1629807854686,2079
1629807854690,2081
1629807854694,2084
1629807854698,2086
1629807854702,2090
1629807854706,2094
1629807854710,2097
1629807854714,2100
1629807854718,2102
1629807854722,2104
1629807854726,2106
1629807854730,2108
1629807854734,2109
1629807854738,2109
1629807854742,2109
1629807854746,2107
1629807854750,2104
1629807854754,2100
1629807854758,2095
1629807854762,2089
1629807854766,2081
1629807854770,2073
1629807854774,2065
1629807854778,2059
1629807854782,2053
1629807854786,2049
1629807854790,2047
1629807854794,2044
1629807854798,2041
1629807854802,2038
1629807854806,2036
1629807854810,2034
1629807854814,2033
1629807854818,2032
1629807854822,2032
1629807854826,2032
1629807854830,2033
1629807854834,2034
1629807854838,2034
1629807854842,2035
1629807854846,2035
1629807854850,2035
1629807854854,2035
1629807854858,2035
1629807854862,2036
1629807854866,2037
1629807854870,2038
1629807854874,2039
1629807854878,2040
1629807854882,2040
1629807854886,2041
1629807854890,2041
1629807854894,2041
1629807854898,2042
1629807854902,2043
1629807854906,2043
1629807854910,2043
1629807854914,2043
1629807854918,2043
1629807854922,2043
1629807854926,2043
1629807854930,2042
1629807854934,2041
1629807854938,2041
1629807854942,2041
1629807854946,2041
1629807854950,2041
1629807854954,2041
1629807854958,2041
1629807854962,2040
1629807854966,2040
1629807854970,2039
1629807854974,2039
1629807854978,2039
1629807854982,2039
1629807854986,2039
1629807854990,2039
1629807854994,2040
1629807854998,2040
1629807855002,2040
1629807855006,2040
1629807855010,2039
1629807855014,2039
1629807855018,2039
1629807855022,2039
1629807855026,2039
1629807855030,2040
1629807855034,2040
1629807855038,2040
1629807855042,2040
1629807855046,2040
1629807855050,2040
1629807855054,2040
1629807855058,2040
1629807855062,2040
1629807855066,2041
1629807855070,2041
1629807855074,2041
1629807855078,2041
1629807855082,2041
1629807855086,2041
1629807855090,2041
1629807855094,2041
1629807855098,2042
1629807855102,2042
1629807855106,2042
1629807855110,2041
1629807855114,2040
1629807855118,2038
1629807855122,2037
1629807855126,2036
1629807855130,2036
1629807855134,2038
1629807855138,2040
1629807855142,2043
1629807855146,2046
1629807855150,2048
1629807855154,2051
1629807855158,2053
1629807855162,2055
1629807855166,2055
1629807855170,2055
1629807855174,2054
1629807855178,2053
1629807855182,2051
1629807855186,2050
1629807855190,2048
1629807855194,2047
1629807855198,2046
1629807855202,2045
1629807855206,2044
1629807855210,2044
1629807855214,2043
1629807855218,2043
1629807855222,2043
1629807855226,2043
1629807855230,2044
1629807855234,2046
1629807855238,2048
1629807855242,2048
1629807855246,2044
1629807855250,2035
1629807855254,2025
1629807855258,2017
1629807855262,2023
1629807855266,2056
1629807855270,2122
1629807855274,2204
1629807855278,2271
1629807855282,2293
1629807855286,2255
1629807855290,2174
1629807855294,2086
1629807855298,2028
1629807855302,2012
1629807855306,2027
1629807855310,2052
1629807855314,2066
1629807855318,2063
1629807855322,2052
1629807855326,2045
1629807855330,2042
1629807855334,2042
1629807855338,2043
1629807855342,2044
1629807855346,2044
1629807855350,2045
1629807855354,2045
1629807855358,2046
1629807855362,2046
1629807855366,2047
1629807855370,2047
1629807855374,2047
1629807855378,2048
1629807855382,2048
1629807855386,2049
1629807855390,2050
1629807855394,2051
1629807855398,2052
1629807855402,2052
1629807855406,2053
1629807855410,2054
1629807855414,2055
1629807855418,2056
1629807855422,2057
1629807855426,2059
1629807855430,2060
1629807855434,2062
1629807855438,2063
1629807855442,2064
1629807855446,2066
1629807855450,2067
1629807855454,2069
1629807855458,2070
1629807855462,2072
1629807855466,2073
1629807855470,2075
1629807855474,2078
1629807855478,2080
1629807855482,2083
1629807855486,2085
1629807855490,2088
1629807855494,2092
1629807855498,2095
1629807855502,2099
1629807855506,2102
1629807855510,2105
1629807855514,2107
1629807855518,2110
1629807855522,2113
1629807855526,2114
1629807855530,2115
1629807855534,2116
1629807855538,2115
1629807855542,2113
1629807855546,2110
1629807855550,2105
1629807855554,2099
1629807855558,2093
1629807855562,2085
1629807855566,2077
1629807855570,2070
1629807855574,2064
1629807855578,2058
1629807855582,2053
1629807855586,2049
1629807855590,2047
1629807855594,2044
1629807855598,2042
1629807855602,2041
1629807855606,2039
1629807855610,2037
1629807855614,2036
1629807855618,2036
1629807855622,2036
1629807855626,2036
1629807855630,2036
1629807855634,2036
1629807855638,2037
1629807855642,2037
1629807855646,2037
1629807855650,2037
1629807855654,2038
1629807855658,2038
1629807855662,2039
1629807855666,2040
1629807855670,2041
1629807855674,2041
1629807855678,2041
1629807855682,2041
1629807855686,2041
1629807855690,2041
1629807855694,2041
1629807855698,2041
1629807855702,2042
1629807855706,2042
1629807855710,2043
1629807855714,2044
1629807855718,2044
1629807855722,2043
1629807855726,2042
1629807855730,2041
1629807855734,2041
1629807855738,2041
1629807855742,2041
1629807855746,2041
1629807855750,2042
1629807855754,2042
1629807855758,2041
1629807855762,2040
1629807855766,2039
1629807855770,2038
1629807855774,2038
1629807855778,2039
1629807855782,2040
1629807855786,2041
1629807855790,2040
1629807855794,2040
1629807855798,2039
1629807855802,2039
1629807855806,2039
1629807855810,2040
1629807855814,2040
1629807855818,2040
1629807855822,2040
1629807855826,2040
1629807855830,2040
1629807855834,2040
1629807855838,2040
1629807855842,2040
1629807855846,2040
1629807855850,2040
1629807855854,2040
1629807855858,2040
1629807855862,2040
1629807855866,2040
1629807855870,2041
1629807855874,2041
1629807855878,2041
1629807855882,2041
1629807855886,2040
1629807855890,2040
1629807855894,2040
1629807855898,2041
1629807855902,2041
1629807855906,2042
1629807855910,2042
1629807855914,2042
1629807855918,2042
1629807855922,2042
1629807855926,2041
1629807855930,2042
1629807855934,2042
1629807855938,2041
1629807855942,2041
1629807855946,2041
1629807855950,2040
1629807855954,2040
1629807855958,2041
1629807855962,2042
1629807855966,2043
1629807855970,2044
1629807855974,2045
1629807855978,2045
1629807855982,2047
1629807855986,2049
1629807855990,2052
1629807855994,2055
1629807855998,2057
1629807856002,2057
1629807856006,2055
1629807856010,2053
1629807856014,2050
1629807856018,2048
1629807856022,2047
1629807856026,2046
1629807856030,2046
1629807856034,2045
1629807856038,2044
1629807856042,2044
1629807856046,2044
1629807856050,2045
1629807856054,2045
1629807856058,2044
1629807856062,2043
1629807856066,2044
1629807856070,2046
1629807856074,2048
1629807856078,2048
1629807856082,2042
1629807856086,2032
1629807856090,2021
1629807856094,2018
1629807856098,2034
1629807856102,2081
1629807856106,2154
1629807856110,2229
1629807856114,2272
1629807856118,2259
1629807856122,2191
1629807856126,2096
1629807856130,2016
1629807856134,1979
1629807856138,1987
1629807856142,2020
1629807856146,2053
1629807856150,2068
1629807856154,2065
1629807856158,2055
1629807856162,2048
1629807856166,2044
1629807856170,2043
1629807856174,2044
1629807856178,2046
1629807856182,2046
1629807856186,2047
1629807856190,2047
1629807856194,2048
1629807856198,2048
1629807856202,2049
1629807856206,2049
1629807856210,2050
1629807856214,2050
1629807856218,2050
1629807856222,2052
1629807856226,2053
1629807856230,2055
1629807856234,2056
1629807856238,2057
1629807856242,2057
1629807856246,2057
1629807856250,2058
1629807856254,2059
1629807856258,2060
1629807856262,2061
1629807856266,2062
1629807856270,2063
1629807856274,2065
1629807856278,2067
1629807856282,2069
1629807856286,2070
1629807856290,2072
1629807856294,2073
1629807856298,2075
1629807856302,2077
1629807856306,2080
1629807856310,2084
1629807856314,2087
1629807856318,2091
1629807856322,2094
1629807856326,2097
1629807856330,2100
1629807856334,2103
1629807856338,2106
1629807856342,2109
1629807856346,2112
1629807856350,2114
1629807856354,2116
1629807856358,2118
1629807856362,2120
1629807856366,2121
1629807856370,2122
1629807856374,2122
1629807856378,2120
1629807856382,2116
1629807856386,2111
1629807856390,2104
1629807856394,2097
1629807856398,2090
1629807856402,2082
1629807856406,2075
1629807856410,2068
1629807856414,2061
1629807856418,2056
1629807856422,2052
1629807856426,2048
1629807856430,2046
1629807856434,2043
1629807856438,2041
1629807856442,2039
1629807856446,2038
1629807856450,2037
1629807856454,2036
1629807856458,2035
1629807856462,2035
1629807856466,2036
1629807856470,2037
1629807856474,2038
1629807856478,2039
1629807856482,2040
1629807856486,2040
1629807856490,2040
1629807856494,2040
1629807856498,2041
1629807856502,2042
1629807856506,2043
1629807856510,2043
1629807856514,2043
1629807856518,2043
1629807856522,2043
1629807856526,2044
1629807856530,2045
1629807856534,2046
1629807856538,2046
1629807856542,2046
1629807856546,2045
1629807856550,2045
1629807856554,2044
1629807856558,2044
1629807856562,2044
1629807856566,2043
1629807856570,2042
1629807856574,2041
1629807856578,2041
1629807856582,2041
1629807856586,2042
1629807856590,2042
1629807856594,2041
1629807856598,2040
1629807856602,2038
1629807856606,2037
1629807856610,2037
1629807856614,2038
1629807856618,2038
1629807856622,2038
1629807856626,2038
1629807856630,2038
1629807856634,2038
1629807856638,2038
1629807856642,2038
1629807856646,2038
1629807856650,2038
1629807856654,2037
1629807856658,2036
1629807856662,2036
1629807856666,2037
1629807856670,2038
1629807856674,2038
1629807856678,2039
1629807856682,2038
1629807856686,2038
1629807856690,2037
1629807856694,2037
1629807856698,2037
1629807856702,2038
1629807856706,2039
1629807856710,2039
1629807856714,2039
1629807856718,2038
1629807856722,2038
1629807856726,2038
1629807856730,2038
1629807856734,2038
1629807856738,2038
1629807856742,2038
1629807856746,2038
1629807856750,2038
1629807856754,2039
1629807856758,2039
1629807856762,2039
1629807856766,2039
1629807856770,2040
1629807856774,2040
1629807856778,2041
1629807856782,2041
1629807856786,2042
1629807856790,2041
1629807856794,2041
1629807856798,2041
1629807856802,2041
1629807856806,2040
1629807856810,2038
1629807856814,2037
1629807856818,2036
1629807856822,2037
1629807856826,2039
1629807856830,2041
1629807856834,2043
1629807856838,2045
1629807856842,2046
1629807856846,2048
1629807856850,2049
1629807856854,2051
1629807856858,2053
1629807856862,2054
1629807856866,2054
1629807856870,2053
1629807856874,2052
1629807856878,2051
1629807856882,2048
1629807856886,2046
1629807856890,2043
1629807856894,2042
1629807856898,2041
1629807856902,2042
1629807856906,2043
1629807856910,2044
1629807856914,2045
1629807856918,2044
1629807856922,2044
1629807856926,2043
1629807856930,2044
1629807856934,2045
1629807856938,2047
1629807856942,2046
1629807856946,2040
1629807856950,2029
1629807856954,2019
1629807856958,2016
1629807856962,2034
1629807856966,2085
1629807856970,2161
1629807856974,2233
1629807856978,2267
1629807856982,2244
1629807856986,2167
1629807856990,2070
1629807856994,1995
1629807856998,1967
1629807857002,1983
1629807857006,2020
1629807857010,2054
1629807857014,2068
1629807857018,2064
1629807857022,2055
1629807857026,2049
1629807857030,2046
1629807857034,2046
1629807857038,2047
1629807857042,2048
1629807857046,2048
1629807857050,2048
1629807857054,2047
1629807857058,2048
1629807857062,2048
1629807857066,2050
1629807857070,2051
1629807857074,2052
1629807857078,2053
1629807857082,2053
1629807857086,2053
1629807857090,2054
1629807857094,2055
1629807857098,2056
1629807857102,2057
1629807857106,2058
1629807857110,2059
1629807857114,2059
1629807857118,2060
1629807857122,2061
1629807857126,2061
1629807857130,2062
1629807857134,2064
1629807857138,2066
1629807857142,2068
1629807857146,2070
1629807857150,2072
1629807857154,2073
1629807857158,2075
1629807857162,2076
1629807857166,2078
1629807857170,2080
1629807857174,2083
1629807857178,2085
1629807857182,2089
1629807857186,2092
1629807857190,2095
1629807857194,2099
1629807857198,2101
1629807857202,2104
1629807857206,2106
1629807857210,2108
1629807857214,2110
1629807857218,2112
1629807857222,2114
1629807857226,2115
1629807857230,2116
1629807857234,2116
1629807857238,2115
1629807857242,2113
1629807857246,2108
1629807857250,2103
1629807857254,2096
1629807857258,2089
1629807857262,2082
1629807857266,2075
1629807857270,2069
1629807857274,2064
1629807857278,2058
1629807857282,2054
1629807857286,2049
1629807857290,2046
1629807857294,2042
1629807857298,2040
1629807857302,2040
1629807857306,2039
1629807857310,2038
1629807857314,2037
1629807857318,2036
1629807857322,2034
1629807857326,2033
1629807857330,2033
1629807857334,2033
1629807857338,2034
1629807857342,2035
1629807857346,2036
1629807857350,2037
1629807857354,2038
1629807857358,2040
1629807857362,2041
1629807857366,2041
1629807857370,2042
1629807857374,2042
1629807857378,2042
1629807857382,2043
1629807857386,2044
1629807857390,2045
1629807857394,2045
1629807857398,2045
1629807857402,2045
1629807857406,2044
1629807857410,2044
1629807857414,2045
1629807857418,2045
1629807857422,2044
1629807857426,2043
1629807857430,2042
1629807857434,2042
1629807857438,2042
1629807857442,2043
1629807857446,2043
1629807857450,2042
1629807857454,2042
1629807857458,2041
1629807857462,2040
1629807857466,2040
1629807857470,2039
1629807857474,2039
1629807857478,2039
1629807857482,2040
1629807857486,2039
1629807857490,2038
1629807857494,2037
1629807857498,2036
1629807857502,2036
1629807857506,2037
1629807857510,2038
1629807857514,2040
1629807857518,2040
1629807857522,2040
1629807857526,2039
1629807857530,2039
1629807857534,2038
1629807857538,2038
1629807857542,2039
1629807857546,2039
1629807857550,2039
1629807857554,2039
1629807857558,2039
1629807857562,2040
1629807857566,2040
1629807857570,2040
1629807857574,2039
1629807857578,2038
1629807857582,2038
1629807857586,2038
1629807857590,2039
1629807857594,2039
1629807857598,2040
1629807857602,2040
1629807857606,2040
1629807857610,2040
1629807857614,2041
1629807857618,2041
1629807857622,2042
1629807857626,2043
1629807857630,2043
1629807857634,2043
1629807857638,2042
1629807857642,2042
1629807857646,2041
1629807857650,2041
1629807857654,2041
1629807857658,2042
1629807857662,2042
1629807857666,2042
1629807857670,2041
1629807857674,2041
1629807857678,2041
1629807857682,2042
1629807857686,2043
1629807857690,2043
1629807857694,2044
1629807857698,2043
1629807857702,2043
1629807857706,2043
1629807857710,2043
1629807857714,2044
1629807857718,2044
1629807857722,2045
1629807857726,2045
1629807857730,2045
1629807857734,2044
1629807857738,2042
1629807857742,2042
1629807857746,2041
1629807857750,2041
1629807857754,2041
1629807857758,2041
1629807857762,2041
1629807857766,2042
1629807857770,2043
1629807857774,2045
1629807857778,2047
1629807857782,2049
1629807857786,2052
1629807857790,2054
1629807857794,2055
1629807857798,2055
1629807857802,2055
1629807857806,2054
1629807857810,2052
1629807857814,2050
1629807857818,2048
1629807857822,2047
1629807857826,2046
1629807857830,2045
1629807857834,2044
1629807857838,2044
1629807857842,2044
1629807857846,2043
1629807857850,2042
1629807857854,2042
1629807857858,2042
1629807857862,2043
1629807857866,2045
1629807857870,2047
1629807857874,2048
1629807857878,2045
1629807857882,2037
1629807857886,2026
1629807857890,2016
1629807857894,2016
1629807857898,2040
1629807857902,2098
1629807857906,2179
1629807857910,2256
1629807857914,2292
1629807857918,2269
1629807857922,2192
1629807857926,2094
1629807857930,2020
1629807857934,1991
1629807857938,2004
1629807857942,2036
1629807857946,2061
1629807857950,2067
1629807857954,2058
1629807857958,2048
1629807857962,2043
1629807857966,2040
1629807857970,2040
1629807857974,2040
1629807857978,2040
1629807857982,2040
1629807857986,2041
1629807857990,2042
1629807857994,2044
1629807857998,2045
1629807858002,2046
1629807858006,2046
1629807858010,2046
1629807858014,2047
1629807858018,2047
1629807858022,2048
1629807858026,2048
1629807858030,2048
1629807858034,2049
1629807858038,2050
1629807858042,2051
1629807858046,2052
1629807858050,2052
1629807858054,2053
1629807858058,2054
1629807858062,2055
1629807858066,2057
1629807858070,2058
1629807858074,2060
1629807858078,2061
1629807858082,2062
1629807858086,2063
1629807858090,2064
1629807858094,2066
1629807858098,2068
1629807858102,2072
1629807858106,2075
1629807858110,2077
1629807858114,2079
1629807858118,2081
1629807858122,2083
1629807858126,2086
1629807858130,2090
1629807858134,2094
1629807858138,2098
1629807858142,2101
1629807858146,2104
1629807858150,2106
1629807858154,2107
1629807858158,2109
1629807858162,2110
1629807858166,2110
1629807858170,2110
1629807858174,2109
1629807858178,2107
1629807858182,2105
1629807858186,2102
1629807858190,2097
1629807858194,2091
1629807858198,2083
1629807858202,2076
1629807858206,2068
1629807858210,2061
1629807858214,2056
1629807858218,2051
1629807858222,2048
1629807858226,2045
1629807858230,2042
1629807858234,2040
1629807858238,2037
1629807858242,2035
1629807858246,2033
1629807858250,2031
1629807858254,2030
1629807858258,2030
1629807858262,2030
1629807858266,2031
1629807858270,2032
1629807858274,2032
1629807858278,2033
1629807858282,2033
1629807858286,2033
1629807858290,2033
1629807858294,2034
1629807858298,2035
1629807858302,2036
1629807858306,2037
1629807858310,2038
1629807858314,2040
1629807858318,2040
1629807858322,2041
1629807858326,2041
1629807858330,2041
1629807858334,2041
1629807858338,2042
1629807858342,2042
1629807858346,2042
1629807858350,2043
1629807858354,2043
1629807858358,2043
1629807858362,2043
1629807858366,2042
1629807858370,2041
1629807858374,2040
1629807858378,2040
1629807858382,2040
1629807858386,2041
1629807858390,2041
1629807858394,2041
1629807858398,2041
1629807858402,2040
1629807858406,2039
1629807858410,2039
1629807858414,2038
1629807858418,2038
1629807858422,2038
1629807858426,2038
1629807858430,2038
1629807858434,2039
1629807858438,2038
1629807858442,2038
1629807858446,2037
1629807858450,2037
1629807858454,2037
1629807858458,2037
1629807858462,2038
1629807858466,2038
1629807858470,2038
1629807858474,2039
1629807858478,2039
1629807858482,2039
1629807858486,2038
1629807858490,2038
1629807858494,2038
1629807858498,2038
1629807858502,2038
1629807858506,2039
1629807858510,2039
1629807858514,2040
1629807858518,2039
1629807858522,2039
1629807858526,2039
1629807858530,2039
1629807858534,2039
1629807858538,2040
1629807858542,2041
1629807858546,2041
1629807858550,2041
1629807858554,2041
1629807858558,2041
1629807858562,2041
1629807858566,2041
1629807858570,2041
1629807858574,2041
1629807858578,2041
1629807858582,2042
1629807858586,2042
1629807858590,2042
1629807858594,2042
1629807858598,2042
1629807858602,2042
1629807858606,2041
1629807858610,2041
1629807858614,2041
1629807858618,2042
1629807858622,2042
1629807858626,2043
1629807858630,2043
1629807858634,2043
1629807858638,2043
1629807858642,2043
1629807858646,2043
1629807858650,2044
1629807858654,2044
1629807858658,2044
1629807858662,2044
1629807858666,2044
1629807858670,2043
1629807858674,2043
1629807858678,2043
1629807858682,2044
1629807858686,2044
1629807858690,2044
1629807858694,2044
1629807858698,2045
1629807858702,2046
1629807858706,2046
1629807858710,2046
1629807858714,2046
1629807858718,2046
1629807858722,2046
1629807858726,2045
1629807858730,2045
1629807858734,2044
1629807858738,2044
1629807858742,2045
1629807858746,2046
1629807858750,2047
1629807858754,2047
1629807858758,2047
1629807858762,2046
1629807858766,2045
1629807858770,2045
1629807858774,2045
1629807858778,2044
1629807858782,2044
1629807858786,2045
1629807858790,2045
1629807858794,2045
1629807858798,2045
1629807858802,2046
1629807858806,2048
1629807858810,2049
1629807858814,2052
1629807858818,2054
1629807858822,2057
1629807858826,2058
1629807858830,2059
1629807858834,2058
1629807858838,2057
1629807858842,2055
1629807858846,2053
1629807858850,2051
1629807858854,2049
1629807858858,2048
1629807858862,2048
1629807858866,2048
1629807858870,2048
1629807858874,2048
1629807858878,2047
1629807858882,2047
1629807858886,2047
1629807858890,2046
1629807858894,2047
1629807858898,2048
1629807858902,2049
1629807858906,2048
1629807858910,2042
1629807858914,2031
1629807858918,2021
1629807858922,2018
1629807858926,2034
1629807858930,2083
1629807858934,2162
1629807858938,2246
1629807858942,2303
1629807858946,2304
1629807858950,2246
1629807858954,2154
1629807858958,2069
1629807858962,2023
1629807858966,2019
1629807858970,2039
1629807858974,2060
1629807858978,2067
1629807858982,2058
1629807858986,2048
1629807858990,2042
1629807858994,2041
1629807858998,2041
1629807859002,2042
1629807859006,2042
1629807859010,2041
1629807859014,2042
1629807859018,2042
1629807859022,2044
1629807859026,2045
1629807859030,2047
1629807859034,2047
1629807859038,2047
1629807859042,2047
1629807859046,2047
1629807859050,2047
1629807859054,2047
1629807859058,2048
1629807859062,2049
1629807859066,2051
1629807859070,2052
1629807859074,2053
1629807859078,2054
1629807859082,2054
1629807859086,2054
1629807859090,2055
1629807859094,2056
1629807859098,2058
1629807859102,2060
1629807859106,2063
1629807859110,2064
1629807859114,2066
1629807859118,2066
1629807859122,2067
1629807859126,2067
1629807859130,2069
1629807859134,2071
1629807859138,2073
1629807859142,2076
1629807859146,2078
1629807859150,2081
1629807859154,2084
1629807859158,2087
1629807859162,2090
1629807859166,2094
1629807859170,2097
1629807859174,2101
1629807859178,2103
1629807859182,2105
1629807859186,2106
1629807859190,2107
1629807859194,2109
1629807859198,2109
1629807859202,2110
1629807859206,2110
1629807859210,2108
1629807859214,2105
1629807859218,2100
1629807859222,2095
1629807859226,2089
1629807859230,2083
1629807859234,2076
1629807859238,2070
1629807859242,2063
1629807859246,2057
1629807859250,2052
1629807859254,2048
1629807859258,2046
1629807859262,2044
1629807859266,2043
1629807859270,2041
1629807859274,2039
1629807859278,2038
1629807859282,2037
1629807859286,2036
1629807859290,2035
1629807859294,2035
1629807859298,2035
1629807859302,2036
1629807859306,2036
1629807859310,2036
1629807859314,2037
1629807859318,2037
1629807859322,2037
1629807859326,2038
1629807859330,2038
1629807859334,2038
1629807859338,2039
1629807859342,2039
1629807859346,2040
1629807859350,2040
1629807859354,2041
1629807859358,2042
1629807859362,2042
1629807859366,2042
1629807859370,2043
1629807859374,2043
1629807859378,2043
1629807859382,2043
1629807859386,2044
1629807859390,2044
1629807859394,2044
1629807859398,2043
1629807859402,2042
1629807859406,2041
1629807859410,2042
1629807859414,2042
1629807859418,2043
1629807859422,2044
1629807859426,2043
1629807859430,2042
1629807859434,2041
1629807859438,2041
1629807859442,2041
1629807859446,2041
1629807859450,2041
1629807859454,2040
1629807859458,2040
1629807859462,2039
1629807859466,2039
1629807859470,2039
1629807859474,2039
1629807859478,2039
1629807859482,2039
1629807859486,2039
1629807859490,2039
1629807859494,2039
1629807859498,2039
1629807859502,2040
1629807859506,2041
1629807859510,2041
1629807859514,2041
1629807859518,2041
1629807859522,2040
1629807859526,2039
1629807859530,2039
1629807859534,2039
1629807859538,2040
1629807859542,2040
1629807859546,2041
1629807859550,2041
1629807859554,2041
1629807859558,2040
1629807859562,2040
1629807859566,2040
1629807859570,2040
1629807859574,2040
1629807859578,2040
1629807859582,2041
1629807859586,2042
1629807859590,2042
1629807859594,2042
1629807859598,2042
1629807859602,2042
1629807859606,2042
1629807859610,2042
1629807859614,2042
1629807859618,2043
1629807859622,2043
1629807859626,2043
1629807859630,2043
1629807859634,2042
1629807859638,2042
1629807859642,2041
1629807859646,2041
1629807859650,2041
1629807859654,2042
1629807859658,2043
1629807859662,2043
1629807859666,2044
1629807859670,2044
1629807859674,2044
1629807859678,2044
1629807859682,2044
1629807859686,2044
1629807859690,2043
1629807859694,2043
1629807859698,2043
1629807859702,2044
1629807859706,2044
1629807859710,2045
1629807859714,2045
1629807859718,2046
1629807859722,2045
1629807859726,2045
1629807859730,2044
1629807859734,2044
1629807859738,2044
1629807859742,2045
1629807859746,2046
1629807859750,2046
1629807859754,2047
1629807859758,2047
1629807859762,2047
1629807859766,2046
1629807859770,2046
1629807859774,2045
1629807859778,2045
1629807859782,2045
1629807859786,2046
1629807859790,2046
1629807859794,2047
1629807859798,2047
1629807859802,2046
1629807859806,2046
1629807859810,2046
1629807859814,2045
1629807859818,2046
1629807859822,2046
1629807859826,2047
1629807859830,2047
1629807859834,2047
1629807859838,2048
1629807859842,2048
1629807859846,2051
1629807859850,2053
1629807859854,2056
1629807859858,2057
1629807859862,2056
1629807859866,2054
1629807859870,2052
1629807859874,2049
1629807859878,2048
1629807859882,2048
1629807859886,2047
1629807859890,2047
1629807859894,2047
1629807859898,2047
1629807859902,2047
1629807859906,2047
1629807859910,2047
1629807859914,2047
1629807859918,2048
1629807859922,2048
1629807859926,2048
1629807859930,2046
1629807859934,2038
1629807859938,2028
1629807859942,2021
1629807859946,2023
1629807859950,2049
1629807859954,2109
1629807859958,2188
1629807859962,2260
1629807859966,2291
1629807859970,2264
1629807859974,2187
1629807859978,2094
1629807859982,2026
1629807859986,2002
1629807859990,2016
1629807859994,2045
1629807859998,2066
1629807860002,2069
1629807860006,2058
1629807860010,2048
1629807860014,2044
1629807860018,2042
1629807860022,2042
1629807860026,2044
1629807860030,2044
1629807860034,2044
1629807860038,2045
1629807860042,2045
1629807860046,2046
1629807860050,2047
1629807860054,2048
1629807860058,2048
1629807860062,2049
1629807860066,2050
1629807860070,2050
1629807860074,2051
1629807860078,2051
1629807860082,2051
1629807860086,2051
1629807860090,2051
1629807860094,2052
1629807860098,2053
1629807860102,2055
1629807860106,2056
1629807860110,2058
1629807860114,2059
1629807860118,2059
1629807860122,2060
1629807860126,2061
1629807860130,2063
1629807860134,2064
1629807860138,2066
1629807860142,2067
1629807860146,2069
1629807860150,2070
1629807860154,2072
1629807860158,2075
1629807860162,2078
1629807860166,2080
1629807860170,2083
1629807860174,2086
1629807860178,2089
1629807860182,2092
1629807860186,2096
1629807860190,2100
1629807860194,2103
1629807860198,2106
1629807860202,2109
1629807860206,2110
1629807860210,2111
1629807860214,2112
1629807860218,2113
1629807860222,2115
1629807860226,2116
1629807860230,2115
1629807860234,2112
1629807860238,2108
1629807860242,2103
1629807860246,2097
1629807860250,2091
1629807860254,2084
1629807860258,2076
1629807860262,2069
1629807860266,2063
1629807860270,2057
1629807860274,2052
1629807860278,2049
1629807860282,2047
1629807860286,2044
1629807860290,2041
1629807860294,2039
1629807860298,2037
1629807860302,2036
1629807860306,2035
1629807860310,2035
1629807860314,2035
1629807860318,2036
1629807860322,2036
1629807860326,2035
1629807860330,2035
1629807860334,2035
1629807860338,2035
1629807860342,2035
1629807860346,2036
1629807860350,2038
1629807860354,2039
1629807860358,2040
1629807860362,2040
1629807860366,2040
1629807860370,2040
1629807860374,2040
1629807860378,2041
1629807860382,2043
1629807860386,2044
1629807860390,2046
1629807860394,2047
1629807860398,2047
1629807860402,2047
1629807860406,2047
1629807860410,2046
1629807860414,2045
1629807860418,2044
1629807860422,2045
1629807860426,2046
1629807860430,2047
1629807860434,2047
1629807860438,2046
1629807860442,2044
1629807860446,2043
1629807860450,2043
1629807860454,2043
1629807860458,2044
1629807860462,2044
1629807860466,2044
1629807860470,2044
1629807860474,2044
1629807860478,2043
1629807860482,2042
1629807860486,2041
1629807860490,2041
1629807860494,2041
1629807860498,2041
1629807860502,2042
1629807860506,2042
1629807860510,2042
1629807860514,2042
1629807860518,2042
1629807860522,2042
1629807860526,2042
1629807860530,2042
1629807860534,2042
1629807860538,2042
1629807860542,2042
1629807860546,2042
1629807860550,2041
1629807860554,2041
1629807860558,2041
1629807860562,2041
1629807860566,2042
1629807860570,2042
1629807860574,2043
1629807860578,2043
1629807860582,2043
1629807860586,2043
1629807860590,2043
1629807860594,2043
1629807860598,2043
1629807860602,2042
1629807860606,2042
1629807860610,2042
1629807860614,2042
1629807860618,2042
1629807860622,2043
1629807860626,2043
1629807860630,2043
1629807860634,2043
1629807860638,2044
1629807860642,2045
1629807860646,2045
1629807860650,2046
1629807860654,2046
1629807860658,2045
1629807860662,2044
1629807860666,2044
1629807860670,2044
1629807860674,2044
1629807860678,2044
1629807860682,2044
1629807860686,2044
1629807860690,2044
1629807860694,2044
1629807860698,2045
1629807860702,2046
1629807860706,2047
1629807860710,2047
1629807860714,2047
1629807860718,2047
1629807860722,2046
1629807860726,2044
1629807860730,2044
1629807860734,2044
1629807860738,2045
1629807860742,2046
1629807860746,2047
1629807860750,2048
1629807860754,2048
1629807860758,2047
1629807860762,2046
1629807860766,2046
1629807860770,2045
1629807860774,2046
1629807860778,2046
1629807860782,2047
1629807860786,2048
1629807860790,2048
1629807860794,2048
1629807860798,2048
1629807860802,2048
1629807860806,2048
1629807860810,2048
1629807860814,2047
1629807860818,2045
1629807860822,2045
1629807860826,2046
1629807860830,2048
1629807860834,2051
1629807860838,2055
1629807860842,2057
1629807860846,2057
1629807860850,2056
1629807860854,2053
1629807860858,2051
1629807860862,2050
1629807860866,2050
1629807860870,2049
1629807860874,2049
1629807860878,2048
1629807860882,2048
1629807860886,2047
1629807860890,2047
1629807860894,2048
1629807860898,2048
1629807860902,2048
1629807860906,2049
1629807860910,2051
1629807860914,2050
1629807860918,2046
1629807860922,2035
1629807860926,2024
1629807860930,2019
1629807860934,2032
1629807860938,2075
1629807860942,2146
1629807860946,2220
1629807860950,2266
1629807860954,2258
1629807860958,2195
1629807860962,2102
1629807860966,2020
1629807860970,1979
1629807860974,1984
1629807860978,2017
1629807860982,2052
1629807860986,2072
1629807860990,2071
1629807860994,2062
1629807860998,2055
1629807861002,2050
1629807861006,2048
1629807861010,2048
1629807861014,2048
1629807861018,2049
1629807861022,2050
1629807861026,2051
1629807861030,2052
1629807861034,2053
1629807861038,2053
1629807861042,2053
1629807861046,2053
1629807861050,2054
1629807861054,2054
1629807861058,2055
1629807861062,2055
1629807861066,2056
1629807861070,2057
1629807861074,2059
1629807861078,2060
1629807861082,2061
1629807861086,2061
1629807861090,2061
1629807861094,2061
1629807861098,2062
1629807861102,2064
1629807861106,2066
1629807861110,2068
1629807861114,2069
1629807861118,2070
1629807861122,2070
1629807861126,2071
1629807861130,2072
1629807861134,2074
1629807861138,2077
1629807861142,2080
1629807861146,2083
1629807861150,2086
1629807861154,2089
1629807861158,2091
1629807861162,2094
1629807861166,2096
1629807861170,2098
1629807861174,2101
1629807861178,2105
1629807861182,2109
1629807861186,2113
1629807861190,2115
1629807861194,2117
1629807861198,2117
1629807861202,2118
1629807861206,2117
1629807861210,2117
1629807861214,2117
1629807861218,2115
1629807861222,2112
1629807861226,2108
1629807861230,2102
1629807861234,2096
1629807861238,2090
1629807861242,2083
1629807861246,2076
1629807861250,2069
1629807861254,2062
1629807861258,2057
1629807861262,2053
1629807861266,2049
1629807861270,2048
1629807861274,2045
1629807861278,2043
1629807861282,2040
1629807861286,2038
1629807861290,2038
1629807861294,2038
1629807861298,2038
1629807861302,2039
1629807861306,2040
1629807861310,2040
1629807861314,2040
1629807861318,2040
1629807861322,2040
1629807861326,2040
1629807861330,2040
1629807861334,2040
1629807861338,2041
1629807861342,2042
1629807861346,2043
1629807861350,2044
1629807861354,2045
1629807861358,2045
1629807861362,2045
1629807861366,2046
1629807861370,2047
1629807861374,2047
1629807861378,2048
1629807861382,2048
1629807861386,2048
1629807861390,2048
1629807861394,2048
1629807861398,2048
1629807861402,2046
1629807861406,2044
1629807861410,2043
1629807861414,2042
1629807861418,2043
1629807861422,2044
1629807861426,2045
1629807861430,2045
1629807861434,2045
1629807861438,2044
1629807861442,2043
1629807861446,2042
1629807861450,2041
1629807861454,2041
1629807861458,2041
1629807861462,2041
1629807861466,2041
1629807861470,2042
1629807861474,2042
1629807861478,2042
1629807861482,2042
1629807861486,2041
1629807861490,2040
1629807861494,2039
1629807861498,2039
1629807861502,2039
1629807861506,2040
1629807861510,2041
1629807861514,2042
1629807861518,2042
1629807861522,2041
1629807861526,2041
1629807861530,2040
1629807861534,2040
1629807861538,2040
1629807861542,2040
1629807861546,2041
1629807861550,2042
1629807861554,2043
1629807861558,2043
1629807861562,2042
1629807861566,2041
1629807861570,2041
1629807861574,2040
1629807861578,2041
1629807861582,2042
1629807861586,2042
1629807861590,2043
1629807861594,2043
1629807861598,2042
1629807861602,2043
1629807861606,2043
1629807861610,2043
1629807861614,2044
1629807861618,2044
1629807861622,2044
1629807861626,2045
1629807861630,2045
1629807861634,2045
1629807861638,2044
1629807861642,2043
1629807861646,2042
1629807861650,2042
1629807861654,2042
1629807861658,2043
1629807861662,2044
1629807861666,2045
1629807861670,2046
1629807861674,2046
1629807861678,2045
1629807861682,2044
1629807861686,2044
1629807861690,2043
1629807861694,2044
1629807861698,2044
1629807861702,2045
1629807861706,2046
1629807861710,2046
1629807861714,2045
1629807861718,2045
1629807861722,2045
1629807861726,2045
1629807861730,2045
1629807861734,2046
1629807861738,2046
1629807861742,2047
1629807861746,2047
1629807861750,2047
1629807861754,2047
1629807861758,2047
1629807861762,2047
1629807861766,2047
1629807861770,2046
1629807861774,2045
1629807861778,2043
1629807861782,2043
1629807861786,2045
1629807861790,2048
1629807861794,2053
1629807861798,2057
1629807861802,2059
1629807861806,2057
1629807861810,2054
1629807861814,2050
1629807861818,2048
1629807861822,2048
1629807861826,2048
1629807861830,2048
1629807861834,2048
1629807861838,2048
1629807861842,2048
1629807861846,2047
1629807861850,2046
1629807861854,2045
1629807861858,2046
1629807861862,2048
1629807861866,2050
1629807861870,2052
1629807861874,2049
1629807861878,2041
1629807861882,2028
1629807861886,2019
1629807861890,2022
1629807861894,2048
1629807861898,2106
1629807861902,2184
1629807861906,2253
1629807861910,2281
1629807861914,2251
1629807861918,2172
1629807861922,2078
1629807861926,2010
1629807861930,1987
1629807861934,2005
1629807861938,2039
1629807861942,2065
1629807861946,2071
1629807861950,2062
1629807861954,2052
1629807861958,2047
1629807861962,2045
1629807861966,2044
1629807861970,2046
1629807861974,2046
1629807861978,2046
1629807861982,2046
1629807861986,2047
1629807861990,2048
1629807861994,2050
1629807861998,2051
1629807862002,2052
1629807862006,2051
1629807862010,2050
1629807862014,2049
1629807862018,2049
1629807862022,2050
1629807862026,2051
1629807862030,2053
1629807862034,2055
1629807862038,2055
1629807862042,2055
1629807862046,2055
1629807862050,2056
1629807862054,2057
1629807862058,2059
1629807862062,2060
1629807862066,2062
1629807862070,2063
1629807862074,2064
1629807862078,2065
1629807862082,2066
1629807862086,2066
1629807862090,2068
1629807862094,2070
1629807862098,2072
1629807862102,2075
1629807862106,2078
1629807862110,2081
1629807862114,2083
1629807862118,2086
1629807862122,2088
1629807862126,2092
1629807862130,2095
1629807862134,2099
1629807862138,2102
1629807862142,2105
1629807862146,2107
1629807862150,2109
1629807862154,2110
1629807862158,2111
1629807862162,2112
1629807862166,2113
1629807862170,2113
1629807862174,2112
1629807862178,2109
1629807862182,2106
1629807862186,2101
1629807862190,2095
1629807862194,2089
1629807862198,2082
1629807862202,2075
1629807862206,2068
1629807862210,2062
1629807862214,2056
1629807862218,2052
1629807862222,2049
1629807862226,2047
1629807862230,2045
1629807862234,2043
1629807862238,2040
1629807862242,2038
1629807862246,2036
1629807862250,2034
1629807862254,2034
1629807862258,2034
1629807862262,2035
1629807862266,2035
1629807862270,2036
1629807862274,2036
1629807862278,2037
1629807862282,2037
1629807862286,2037
1629807862290,2037
1629807862294,2037
1629807862298,2038
1629807862302,2040
1629807862306,2041
1629807862310,2042
1629807862314,2043
1629807862318,2042
1629807862322,2042
1629807862326,2042
1629807862330,2042
1629807862334,2043
1629807862338,2044
1629807862342,2045
1629807862346,2046
1629807862350,2046
1629807862354,2046
1629807862358,2045
1629807862362,2044
1629807862366,2044
1629807862370,2043
1629807862374,2043
1629807862378,2042
1629807862382,2042
1629807862386,2043
1629807862390,2043
1629807862394,2043
1629807862398,2042
1629807862402,2042
1629807862406,2041
1629807862410,2040
1629807862414,2039
1629807862418,2039
1629807862422,2039
1629807862426,2039
1629807862430,2040
1629807862434,2041
1629807862438,2041
1629807862442,2040
1629807862446,2039
1629807862450,2038
1629807862454,2037
1629807862458,2038
1629807862462,2039
1629807862466,2040
1629807862470,2041
1629807862474,2041
1629807862478,2040
1629807862482,2039
1629807862486,2039
1629807862490,2038
1629807862494,2039
1629807862498,2039
1629807862502,2040
1629807862506,2040
1629807862510,2041
1629807862514,2041
1629807862518,2041
1629807862522,2040
1629807862526,2040
1629807862530,2040
1629807862534,2040
1629807862538,2041
1629807862542,2041
1629807862546,2042
1629807862550,2042
1629807862554,2042
1629807862558,2042
1629807862562,2042
1629807862566,2041
1629807862570,2041
1629807862574,2041
1629807862578,2041
1629807862582,2042
1629807862586,2043
1629807862590,2044
1629807862594,2044
1629807862598,2044
1629807862602,2044
1629807862606,2043
1629807862610,2043
1629807862614,2042
1629807862618,2042
1629807862622,2043
1629807862626,2043
1629807862630,2044
1629807862634,2044
1629807862638,2045
1629807862642,2045
1629807862646,2045
1629807862650,2045
1629807862654,2044
1629807862658,2044
1629807862662,2045
1629807862666,2046
1629807862670,2046
1629807862674,2047
1629807862678,2046
1629807862682,2045
1629807862686,2045
1629807862690,2045
1629807862694,2045
1629807862698,2045
1629807862702,2045
1629807862706,2046
1629807862710,2047
1629807862714,2048
1629807862718,2048
1629807862722,2047
1629807862726,2046
1629807862730,2045
1629807862734,2045
1629807862738,2046
1629807862742,2046
1629807862746,2046
1629807862750,2046
1629807862754,2046
1629807862758,2048
1629807862762,2050
1629807862766,2053
1629807862770,2056
1629807862774,2057
1629807862778,2056
1629807862782,2055
1629807862786,2053
1629807862790,2051
1629807862794,2050
1629807862798,2048
1629807862802,2048
1629807862806,2047
1629807862810,2046
1629807862814,2046
1629807862818,2046
1629807862822,2046
1629807862826,2047
1629807862830,2048
1629807862834,2049
1629807862838,2050
1629807862842,2051
1629807862846,2048
1629807862850,2039
1629807862854,2028
1629807862858,2021
1629807862862,2025
1629807862866,2052
1629807862870,2113
1629807862874,2193
1629807862878,2265
1629807862882,2296
1629807862886,2267
1629807862890,2188
1629807862894,2094
1629807862898,2026
1629807862902,2002
1629807862906,2017
1629807862910,2048
1629807862914,2070
1629807862918,2072
1629807862922,2060
1629807862926,2049
1629807862930,2044
1629807862934,2043
1629807862938,2043
1629807862942,2045
1629807862946,2046
1629807862950,2047
1629807862954,2048
1629807862958,2048
1629807862962,2048
1629807862966,2048
1629807862970,2048
1629807862974,2049
1629807862978,2049
1629807862982,2050
1629807862986,2050
1629807862990,2051
1629807862994,2051
1629807862998,2052
1629807863002,2053
1629807863006,2053
1629807863010,2054
1629807863014,2054
1629807863018,2055
1629807863022,2057
1629807863026,2058
1629807863030,2059
1629807863034,2060
1629807863038,2061
1629807863042,2062
1629807863046,2063
1629807863050,2065
1629807863054,2066
1629807863058,2068
1629807863062,2069
1629807863066,2070
1629807863070,2072
1629807863074,2075
1629807863078,2077
1629807863082,2080
1629807863086,2082
1629807863090,2085
1629807863094,2087
1629807863098,2090
1629807863102,2094
1629807863106,2098
1629807863110,2101
1629807863114,2104
1629807863118,2106
1629807863122,2107
1629807863126,2108
1629807863130,2109
1629807863134,2111
1629807863138,2112
1629807863142,2113
1629807863146,2112
1629807863150,2111
1629807863154,2107
1629807863158,2102
1629807863162,2096
1629807863166,2090
1629807863170,2083
1629807863174,2076
1629807863178,2070
1629807863182,2064
1629807863186,2059
1629807863190,2054
1629807863194,2050
1629807863198,2047
1629807863202,2045
1629807863206,2042
1629807863210,2040
1629807863214,2039
1629807863218,2038
1629807863222,2038
1629807863226,2037
1629807863230,2037
1629807863234,2036
1629807863238,2036
1629807863242,2037
1629807863246,2037
1629807863250,2038
1629807863254,2038
1629807863258,2038
1629807863262,2038
1629807863266,2038
1629807863270,2039
1629807863274,2040
1629807863278,2042
1629807863282,2043
1629807863286,2043
1629807863290,2043
1629807863294,2042
1629807863298,2042
1629807863302,2043
1629807863306,2044
1629807863310,2045
1629807863314,2046
1629807863318,2047
1629807863322,2047
1629807863326,2046
1629807863330,2045
1629807863334,2045
1629807863338,2044
1629807863342,2044
1629807863346,2044
1629807863350,2044
1629807863354,2043
1629807863358,2043
1629807863362,2043
1629807863366,2043
1629807863370,2043
1629807863374,2043
1629807863378,2043
1629807863382,2043
1629807863386,2043
1629807863390,2042
1629807863394,2042
1629807863398,2041
1629807863402,2041
1629807863406,2041
1629807863410,2041
1629807863414,2041
1629807863418,2040
1629807863422,2040
1629807863426,2040
1629807863430,2040
1629807863434,2040
1629807863438,2040
1629807863442,2040
1629807863446,2040
1629807863450,2039
1629807863454,2039
1629807863458,2039
1629807863462,2040
1629807863466,2040
1629807863470,2042
1629807863474,2043
1629807863478,2043
1629807863482,2043
1629807863486,2041
1629807863490,2040
1629807863494,2040
1629807863498,2040
1629807863502,2041
1629807863506,2041
1629807863510,2042
1629807863514,2042
1629807863518,2042
1629807863522,2042
1629807863526,2043
1629807863530,2043
1629807863534,2043
1629807863538,2042
1629807863542,2042
1629807863546,2043
1629807863550,2043
1629807863554,2044
1629807863558,2043
1629807863562,2043
1629807863566,2043
1629807863570,2043
1629807863574,2043
1629807863578,2044
1629807863582,2044
1629807863586,2044
1629807863590,2044
1629807863594,2044
1629807863598,2045
1629807863602,2044
1629807863606,2044
1629807863610,2043
1629807863614,2043
1629807863618,2043
1629807863622,2043
1629807863626,2044
1629807863630,2044
1629807863634,2045
1629807863638,2046
1629807863642,2047
1629807863646,2046
1629807863650,2045
1629807863654,2044
1629807863658,2044
1629807863662,2045
1629807863666,2046
1629807863670,2047
1629807863674,2047
1629807863678,2047
1629807863682,2046
1629807863686,2046
1629807863690,2046
1629807863694,2046
1629807863698,2046
1629807863702,2047
1629807863706,2047
1629807863710,2047
1629807863714,2047
1629807863718,2047
1629807863722,2046
1629807863726,2046
1629807863730,2046
1629807863734,2046
1629807863738,2045
1629807863742,2045
1629807863746,2044
1629807863750,2045
1629807863754,2048
1629807863758,2051
1629807863762,2055
1629807863766,2058
1629807863770,2058
1629807863774,2056
1629807863778,2053
1629807863782,2050
1629807863786,2048
1629807863790,2047
1629807863794,2047
1629807863798,2047
1629807863802,2047
1629807863806,2047
1629807863810,2046
1629807863814,2045
1629807863818,2045
1629807863822,2045
1629807863826,2047
1629807863830,2049
1629807863834,2051
1629807863838,2049
1629807863842,2043
1629807863846,2032
1629807863850,2023
1629807863854,2020
1629807863858,2036
1629807863862,2084
1629807863866,2158
1629807863870,2236
1629807863874,2285
1629807863878,2279
1629807863882,2216
1629807863886,2122
1629807863890,2041
1629807863894,2000
1629807863898,2004
1629807863902,2033
1629807863906,2061
1629807863910,2072
1629807863914,2065
1629807863918,2052
1629807863922,2046
1629807863926,2043
1629807863930,2043
1629807863934,2044
1629807863938,2045
1629807863942,2046
1629807863946,2046
1629807863950,2046
1629807863954,2047
1629807863958,2047
1629807863962,2048
1629807863966,2048
1629807863970,2048
1629807863974,2048
1629807863978,2049
1629807863982,2050
1629807863986,2051
1629807863990,2052
1629807863994,2053
1629807863998,2053
1629807864002,2053
1629807864006,2053
1629807864010,2054
1629807864014,2055
1629807864018,2056
1629807864022,2058
1629807864026,2059
1629807864030,2061
1629807864034,2062
1629807864038,2063
1629807864042,2064
1629807864046,2065
1629807864050,2066
1629807864054,2068
1629807864058,2070
1629807864062,2072
1629807864066,2074
1629807864070,2076
1629807864074,2078
1629807864078,2080
1629807864082,2083
1629807864086,2086
1629807864090,2090
1629807864094,2093
1629807864098,2096
1629807864102,2098
1629807864106,2101
1629807864110,2103
1629807864114,2106
1629807864118,2108
1629807864122,2110
1629807864126,2111
1629807864130,2111
1629807864134,2111
1629807864138,2110
1629807864142,2108
1629807864146,2106
1629807864150,2102
1629807864154,2098
1629807864158,2093
1629807864162,2087
1629807864166,2080
1629807864170,2073
1629807864174,2067
1629807864178,2061
1629807864182,2055
1629807864186,2050
1629807864190,2047
1629807864194,2044
1629807864198,2041
1629807864202,2039
1629807864206,2037
1629807864210,2036
1629807864214,2036
1629807864218,2035
1629807864222,2036
1629807864226,2036
1629807864230,2036
1629807864234,2035
1629807864238,2035
1629807864242,2034
1629807864246,2034
1629807864250,2034
1629807864254,2035
1629807864258,2035
1629807864262,2036
1629807864266,2037
1629807864270,2039
1629807864274,2040
1629807864278,2041
1629807864282,2041
1629807864286,2040
1629807864290,2040
1629807864294,2039
1629807864298,2039
1629807864302,2040
1629807864306,2041
1629807864310,2042
1629807864314,2044
1629807864318,2045
1629807864322,2045
1629807864326,2044
1629807864330,2042
1629807864334,2041
1629807864338,2040
1629807864342,2039
1629807864346,2039
1629807864350,2039
1629807864354,2039
1629807864358,2038
1629807864362,2037
1629807864366,2036
1629807864370,2036
1629807864374,2037
1629807864378,2038
1629807864382,2038
1629807864386,2038
1629807864390,2038
1629807864394,2036
1629807864398,2035
1629807864402,2035
1629807864406,2035
1629807864410,2035
1629807864414,2036
1629807864418,2036
1629807864422,2036
1629807864426,2036
1629807864430,2037
1629807864434,2037
1629807864438,2037
1629807864442,2036
1629807864446,2035
1629807864450,2035
1629807864454,2035
1629807864458,2036
1629807864462,2037
1629807864466,2037
1629807864470,2038
1629807864474,2038
1629807864478,2038
1629807864482,2038
1629807864486,2037
1629807864490,2037
1629807864494,2037
1629807864498,2037
1629807864502,2038
1629807864506,2038
1629807864510,2038
1629807864514,2038
1629807864518,2038
1629807864522,2038
1629807864526,2038
1629807864530,2039
1629807864534,2039
1629807864538,2039
1629807864542,2040
1629807864546,2040
1629807864550,2041
1629807864554,2041
1629807864558,2041
1629807864562,2040
1629807864566,2040
1629807864570,2040
1629807864574,2040
1629807864578,2041
1629807864582,2042
1629807864586,2042
1629807864590,2043
1629807864594,2043
1629807864598,2043
1629807864602,2043
1629807864606,2042
1629807864610,2041
1629807864614,2041
1629807864618,2040
1629807864622,2041
1629807864626,2041
1629807864630,2042
1629807864634,2043
1629807864638,2044
1629807864642,2044
1629807864646,2043
1629807864650,2043
1629807864654,2043
1629807864658,2043
1629807864662,2044
1629807864666,2044
1629807864670,2044
1629807864674,2045
1629807864678,2045
1629807864682,2046
1629807864686,2046
1629807864690,2046
1629807864694,2045
1629807864698,2045
1629807864702,2045
1629807864706,2045
1629807864710,2046
1629807864714,2046
1629807864718,2045
1629807864722,2043
1629807864726,2043
1629807864730,2044
1629807864734,2048
1629807864738,2052
1629807864742,2056
1629807864746,2058
1629807864750,2056
1629807864754,2053
1629807864758,2049
1629807864762,2047
1629807864766,2046
1629807864770,2045
1629807864774,2047
1629807864778,2047
1629807864782,2048
1629807864786,2048
1629807864790,2048
1629807864794,2048
1629807864798,2048
1629807864802,2048
1629807864806,2048
1629807864810,2049
1629807864814,2049
1629807864818,2045
1629807864822,2036
1629807864826,2026
1629807864830,2021
1629807864834,2033
1629807864838,2074
1629807864842,2145
1629807864846,2222
1629807864850,2273
1629807864854,2272
1629807864858,2214
1629807864862,2123
1629807864866,2040
1629807864870,1995
1629807864874,1995
1629807864878,2024
1629807864882,2055
1629807864886,2071
1629807864890,2068
1629807864894,2057
1629807864898,2049
1629807864902,2047
1629807864906,2046
1629807864910,2047
1629807864914,2048
1629807864918,2048
1629807864922,2048
1629807864926,2048
1629807864930,2049
1629807864934,2050
1629807864938,2050
1629807864942,2051
1629807864946,2052
1629807864950,2052
1629807864954,2053
1629807864958,2054
1629807864962,2054
1629807864966,2054
1629807864970,2054
1629807864974,2055
1629807864978,2056
1629807864982,2058
1629807864986,2059
1629807864990,2060
1629807864994,2061
1629807864998,2062
1629807865002,2062
1629807865006,2063
1629807865010,2064
1629807865014,2065
1629807865018,2067
1629807865022,2068
1629807865026,2070
1629807865030,2071
1629807865034,2073
1629807865038,2075
1629807865042,2076
1629807865046,2078
1629807865050,2079
1629807865054,2081
1629807865058,2084
1629807865062,2088
1629807865066,2092
1629807865070,2096
1629807865074,2100
1629807865078,2102
1629807865082,2104
1629807865086,2105
1629807865090,2107
1629807865094,2109
1629807865098,2111
1629807865102,2114
1629807865106,2115
1629807865110,2115
1629807865114,2114
1629807865118,2112
1629807865122,2108
1629807865126,2104
1629807865130,2099
1629807865134,2093
1629807865138,2087
1629807865142,2080
1629807865146,2075
1629807865150,2069
1629807865154,2065
1629807865158,2060
1629807865162,2055
1629807865166,2050
1629807865170,2047
1629807865174,2044
1629807865178,2042
1629807865182,2040
1629807865186,2039
1629807865190,2039
1629807865194,2039
1629807865198,2038
1629807865202,2039
1629807865206,2038
1629807865210,2038
1629807865214,2038
1629807865218,2038
1629807865222,2039
1629807865226,2039
1629807865230,2040
1629807865234,2041
1629807865238,2041
1629807865242,2041
1629807865246,2041
1629807865250,2042
1629807865254,2043
1629807865258,2044
1629807865262,2045
1629807865266,2045
1629807865270,2046
1629807865274,2046
1629807865278,2046
1629807865282,2045
1629807865286,2045
1629807865290,2045
1629807865294,2046
1629807865298,2047
1629807865302,2048
1629807865306,2048
1629807865310,2048
1629807865314,2047
1629807865318,2046
1629807865322,2045
1629807865326,2044
1629807865330,2044
1629807865334,2044
1629807865338,2043
1629807865342,2043
1629807865346,2044
1629807865350,2044
1629807865354,2044
1629807865358,2043
1629807865362,2043
1629807865366,2042
1629807865370,2041
1629807865374,2040
1629807865378,2040
1629807865382,2040
1629807865386,2040
1629807865390,2041
1629807865394,2041
1629807865398,2041
1629807865402,2041
1629807865406,2040
1629807865410,2040
1629807865414,2040
1629807865418,2041
1629807865422,2042
1629807865426,2042
1629807865430,2042
1629807865434,2041
1629807865438,2040
1629807865442,2040
1629807865446,2039
1629807865450,2039
1629807865454,2039
1629807865458,2040
1629807865462,2041
1629807865466,2042
1629807865470,2043
1629807865474,2043
1629807865478,2042
1629807865482,2041
1629807865486,2041
1629807865490,2040
1629807865494,2040
1629807865498,2040
1629807865502,2041
1629807865506,2042
1629807865510,2042
1629807865514,2042
1629807865518,2042
1629807865522,2042
1629807865526,2043
1629807865530,2043
1629807865534,2044
1629807865538,2044
1629807865542,2044
1629807865546,2043
1629807865550,2044
1629807865554,2044
1629807865558,2044
1629807865562,2044
1629807865566,2044
1629807865570,2043
1629807865574,2043
1629807865578,2042
1629807865582,2043
1629807865586,2043
1629807865590,2044
1629807865594,2044
1629807865598,2045
1629807865602,2046
1629807865606,2046
1629807865610,2046
1629807865614,2045
1629807865618,2045
1629807865622,2045
1629807865626,2044
1629807865630,2045
1629807865634,2045
1629807865638,2045
1629807865642,2045
1629807865646,2046
1629807865650,2046
1629807865654,2047
1629807865658,2047
1629807865662,2047
1629807865666,2048
1629807865670,2047
1629807865674,2047
1629807865678,2046
1629807865682,2045
1629807865686,2045
1629807865690,2044
1629807865694,2043
1629807865698,2043
1629807865702,2044
1629807865706,2048
1629807865710,2052
1629807865714,2056
1629807865718,2059
1629807865722,2058
1629807865726,2055
1629807865730,2051
1629807865734,2048
1629807865738,2048
1629807865742,2048
1629807865746,2048
1629807865750,2048
1629807865754,2048
1629807865758,2048
1629807865762,2048
1629807865766,2047
1629807865770,2046
1629807865774,2046
1629807865778,2047
1629807865782,2048
1629807865786,2050
1629807865790,2049
1629807865794,2044
1629807865798,2033
1629807865802,2024
1629807865806,2022
1629807865810,2040
1629807865814,2091
1629807865818,2168
1629807865822,2245
1629807865826,2289
1629807865830,2276
1629807865834,2208
1629807865838,2115
1629807865842,2039
1629807865846,2004
1629807865850,2011
1629807865854,2039
1629807865858,2064
1629807865862,2071
1629807865866,2062
1629807865870,2051
1629807865874,2046
1629807865878,2045
1629807865882,2045
1629807865886,2045
1629807865890,2046
1629807865894,2046
1629807865898,2046
1629807865902,2046
1629807865906,2047
1629807865910,2047
1629807865914,2048
1629807865918,2048
1629807865922,2049
1629807865926,2049
1629807865930,2050
1629807865934,2050
1629807865938,2051
1629807865942,2051
1629807865946,2051
1629807865950,2052
1629807865954,2053
1629807865958,2053
1629807865962,2055
1629807865966,2055
1629807865970,2056
1629807865974,2057
1629807865978,2058
1629807865982,2060
1629807865986,2061
1629807865990,2063
1629807865994,2065
1629807865998,2065
1629807866002,2066
1629807866006,2066
1629807866010,2068
1629807866014,2070
1629807866018,2072
1629807866022,2075
1629807866026,2077
1629807866030,2079
1629807866034,2082
1629807866038,2085
1629807866042,2088
1629807866046,2092
1629807866050,2095
1629807866054,2098
1629807866058,2101
1629807866062,2103
1629807866066,2105
1629807866070,2107
1629807866074,2109
1629807866078,2109
1629807866082,2109
1629807866086,2109
1629807866090,2108
1629807866094,2107
1629807866098,2104
1629807866102,2101
1629807866106,2096
1629807866110,2091
1629807866114,2084
1629807866118,2077
1629807866122,2070
1629807866126,2064
1629807866130,2059
1629807866134,2055
1629807866138,2052
1629807866142,2049
1629807866146,2048
1629807866150,2045
1629807866154,2042
1629807866158,2040
1629807866162,2038
1629807866166,2037
1629807866170,2037
1629807866174,2037
1629807866178,2037
1629807866182,2037
1629807866186,2037
1629807866190,2037
1629807866194,2038
1629807866198,2039
1629807866202,2039
1629807866206,2039
1629807866210,2039
1629807866214,2039
1629807866218,2039
1629807866222,2040
1629807866226,2041
1629807866230,2042
1629807866234,2043
1629807866238,2043
1629807866242,2044
1629807866246,2043
1629807866250,2043
1629807866254,2043
1629807866258,2044
1629807866262,2045
1629807866266,2046
1629807866270,2046
1629807866274,2046
1629807866278,2045
1629807866282,2045
1629807866286,2044
1629807866290,2043
1629807866294,2043
1629807866298,2043
1629807866302,2044
1629807866306,2044
1629807866310,2044
1629807866314,2044
1629807866318,2044
1629807866322,2043
1629807866326,2043
1629807866330,2042
1629807866334,2042
1629807866338,2041
1629807866342,2040
1629807866346,2040
1629807866350,2040
1629807866354,2040
1629807866358,2040
1629807866362,2040
1629807866366,2040
1629807866370,2040
1629807866374,2039
1629807866378,2039
1629807866382,2040
1629807866386,2041
1629807866390,2041
1629807866394,2041
1629807866398,2041
1629807866402,2040
1629807866406,2040
1629807866410,2040
1629807866414,2040
1629807866418,2040
1629807866422,2041
1629807866426,2042
1629807866430,2042
1629807866434,2042
1629807866438,2042
1629807866442,2042
1629807866446,2042
1629807866450,2042
1629807866454,2042
1629807866458,2042
1629807866462,2042
1629807866466,2042
1629807866470,2042
1629807866474,2042
1629807866478,2043
1629807866482,2043
1629807866486,2043
1629807866490,2042
1629807866494,2042
1629807866498,2042
1629807866502,2043
1629807866506,2044
1629807866510,2045
1629807866514,2045
1629807866518,2044
1629807866522,2043
1629807866526,2043
1629807866530,2042
1629807866534,2043
1629807866538,2044
1629807866542,2044
1629807866546,2045
1629807866550,2045
1629807866554,2044
1629807866558,2044
1629807866562,2043
1629807866566,2043
1629807866570,2043
1629807866574,2042
1629807866578,2043
1629807866582,2043
1629807866586,2046
1629807866590,2048
1629807866594,2052
1629807866598,2055
1629807866602,2056
1629807866606,2056
1629807866610,2053
1629807866614,2050
1629807866618,2048
1629807866622,2047
1629807866626,2046
1629807866630,2045
1629807866634,2045
1629807866638,2045
1629807866642,2046
1629807866646,2045
1629807866650,2045
1629807866654,2045
1629807866658,2045
1629807866662,2046
1629807866666,2048
1629807866670,2048
1629807866674,2045
1629807866678,2037
1629807866682,2026
1629807866686,2018
1629807866690,2021
1629807866694,2048
1629807866698,2108
1629807866702,2191
1629807866706,2267
1629807866710,2304
1629807866714,2282
1629807866718,2207
1629807866722,2113
1629807866726,2041
1629807866730,2011
1629807866734,2020
1629807866738,2046
1629807866742,2065
1629807866746,2067
1629807866750,2056
1629807866754,2048
1629807866758,2043
1629807866762,2041
1629807866766,2041
1629807866770,2042
1629807866774,2043
1629807866778,2043
1629807866782,2045
1629807866786,2045
1629807866790,2046
1629807866794,2046
1629807866798,2046
1629807866802,2047
1629807866806,2047
1629807866810,2048
1629807866814,2048
1629807866818,2049
1629807866822,2049
1629807866826,2050
1629807866830,2051
1629807866834,2052
1629807866838,2053
1629807866842,2054
1629807866846,2054
1629807866850,2055
1629807866854,2055
1629807866858,2056
1629807866862,2058
1629807866866,2060
1629807866870,2061
1629807866874,2063
1629807866878,2064
1629807866882,2065
1629807866886,2066
1629807866890,2067
1629807866894,2070
1629807866898,2072
1629807866902,2074
1629807866906,2076
1629807866910,2079
1629807866914,2082
1629807866918,2085
1629807866922,2088
1629807866926,2091
1629807866930,2094
1629807866934,2097
1629807866938,2101
1629807866942,2104
1629807866946,2106
1629807866950,2109
1629807866954,2111
1629807866958,2112
1629807866962,2113
1629807866966,2114
1629807866970,2113
1629807866974,2112
1629807866978,2109
1629807866982,2106
1629807866986,2101
1629807866990,2094
1629807866994,2088
1629807866998,2080
1629807867002,2074
1629807867006,2067
1629807867010,2062
1629807867014,2056
1629807867018,2052
1629807867022,2048
1629807867026,2046
1629807867030,2043
1629807867034,2042
1629807867038,2040
1629807867042,2039
1629807867046,2037
1629807867050,2037
1629807867054,2036
1629807867058,2036
1629807867062,2036
1629807867066,2036
1629807867070,2036
1629807867074,2036
1629807867078,2036
1629807867082,2036
1629807867086,2037
1629807867090,2037
1629807867094,2038
1629807867098,2039
1629807867102,2039
1629807867106,2040
1629807867110,2041
1629807867114,2041
1629807867118,2041
1629807867122,2041
1629807867126,2041
1629807867130,2041
1629807867134,2042
1629807867138,2042
1629807867142,2043
1629807867146,2044
1629807867150,2045
1629807867154,2045
1629807867158,2045
1629807867162,2044
1629807867166,2043
1629807867170,2043
1629807867174,2043
1629807867178,2043
1629807867182,2043
1629807867186,2043
1629807867190,2043
1629807867194,2043
1629807867198,2043
1629807867202,2042
1629807867206,2041
1629807867210,2041
1629807867214,2041
1629807867218,2041
1629807867222,2041
1629807867226,2041
1629807867230,2041
1629807867234,2041
1629807867238,2040
1629807867242,2040
1629807867246,2040
1629807867250,2040
1629807867254,2040
1629807867258,2040
1629807867262,2040
1629807867266,2041
1629807867270,2041
1629807867274,2041
1629807867278,2041
1629807867282,2041
1629807867286,2040
1629807867290,2040
1629807867294,2040
1629807867298,2040
1629807867302,2040
1629807867306,2041
1629807867310,2041
1629807867314,2041
1629807867318,2041
1629807867322,2041
1629807867326,2040
1629807867330,2040
1629807867334,2040
1629807867338,2041
1629807867342,2041
1629807867346,2042
1629807867350,2042
1629807867354,2042
1629807867358,2042
1629807867362,2042
1629807867366,2041
1629807867370,2040
1629807867374,2040
1629807867378,2041
1629807867382,2042
1629807867386,2043
1629807867390,2044
1629807867394,2043
1629807867398,2042
1629807867402,2041
1629807867406,2041
1629807867410,2041
1629807867414,2041
1629807867418,2041
1629807867422,2042
1629807867426,2043
1629807867430,2042
1629807867434,2042
1629807867438,2041
1629807867442,2040
1629807867446,2040
1629807867450,2040
1629807867454,2041
1629807867458,2042
1629807867462,2044
1629807867466,2046
1629807867470,2049
1629807867474,2052
1629807867478,2055
1629807867482,2056
1629807867486,2055
1629807867490,2053
1629807867494,2050
1629807867498,2048
1629807867502,2047
1629807867506,2046
1629807867510,2046
1629807867514,2046
1629807867518,2045
1629807867522,2044
1629807867526,2044
1629807867530,2043
1629807867534,2043
1629807867538,2043
1629807867542,2043
1629807867546,2045
1629807867550,2047
1629807867554,2048
1629807867558,2046
1629807867562,2038
1629807867566,2027
1629807867570,2018
1629807867574,2018
1629807867578,2040
1629807867582,2095
1629807867586,2176
1629807867590,2255
1629807867594,2298
1629807867598,2284
1629807867602,2216
1629807867606,2124
1629807867610,2049
1629807867614,2015
1629807867618,2020
1629807867622,2043
1629807867626,2062
1629807867630,2065
1629807867634,2055
1629807867638,2046
1629807867642,2042
1629807867646,2041
1629807867650,2040
1629807867654,2041
1629807867658,2040
1629807867662,2041
1629807867666,2041
1629807867670,2042
1629807867674,2043
1629807867678,2044
1629807867682,2045
1629807867686,2046
1629807867690,2046
1629807867694,2046
1629807867698,2047
1629807867702,2048
1629807867706,2048
1629807867710,2049
1629807867714,2050
1629807867718,2050
1629807867722,2051
1629807867726,2052
1629807867730,2053
1629807867734,2054
1629807867738,2055
1629807867742,2056
1629807867746,2056
1629807867750,2057
1629807867754,2059
1629807867758,2060
1629807867762,2063
1629807867766,2065
1629807867770,2066
1629807867774,2068
1629807867778,2069
1629807867782,2070
1629807867786,2072
1629807867790,2075
1629807867794,2078
1629807867798,2081
1629807867802,2083
1629807867806,2086
1629807867810,2089
1629807867814,2092
1629807867818,2095
1629807867822,2098
1629807867826,2100
1629807867830,2103
1629807867834,2105
1629807867838,2107
1629807867842,2109
1629807867846,2110
1629807867850,2110
1629807867854,2110
1629807867858,2109
1629807867862,2107
1629807867866,2105
1629807867870,2101
1629807867874,2095
1629807867878,2087
1629807867882,2080
1629807867886,2072
1629807867890,2066
1629807867894,2060
1629807867898,2056
1629807867902,2052
1629807867906,2049
1629807867910,2047
1629807867914,2043
1629807867918,2040
1629807867922,2037
1629807867926,2035
1629807867930,2034
1629807867934,2033
1629807867938,2033
1629807867942,2034
1629807867946,2035
1629807867950,2035
1629807867954,2035
1629807867958,2035
1629807867962,2035
1629807867966,2034
1629807867970,2034
1629807867974,2035
1629807867978,2036
1629807867982,2037
1629807867986,2038
1629807867990,2039
1629807867994,2039
1629807867998,2038
1629807868002,2038
1629807868006,2037
1629807868010,2038
1629807868014,2038
1629807868018,2039
1629807868022,2039
1629807868026,2040
1629807868030,2040
1629807868034,2040
1629807868038,2040
1629807868042,2039
1629807868046,2039
1629807868050,2038
1629807868054,2038
1629807868058,2038
1629807868062,2039
1629807868066,2039
1629807868070,2039
1629807868074,2039
1629807868078,2038
1629807868082,2038
1629807868086,2037
1629807868090,2036
1629807868094,2035
1629807868098,2035
1629807868102,2035
1629807868106,2035
1629807868110,2036
1629807868114,2036
1629807868118,2036
1629807868122,2035
1629807868126,2035
1629807868130,2035
1629807868134,2035
1629807868138,2036
1629807868142,2036
1629807868146,2036
1629807868150,2035
1629807868154,2035
1629807868158,2035
1629807868162,2035
1629807868166,2035
1629807868170,2035
1629807868174,2035
1629807868178,2035
1629807868182,2036
1629807868186,2037
1629807868190,2037
1629807868194,2037
1629807868198,2037
1629807868202,2036
1629807868206,2035
1629807868210,2035
1629807868214,2036
1629807868218,2037
1629807868222,2038
1629807868226,2039
1629807868230,2040
1629807868234,2039
1629807868238,2038
1629807868242,2038
1629807868246,2037
1629807868250,2038
1629807868254,2039
1629807868258,2040
1629807868262,2041
1629807868266,2041
1629807868270,2042
1629807868274,2042
1629807868278,2041
1629807868282,2041
1629807868286,2040
1629807868290,2040
1629807868294,2040
1629807868298,2040
1629807868302,2041
1629807868306,2042
1629807868310,2042
1629807868314,2043
1629807868318,2043
1629807868322,2043
1629807868326,2043
1629807868330,2042
1629807868334,2042
1629807868338,2041
1629807868342,2041
1629807868346,2041
1629807868350,2042
1629807868354,2042
1629807868358,2043
1629807868362,2043
1629807868366,2043
1629807868370,2043
1629807868374,2042
1629807868378,2042
1629807868382,2043
1629807868386,2047
1629807868390,2050
1629807868394,2054
1629807868398,2056
1629807868402,2056
1629807868406,2053
1629807868410,2050
1629807868414,2048
1629807868418,2046
1629807868422,2045
1629807868426,2045
1629807868430,2044
1629807868434,2044
1629807868438,2043
1629807868442,2042
1629807868446,2041
1629807868450,2041
1629807868454,2040
1629807868458,2040
1629807868462,2042
1629807868466,2045
1629807868470,2048
1629807868474,2048
1629807868478,2042
1629807868482,2030
1629807868486,2020
1629807868490,2016
1629807868494,2031
1629807868498,2078
1629807868502,2151
1629807868506,2227
1629807868510,2273
1629807868514,2264
1629807868518,2200
1629807868522,2106
1629807868526,2025
1629807868530,1985
1629807868534,1989
1629807868538,2020
1629807868542,2051
1629807868546,2066
1629807868550,2061
1629807868554,2051
1629807868558,2045
1629807868562,2041
1629807868566,2041
1629807868570,2042
1629807868574,2043
1629807868578,2043
1629807868582,2043
1629807868586,2044
1629807868590,2045
1629807868594,2045
1629807868598,2045
1629807868602,2045
1629807868606,2044
1629807868610,2044
1629807868614,2045
1629807868618,2046
1629807868622,2047
1629807868626,2048
1629807868630,2048
1629807868634,2050
1629807868638,2051
1629807868642,2051
1629807868646,2052
1629807868650,2052
1629807868654,2053
1629807868658,2053
1629807868662,2055
1629807868666,2058
1629807868670,2060
1629807868674,2062
1629807868678,2063
1629807868682,2064
1629807868686,2064
1629807868690,2065
1629807868694,2066
1629807868698,2068
1629807868702,2071
1629807868706,2074
1629807868710,2078
1629807868714,2081
1629807868718,2084
1629807868722,2086
1629807868726,2089
1629807868730,2091
1629807868734,2094
1629807868738,2097
1629807868742,2101
1629807868746,2104
1629807868750,2108
1629807868754,2110
1629807868758,2112
1629807868762,2112
1629807868766,2112
1629807868770,2111
1629807868774,2110
1629807868778,2108
1629807868782,2106
1629807868786,2102
1629807868790,2097
1629807868794,2091
1629807868798,2084
1629807868802,2075
1629807868806,2067
1629807868810,2061
1629807868814,2055
1629807868818,2050
1629807868822,2047
1629807868826,2044
1629807868830,2041
1629807868834,2039
1629807868838,2037
1629807868842,2036
1629807868846,2035
1629807868850,2034
1629807868854,2033
1629807868858,2033
1629807868862,2033
1629807868866,2033
1629807868870,2033
1629807868874,2033
1629807868878,2033
1629807868882,2034
1629807868886,2034
1629807868890,2034
1629807868894,2035
1629807868898,2036
1629807868902,2037
1629807868906,2038
1629807868910,2038
1629807868914,2038
1629807868918,2038
1629807868922,2039
1629807868926,2039
1629807868930,2040
1629807868934,2040
1629807868938,2040
1629807868942,2040
1629807868946,2039
1629807868950,2039
1629807868954,2039
1629807868958,2040
1629807868962,2041
1629807868966,2040
1629807868970,2039
1629807868974,2038
1629807868978,2037
1629807868982,2036
1629807868986,2036
1629807868990,2036
1629807868994,2036
1629807868998,2037
1629807869002,2037
1629807869006,2037
1629807869010,2036
1629807869014,2035
1629807869018,2034
1629807869022,2034
1629807869026,2035
1629807869030,2035
1629807869034,2036
1629807869038,2036
1629807869042,2036
1629807869046,2035
1629807869050,2035
1629807869054,2034
1629807869058,2034
1629807869062,2035
1629807869066,2035
1629807869070,2036
1629807869074,2036
1629807869078,2036
1629807869082,2037
1629807869086,2036
1629807869090,2036
1629807869094,2036
1629807869098,2036
1629807869102,2036
1629807869106,2037
1629807869110,2037
1629807869114,2037
1629807869118,2037
1629807869122,2037
1629807869126,2037
1629807869130,2037
1629807869134,2037
1629807869138,2037
1629807869142,2038
1629807869146,2039
1629807869150,2039
1629807869154,2039
1629807869158,2039
1629807869162,2038
1629807869166,2039
1629807869170,2039
1629807869174,2039
1629807869178,2040
1629807869182,2040
1629807869186,2040
1629807869190,2040
1629807869194,2040
1629807869198,2040
1629807869202,2039
1629807869206,2038
1629807869210,2038
1629807869214,2038
1629807869218,2039
1629807869222,2040
1629807869226,2041
1629807869230,2042
1629807869234,2042
1629807869238,2042
1629807869242,2043
1629807869246,2043
1629807869250,2043
1629807869254,2043
1629807869258,2042
1629807869262,2042
1629807869266,2043
1629807869270,2044
1629807869274,2045
1629807869278,2045
1629807869282,2044
1629807869286,2043
1629807869290,2043
1629807869294,2045
1629807869298,2048
1629807869302,2051
1629807869306,2054
1629807869310,2055
1629807869314,2054
1629807869318,2051
1629807869322,2048
1629807869326,2046
1629807869330,2043
1629807869334,2042
1629807869338,2042
1629807869342,2042
1629807869346,2043
1629807869350,2044
1629807869354,2045
1629807869358,2045
1629807869362,2045
1629807869366,2044
1629807869370,2044
1629807869374,2046
1629807869378,2048
1629807869382,2047
1629807869386,2041
1629807869390,2030
1629807869394,2020
1629807869398,2017
1629807869402,2033
1629807869406,2079
1629807869410,2151
1629807869414,2220
1629807869418,2257
1629807869422,2238
1629807869426,2167
1629807869430,2072
1629807869434,1995
1629807869438,1963
1629807869442,1975
1629807869446,2012
1629807869450,2048
1629807869454,2065
1629807869458,2063
1629807869462,2055
1629807869466,2048
1629807869470,2045
1629807869474,2044
1629807869478,2045
1629807869482,2046
1629807869486,2047
1629807869490,2046
1629807869494,2047
1629807869498,2048
1629807869502,2049
1629807869506,2050
1629807869510,2050
1629807869514,2050
1629807869518,2051
1629807869522,2052
1629807869526,2053
1629807869530,2053
1629807869534,2054
1629807869538,2053
1629807869542,2054
1629807869546,2055
1629807869550,2057
1629807869554,2059
1629807869558,2060
1629807869562,2061
1629807869566,2062
1629807869570,2062
1629807869574,2063
1629807869578,2064
1629807869582,2065
1629807869586,2067
1629807869590,2068
1629807869594,2070
1629807869598,2071
1629807869602,2072
1629807869606,2074
1629807869610,2077
1629807869614,2080
1629807869618,2084
1629807869622,2088
1629807869626,2091
1629807869630,2093
1629807869634,2096
1629807869638,2098
1629807869642,2101
1629807869646,2103
1629807869650,2106
1629807869654,2108
1629807869658,2110
1629807869662,2112
1629807869666,2113
1629807869670,2114
1629807869674,2115
1629807869678,2116
1629807869682,2114
1629807869686,2112
1629807869690,2108
1629807869694,2102
1629807869698,2096
1629807869702,2089
1629807869706,2082
1629807869710,2076
1629807869714,2070
1629807869718,2064
1629807869722,2059
1629807869726,2053
1629807869730,2048
1629807869734,2045
1629807869738,2041
1629807869742,2039
1629807869746,2038
1629807869750,2038
1629807869754,2038
1629807869758,2038
1629807869762,2037
1629807869766,2036
1629807869770,2035
1629807869774,2034
1629807869778,2033
1629807869782,2033
1629807869786,2034
1629807869790,2035
1629807869794,2036
1629807869798,2037
1629807869802,2038
1629807869806,2039
1629807869810,2039
1629807869814,2039
1629807869818,2039
1629807869822,2040
1629807869826,2042
1629807869830,2043
1629807869834,2043
1629807869838,2042
1629807869842,2041
1629807869846,2039
1629807869850,2038
1629807869854,2039
1629807869858,2039
1629807869862,2040
1629807869866,2041
1629807869870,2041
1629807869874,2041
1629807869878,2041
1629807869882,2041
1629807869886,2041
1629807869890,2040
1629807869894,2039
1629807869898,2037
1629807869902,2036
1629807869906,2036
1629807869910,2036
1629807869914,2036
1629807869918,2037
1629807869922,2037
1629807869926,2037
1629807869930,2036
1629807869934,2035
1629807869938,2034
1629807869942,2034
1629807869946,2034
1629807869950,2036
1629807869954,2037
1629807869958,2037
1629807869962,2037
1629807869966,2035
1629807869970,2035
1629807869974,2034
1629807869978,2034
1629807869982,2035
1629807869986,2037
1629807869990,2037
1629807869994,2037
1629807869998,2037
1629807870002,2036
1629807870006,2036
1629807870010,2036
1629807870014,2036
1629807870018,2036
1629807870022,2036
1629807870026,2036
1629807870030,2036
1629807870034,2037
1629807870038,2038
1629807870042,2039
1629807870046,2039
1629807870050,2038
1629807870054,2037
1629807870058,2037
1629807870062,2037
1629807870066,2037
1629807870070,2038
1629807870074,2039
1629807870078,2039
1629807870082,2039
1629807870086,2038
1629807870090,2038
1629807870094,2038
1629807870098,2038
1629807870102,2039
1629807870106,2039
1629807870110,2039
1629807870114,2038
1629807870118,2038
1629807870122,2038
1629807870126,2039
1629807870130,2040
1629807870134,2041
1629807870138,2041
1629807870142,2041
1629807870146,2042
1629807870150,2042
1629807870154,2043
1629807870158,2043
1629807870162,2043
1629807870166,2042
1629807870170,2041
1629807870174,2040
1629807870178,2039
1629807870182,2040
1629807870186,2042
1629807870190,2046
1629807870194,2049
1629807870198,2052
1629807870202,2053
1629807870206,2052
1629807870210,2050
1629807870214,2048
1629807870218,2047
1629807870222,2046
1629807870226,2045
1629807870230,2045
1629807870234,2044
1629807870238,2043
1629807870242,2044
1629807870246,2044
1629807870250,2044
1629807870254,2044
1629807870258,2044
1629807870262,2044
1629807870266,2046
1629807870270,2048
1629807870274,2048
1629807870278,2046
1629807870282,2036
1629807870286,2024
1629807870290,2017
1629807870294,2024
1629807870298,2058
1629807870302,2124
1629807870306,2199
1629807870310,2253
1629807870314,2257
1629807870318,2203
1629807870322,2112
1629807870326,2023
1629807870330,1971
1629807870334,1967
1629807870338,1998
1629807870342,2038
1629807870346,2064
1629807870350,2070
1629807870354,2062
1629807870358,2053
1629807870362,2048
1629807870366,2044
1629807870370,2043
1629807870374,2045
1629807870378,2046
1629807870382,2048
1629807870386,2049
1629807870390,2051
1629807870394,2052
1629807870398,2052
1629807870402,2051
1629807870406,2050
1629807870410,2049
1629807870414,2050
1629807870418,2051
1629807870422,2053
1629807870426,2055
1629807870430,2056
1629807870434,2056
1629807870438,2057
1629807870442,2057
1629807870446,2058
1629807870450,2058
1629807870454,2059
1629807870458,2060
1629807870462,2061
1629807870466,2062
1629807870470,2063
1629807870474,2065
1629807870478,2067
1629807870482,2069
1629807870486,2070
1629807870490,2071
1629807870494,2072
1629807870498,2073
1629807870502,2075
1629807870506,2078
1629807870510,2082
1629807870514,2085
1629807870518,2088
1629807870522,2090
1629807870526,2092
1629807870530,2094
1629807870534,2098
1629807870538,2101
1629807870542,2105
1629807870546,2109
1629807870550,2111
1629807870554,2113
1629807870558,2114
1629807870562,2114
1629807870566,2113
1629807870570,2113
1629807870574,2112
1629807870578,2110
1629807870582,2108
1629807870586,2104
1629807870590,2098
1629807870594,2091
1629807870598,2084
1629807870602,2077
1629807870606,2070
1629807870610,2064
1629807870614,2059
1629807870618,2054
1629807870622,2051
1629807870626,2048
1629807870630,2046
1629807870634,2043
1629807870638,2040
1629807870642,2037
1629807870646,2036
1629807870650,2035
1629807870654,2036
1629807870658,2036
1629807870662,2037
1629807870666,2037
1629807870670,2037
1629807870674,2037
1629807870678,2036
1629807870682,2036
1629807870686,2036
1629807870690,2037
1629807870694,2037
1629807870698,2038
1629807870702,2039
1629807870706,2040
1629807870710,2041
1629807870714,2042
1629807870718,2042
1629807870722,2042
1629807870726,2043
1629807870730,2043
1629807870734,2043
1629807870738,2044
1629807870742,2044
1629807870746,2043
1629807870750,2043
1629807870754,2044
1629807870758,2044
1629807870762,2045
1629807870766,2045
1629807870770,2045
1629807870774,2045
1629807870778,2044
1629807870782,2044
1629807870786,2043
1629807870790,2042
1629807870794,2041
1629807870798,2040
1629807870802,2040
1629807870806,2040
1629807870810,2041
1629807870814,2041
1629807870818,2041
1629807870822,2040
1629807870826,2040
1629807870830,2039
1629807870834,2038
1629807870838,2038
1629807870842,2038
1629807870846,2039
1629807870850,2038
1629807870854,2038
1629807870858,2038
1629807870862,2038
1629807870866,2038
1629807870870,2039
1629807870874,2039
1629807870878,2039
1629807870882,2039
1629807870886,2039
1629807870890,2039
1629807870894,2040
1629807870898,2040
1629807870902,2040
1629807870906,2040
1629807870910,2040
1629807870914,2040
1629807870918,2040
1629807870922,2040
1629807870926,2040
1629807870930,2040
1629807870934,2040
1629807870938,2039
1629807870942,2040
1629807870946,2041
1629807870950,2041
1629807870954,2042
1629807870958,2042
1629807870962,2042
1629807870966,2042
1629807870970,2042
1629807870974,2043
1629807870978,2043
1629807870982,2043
1629807870986,2043
1629807870990,2043
1629807870994,2043
1629807870998,2044
1629807871002,2043
1629807871006,2043
1629807871010,2042
1629807871014,2042
1629807871018,2042
1629807871022,2042
1629807871026,2042
1629807871030,2043
1629807871034,2043
1629807871038,2044
1629807871042,2045
1629807871046,2045
1629807871050,2046
1629807871054,2046
1629807871058,2045
1629807871062,2044
1629807871066,2044
1629807871070,2045
1629807871074,2045
1629807871078,2045
1629807871082,2045
1629807871086,2045
1629807871090,2047
1629807871094,2048
1629807871098,2051
1629807871102,2054
1629807871106,2056
1629807871110,2055
1629807871114,2054
1629807871118,2051
1629807871122,2049
1629807871126,2048
1629807871130,2047
1629807871134,2046
1629807871138,2046
1629807871142,2045
1629807871146,2045
1629807871150,2045
1629807871154,2046
1629807871158,2046
1629807871162,2046
1629807871166,2046
1629807871170,2046
1629807871174,2047
1629807871178,2048
1629807871182,2048
1629807871186,2043
1629807871190,2033
1629807871194,2023
1629807871198,2019
1629807871202,2031
1629807871206,2073
1629807871210,2145
1629807871214,2223
1629807871218,2276
1629807871222,2277
1629807871226,2220
1629807871230,2127
1629807871234,2042
1629807871238,1995
1629807871242,1994
1629807871246,2022
1629807871250,2053
1629807871254,2070
1629807871258,2066
1629807871262,2055
1629807871266,2048
1629807871270,2045
1629807871274,2044
1629807871278,2044
1629807871282,2045
1629807871286,2044
1629807871290,2045
1629807871294,2045
1629807871298,2046
1629807871302,2047
1629807871306,2048
1629807871310,2048
1629807871314,2049
1629807871318,2049
1629807871322,2049
1629807871326,2049
1629807871330,2049
1629807871334,2049
1629807871338,2050
1629807871342,2052
1629807871346,2053
1629807871350,2054
1629807871354,2055
1629807871358,2055
1629807871362,2056
1629807871366,2057
1629807871370,2058
1629807871374,2059
1629807871378,2061
1629807871382,2062
1629807871386,2064
1629807871390,2066
1629807871394,2067
1629807871398,2068
1629807871402,2069
1629807871406,2071
1629807871410,2073
1629807871414,2076
1629807871418,2078
1629807871422,2080
1629807871426,2083
1629807871430,2086
1629807871434,2089
1629807871438,2091
1629807871442,2094
1629807871446,2096
1629807871450,2099
1629807871454,2101
1629807871458,2104
1629807871462,2106
1629807871466,2108
1629807871470,2109
1629807871474,2110
1629807871478,2110
1629807871482,2109
1629807871486,2107
1629807871490,2103
1629807871494,2098
1629807871498,2092
1629807871502,2087
1629807871506,2081
1629807871510,2076
1629807871514,2070
1629807871518,2064
1629807871522,2058
1629807871526,2053
1629807871530,2048
1629807871534,2046
1629807871538,2043
1629807871542,2042
1629807871546,2040
1629807871550,2039
1629807871554,2038
1629807871558,2038
1629807871562,2037
1629807871566,2036
1629807871570,2035
1629807871574,2034
1629807871578,2033
1629807871582,2034
1629807871586,2035
1629807871590,2036
1629807871594,2037
1629807871598,2038
1629807871602,2038
1629807871606,2038
1629807871610,2038
1629807871614,2039
1629807871618,2040
1629807871622,2041
1629807871626,2042
1629807871630,2042
1629807871634,2043
1629807871638,2043
1629807871642,2044
1629807871646,2044
1629807871650,2044
1629807871654,2045
1629807871658,2045
1629807871662,2046
1629807871666,2046
1629807871670,2047
1629807871674,2046
1629807871678,2046
1629807871682,2045
1629807871686,2045
1629807871690,2044
1629807871694,2043
1629807871698,2043
1629807871702,2042
1629807871706,2042
1629807871710,2042
1629807871714,2042
1629807871718,2042
1629807871722,2042
1629807871726,2041
1629807871730,2041
1629807871734,2040
1629807871738,2040
1629807871742,2040
1629807871746,2040
1629807871750,2040
1629807871754,2041
1629807871758,2040
1629807871762,2040
1629807871766,2040
1629807871770,2039
1629807871774,2039
1629807871778,2039
1629807871782,2039
1629807871786,2040
1629807871790,2040
1629807871794,2040
1629807871798,2041
1629807871802,2040
1629807871806,2040
1629807871810,2039
1629807871814,2039
1629807871818,2039
1629807871822,2039
1629807871826,2040
1629807871830,2041
1629807871834,2042
1629807871838,2042
1629807871842,2041
1629807871846,2040
1629807871850,2039
1629807871854,2039
1629807871858,2039
1629807871862,2041
1629807871866,2042
1629807871870,2043
1629807871874,2043
1629807871878,2043
1629807871882,2042
1629807871886,2041
1629807871890,2040
1629807871894,2040
1629807871898,2041
1629807871902,2042
1629807871906,2042
1629807871910,2043
1629807871914,2043
1629807871918,2043
1629807871922,2043
1629807871926,2042
1629807871930,2042
1629807871934,2043
1629807871938,2043
1629807871942,2043
1629807871946,2043
1629807871950,2043
1629807871954,2044
1629807871958,2045
1629807871962,2045
1629807871966,2045
1629807871970,2045
1629807871974,2044
1629807871978,2043
1629807871982,2043
1629807871986,2043
1629807871990,2044
1629807871994,2045
1629807871998,2045
1629807872002,2045
1629807872006,2045
1629807872010,2044
1629807872014,2044
1629807872018,2043
1629807872022,2043
1629807872026,2044
1629807872030,2044
1629807872034,2045
1629807872038,2046
1629807872042,2046
1629807872046,2046
1629807872050,2045
1629807872054,2044
1629807872058,2043
1629807872062,2043
1629807872066,2043
1629807872070,2044
1629807872074,2044
1629807872078,2045
1629807872082,2047
1629807872086,2049
1629807872090,2053
1629807872094,2055
1629807872098,2056
1629807872102,2056
1629807872106,2054
1629807872110,2051
1629807872114,2049
1629807872118,2048
1629807872122,2047
1629807872126,2046
1629807872130,2046
1629807872134,2046
1629807872138,2046
1629807872142,2046
1629807872146,2046
1629807872150,2046
1629807872154,2046
1629807872158,2046
1629807872162,2047
1629807872166,2048
1629807872170,2048
1629807872174,2044
1629807872178,2034
1629807872182,2024
1629807872186,2019
1629807872190,2027
1629807872194,2061
1629807872198,2129
1629807872202,2212
1629807872206,2280
1629807872210,2303
1629807872214,2265
1629807872218,2182
1629807872222,2091
1629807872226,2030
1629807872230,2013
1629807872234,2030
1629807872238,2054
1629807872242,2069
1629807872246,2065
1629807872250,2051
1629807872254,2043
1629807872258,2040
1629807872262,2040
1629807872266,2041
1629807872270,2042
1629807872274,2042
1629807872278,2042
1629807872282,2043
1629807872286,2043
1629807872290,2043
1629807872294,2044
1629807872298,2045
1629807872302,2046
1629807872306,2047
1629807872310,2048
1629807872314,2048
1629807872318,2048
1629807872322,2048
1629807872326,2048
1629807872330,2048
1629807872334,2049
1629807872338,2051
1629807872342,2053
1629807872346,2054
1629807872350,2055
1629807872354,2055
1629807872358,2055
1629807872362,2056
1629807872366,2057
1629807872370,2058
1629807872374,2059
1629807872378,2061
1629807872382,2063
1629807872386,2064
1629807872390,2066
1629807872394,2068
1629807872398,2070
1629807872402,2071
1629807872406,2073
1629807872410,2075
1629807872414,2077
1629807872418,2080
1629807872422,2083
1629807872426,2086
1629807872430,2089
1629807872434,2092
1629807872438,2095
1629807872442,2097
1629807872446,2099
1629807872450,2101
1629807872454,2102
1629807872458,2103
1629807872462,2105
1629807872466,2106
1629807872470,2106
1629807872474,2105
1629807872478,2104
1629807872482,2101
1629807872486,2097
1629807872490,2091
1629807872494,2085
1629807872498,2079
1629807872502,2073
1629807872506,2067
1629807872510,2062
1629807872514,2058
1629807872518,2053
1629807872522,2050
1629807872526,2047
1629807872530,2044
1629807872534,2042
1629807872538,2040
1629807872542,2039
1629807872546,2038
1629807872550,2038
1629807872554,2038
1629807872558,2037
1629807872562,2037
1629807872566,2036
1629807872570,2036
1629807872574,2036
1629807872578,2037
1629807872582,2037
1629807872586,2037
1629807872590,2038
1629807872594,2038
1629807872598,2039
1629807872602,2039
1629807872606,2039
1629807872610,2039
1629807872614,2040
1629807872618,2040
1629807872622,2041
1629807872626,2042
1629807872630,2043
1629807872634,2043
1629807872638,2043
1629807872642,2043
1629807872646,2043
1629807872650,2043
1629807872654,2043
1629807872658,2043
1629807872662,2043
1629807872666,2044
1629807872670,2044
1629807872674,2044
1629807872678,2044
1629807872682,2043
1629807872686,2042
1629807872690,2042
1629807872694,2042
1629807872698,2042
1629807872702,2043
1629807872706,2044
1629807872710,2044
1629807872714,2044
1629807872718,2043
1629807872722,2042
1629807872726,2041
1629807872730,2040
1629807872734,2039
1629807872738,2039
1629807872742,2040
1629807872746,2040
1629807872750,2040
1629807872754,2040
1629807872758,2040
1629807872762,2039
1629807872766,2039
1629807872770,2039
1629807872774,2039
1629807872778,2039
1629807872782,2040
1629807872786,2040
1629807872790,2041
1629807872794,2041
1629807872798,2041
1629807872802,2041
1629807872806,2041
1629807872810,2040
1629807872814,2040
1629807872818,2040
1629807872822,2041
1629807872826,2042
1629807872830,2042
1629807872834,2043
1629807872838,2042
1629807872842,2042
1629807872846,2041
1629807872850,2041
1629807872854,2041
1629807872858,2041
1629807872862,2042
1629807872866,2042
1629807872870,2043
1629807872874,2044
1629807872878,2044
1629807872882,2044
1629807872886,2044
1629807872890,2043
1629807872894,2043
1629807872898,2042
1629807872902,2042
1629807872906,2043
1629807872910,2043
1629807872914,2043
1629807872918,2043
1629807872922,2043
1629807872926,2043
1629807872930,2043
1629807872934,2043
1629807872938,2043
1629807872942,2044
1629807872946,2045
1629807872950,2045
1629807872954,2045
1629807872958,2044
1629807872962,2044
1629807872966,2044
1629807872970,2044
1629807872974,2044
1629807872978,2045
1629807872982,2045
1629807872986,2045
1629807872990,2045
1629807872994,2045
1629807872998,2046
1629807873002,2046
1629807873006,2046
1629807873010,2046
1629807873014,2046
1629807873018,2046
1629807873022,2046
1629807873026,2047
1629807873030,2047
1629807873034,2047
1629807873038,2047
1629807873042,2046
1629807873046,2045
1629807873050,2045
1629807873054,2045
1629807873058,2045
1629807873062,2046
1629807873066,2047
1629807873070,2048
1629807873074,2048
1629807873078,2048
1629807873082,2048
1629807873086,2048
1629807873090,2047
1629807873094,2047
1629807873098,2048
1629807873102,2048
1629807873106,2049
1629807873110,2049
1629807873114,2049
1629807873118,2048
1629807873122,2047
1629807873126,2046
1629807873130,2046
1629807873134,2046
1629807873138,2046
1629807873142,2046
1629807873146,2047
1629807873150,2048
1629807873154,2049
1629807873158,2052
1629807873162,2055
1629807873166,2058
1629807873170,2058
1629807873174,2058
1629807873178,2056
1629807873182,2054
1629807873186,2053
1629807873190,2052
1629807873194,2051
1629807873198,2050
1629807873202,2048
1629807873206,2048
1629807873210,2047
1629807873214,2048
1629807873218,2048
1629807873222,2048
1629807873226,2049
1629807873230,2049
1629807873234,2050
1629807873238,2052
1629807873242,2052
1629807873246,2048
1629807873250,2039
1629807873254,2027
1629807873258,2020
1629807873262,2026
1629807873266,2059
1629807873270,2126
1629807873274,2213
1629807873278,2287
1629807873282,2318
1629807873286,2287
1629807873290,2209
1629807873294,2118
1629807873298,2051
1629807873302,2027
1629807873306,2036
1629807873310,2057
1629807873314,2069
1629807873318,2065
1629807873322,2053
1629807873326,2045
1629807873330,2043
1629807873334,2042
1629807873338,2043
1629807873342,2043
1629807873346,2044
1629807873350,2044
1629807873354,2045
1629807873358,2045
1629807873362,2046
1629807873366,2046
1629807873370,2046
1629807873374,2046
1629807873378,2047
1629807873382,2048
1629807873386,2048
1629807873390,2048
1629807873394,2049
1629807873398,2050
1629807873402,2051
1629807873406,2051
1629807873410,2052
1629807873414,2053
1629807873418,2054
1629807873422,2055
1629807873426,2056
1629807873430,2056
1629807873434,2057
1629807873438,2058
1629807873442,2059
1629807873446,2060
1629807873450,2061
1629807873454,2063
1629807873458,2064
1629807873462,2066
1629807873466,2068
1629807873470,2070
1629807873474,2072
1629807873478,2073
1629807873482,2075
1629807873486,2077
1629807873490,2079
1629807873494,2081
1629807873498,2084
1629807873502,2087
1629807873506,2090
1629807873510,2093
1629807873514,2096
1629807873518,2098
1629807873522,2100
1629807873526,2101
1629807873530,2102
1629807873534,2103
1629807873538,2103
1629807873542,2104
1629807873546,2104
1629807873550,2103
1629807873554,2102
1629807873558,2098
1629807873562,2094
1629807873566,2088
1629807873570,2082
1629807873574,2076
1629807873578,2070
1629807873582,2065
1629807873586,2060
1629807873590,2056
1629807873594,2052
1629807873598,2049
1629807873602,2047
1629807873606,2044
1629807873610,2042
1629807873614,2040
1629807873618,2039
1629807873622,2039
1629807873626,2039
1629807873630,2039
1629807873634,2039
1629807873638,2038
1629807873642,2038
1629807873646,2038
1629807873650,2038
1629807873654,2038
1629807873658,2038
1629807873662,2039
1629807873666,2040
1629807873670,2040
1629807873674,2041
1629807873678,2041
1629807873682,2041
1629807873686,2040
1629807873690,2040
1629807873694,2040
1629807873698,2040
1629807873702,2041
1629807873706,2042
1629807873710,2043
1629807873714,2044
1629807873718,2044
1629807873722,2044
1629807873726,2043
1629807873730,2042
1629807873734,2042
1629807873738,2042
1629807873742,2043
1629807873746,2044
1629807873750,2044
1629807873754,2044
1629807873758,2043
1629807873762,2043
1629807873766,2042
1629807873770,2041
1629807873774,2041
1629807873778,2041
1629807873782,2042
1629807873786,2042
1629807873790,2042
1629807873794,2041
1629807873798,2041
1629807873802,2041
1629807873806,2040
1629807873810,2040
1629807873814,2039
1629807873818,2039
1629807873822,2039
1629807873826,2039
1629807873830,2040
1629807873834,2040
1629807873838,2040
1629807873842,2040
1629807873846,2039
1629807873850,2039
1629807873854,2039
1629807873858,2039
1629807873862,2039
1629807873866,2040
1629807873870,2040
1629807873874,2040
1629807873878,2040
1629807873882,2040
1629807873886,2040
1629807873890,2040
1629807873894,2040
1629807873898,2041
1629807873902,2041
1629807873906,2042
1629807873910,2042
1629807873914,2042
1629807873918,2042
1629807873922,2042
1629807873926,2041
1629807873930,2041
1629807873934,2042
1629807873938,2042
1629807873942,2043
1629807873946,2044
1629807873950,2044
1629807873954,2044
1629807873958,2044
1629807873962,2044
1629807873966,2044
1629807873970,2043
1629807873974,2043
1629807873978,2043
1629807873982,2044
1629807873986,2044
1629807873990,2045
1629807873994,2045
1629807873998,2045
1629807874002,2045
1629807874006,2045
1629807874010,2044
1629807874014,2045
1629807874018,2045
1629807874022,2045
1629807874026,2045
1629807874030,2045
1629807874034,2045
1629807874038,2045
1629807874042,2045
1629807874046,2045
1629807874050,2045
1629807874054,2045
1629807874058,2046
1629807874062,2046
1629807874066,2047
1629807874070,2047
1629807874074,2047
1629807874078,2046
1629807874082,2046
1629807874086,2046
1629807874090,2046
1629807874094,2047
1629807874098,2047
1629807874102,2048
1629807874106,2048
1629807874110,2048
1629807874114,2047
1629807874118,2047
1629807874122,2046
1629807874126,2046
1629807874130,2046
1629807874134,2047
1629807874138,2048
1629807874142,2048
1629807874146,2048
1629807874150,2048
1629807874154,2048
1629807874158,2048
1629807874162,2048
1629807874166,2048
1629807874170,2047
1629807874174,2048
1629807874178,2048
1629807874182,2048
1629807874186,2049
1629807874190,2049
1629807874194,2048
1629807874198,2048
1629807874202,2047
1629807874206,2046
1629807874210,2046
1629807874214,2045
1629807874218,2045
1629807874222,2048
1629807874226,2050
1629807874230,2054
1629807874234,2058
1629807874238,2060
1629807874242,2059
1629807874246,2057
1629807874250,2053
1629807874254,2051
1629807874258,2049
1629807874262,2049
1629807874266,2048
1629807874270,2048
1629807874274,2048
1629807874278,2048
1629807874282,2048
1629807874286,2048
1629807874290,2048
1629807874294,2047
1629807874298,2047
1629807874302,2048
1629807874306,2050
1629807874310,2050
1629807874314,2047
1629807874318,2037
1629807874322,2027
1629807874326,2020
1629807874330,2027
1629807874334,2062
1629807874338,2131
1629807874342,2215
1629807874346,2286
1629807874350,2310
1629807874354,2275
1629807874358,2194
1629807874362,2105
1629807874366,2044
1629807874370,2025
1629807874374,2036
1629807874378,2057
1629807874382,2068
1629807874386,2064
1629807874390,2052
1629807874394,2045
1629807874398,2042
1629807874402,2042
1629807874406,2042
1629807874410,2042
1629807874414,2042
1629807874418,2042
1629807874422,2043
1629807874426,2044
1629807874430,2045
1629807874434,2045
1629807874438,2046
1629807874442,2046
1629807874446,2046
1629807874450,2046
1629807874454,2047
1629807874458,2047
1629807874462,2048
1629807874466,2049
1629807874470,2050
1629807874474,2051
1629807874478,2052
1629807874482,2053
1629807874486,2052
1629807874490,2053
1629807874494,2053
1629807874498,2054
1629807874502,2056
1629807874506,2058
1629807874510,2059
1629807874514,2060
1629807874518,2061
1629807874522,2062
1629807874526,2063
1629807874530,2064
1629807874534,2066
1629807874538,2068
1629807874542,2070
1629807874546,2072
1629807874550,2074
1629807874554,2077
1629807874558,2080
1629807874562,2084
1629807874566,2087
1629807874570,2089
1629807874574,2092
1629807874578,2094
1629807874582,2096
1629807874586,2098
1629807874590,2100
1629807874594,2102
1629807874598,2103
1629807874602,2104
1629807874606,2104
1629807874610,2104
1629807874614,2104
1629807874618,2102
1629807874622,2100
1629807874626,2096
1629807874630,2090
1629807874634,2085
1629807874638,2078
1629807874642,2073
1629807874646,2067
1629807874650,2062
1629807874654,2058
1629807874658,2054
1629807874662,2050
1629807874666,2048
1629807874670,2045
1629807874674,2041
1629807874678,2039
1629807874682,2037
1629807874686,2035
1629807874690,2034
1629807874694,2034
1629807874698,2033
1629807874702,2034
1629807874706,2034
1629807874710,2035
1629807874714,2036
1629807874718,2035
1629807874722,2035
1629807874726,2034
1629807874730,2033
1629807874734,2033
1629807874738,2033
1629807874742,2035
1629807874746,2036
1629807874750,2038
1629807874754,2040
1629807874758,2040
1629807874762,2040
1629807874766,2040
1629807874770,2039
1629807874774,2039
1629807874778,2038
1629807874782,2039
1629807874786,2039
1629807874790,2040
1629807874794,2040
1629807874798,2040
1629807874802,2040
1629807874806,2039
1629807874810,2039
1629807874814,2038
1629807874818,2038
1629807874822,2038
1629807874826,2038
1629807874830,2038
1629807874834,2038
1629807874838,2037
1629807874842,2037
1629807874846,2037
1629807874850,2036
1629807874854,2037
1629807874858,2037
1629807874862,2037
1629807874866,2038
1629807874870,2037
1629807874874,2037
1629807874878,2036
1629807874882,2036
1629807874886,2036
1629807874890,2036
1629807874894,2035
1629807874898,2035
1629807874902,2035
1629807874906,2035
1629807874910,2036
1629807874914,2037
1629807874918,2037
1629807874922,2037
1629807874926,2037
1629807874930,2037
1629807874934,2037
1629807874938,2037
1629807874942,2038
1629807874946,2038
1629807874950,2038
1629807874954,2037
1629807874958,2037
1629807874962,2037
1629807874966,2037
1629807874970,2037
1629807874974,2037
1629807874978,2037
1629807874982,2037
1629807874986,2037
1629807874990,2038
1629807874994,2038
1629807874998,2038
1629807875002,2039
1629807875006,2039
1629807875010,2039
1629807875014,2038
1629807875018,2038
1629807875022,2038
1629807875026,2038
1629807875030,2039
1629807875034,2040
1629807875038,2041
1629807875042,2041
1629807875046,2040
1629807875050,2039
1629807875054,2039
1629807875058,2039
1629807875062,2040
1629807875066,2040
1629807875070,2041
1629807875074,2041
1629807875078,2041
1629807875082,2041
1629807875086,2040
1629807875090,2040
1629807875094,2041
1629807875098,2041
1629807875102,2042
1629807875106,2042
1629807875110,2042
1629807875114,2041
1629807875118,2041
1629807875122,2041
1629807875126,2041
1629807875130,2041
1629807875134,2042
1629807875138,2042
1629807875142,2043
1629807875146,2044
1629807875150,2044
1629807875154,2044
1629807875158,2043
1629807875162,2042
1629807875166,2041
1629807875170,2042
1629807875174,2043
1629807875178,2045
1629807875182,2046
1629807875186,2046
1629807875190,2046
1629807875194,2045
1629807875198,2044
1629807875202,2044
1629807875206,2044
1629807875210,2044
1629807875214,2045
1629807875218,2044
1629807875222,2044
1629807875226,2043
1629807875230,2043
1629807875234,2045
1629807875238,2048
1629807875242,2052
1629807875246,2055
1629807875250,2055
1629807875254,2054
1629807875258,2051
1629807875262,2048
1629807875266,2047
1629807875270,2047
1629807875274,2046
1629807875278,2046
1629807875282,2045
1629807875286,2045
1629807875290,2044
1629807875294,2045
1629807875298,2045
1629807875302,2044
1629807875306,2044
1629807875310,2045
1629807875314,2047
1629807875318,2048
1629807875322,2047
1629807875326,2038
1629807875330,2027
1629807875334,2019
1629807875338,2022
1629807875342,2051
1629807875346,2113
1629807875350,2190
1629807875354,2250
1629807875358,2265
1629807875362,2222
1629807875366,2136
1629807875370,2046
1629807875374,1987
1629807875378,1974
1629807875382,1997
1629807875386,2033
1629807875390,2059
1629807875394,2065
1629807875398,2058
1629807875402,2051
1629807875406,2047
1629807875410,2044
1629807875414,2044
1629807875418,2044
1629807875422,2045
1629807875426,2046
1629807875430,2047
1629807875434,2048
1629807875438,2048
1629807875442,2048
1629807875446,2048
1629807875450,2049
1629807875454,2049
1629807875458,2050
1629807875462,2051
1629807875466,2051
1629807875470,2052
1629807875474,2052
1629807875478,2052
1629807875482,2053
1629807875486,2054
1629807875490,2055
1629807875494,2057
1629807875498,2058
1629807875502,2059
1629807875506,2060
1629807875510,2061
1629807875514,2062
1629807875518,2063
1629807875522,2065
1629807875526,2066
1629807875530,2068
1629807875534,2069
1629807875538,2070
1629807875542,2071
1629807875546,2073
1629807875550,2075
1629807875554,2078
1629807875558,2082
1629807875562,2085
1629807875566,2087
1629807875570,2090
1629807875574,2092
1629807875578,2095
1629807875582,2098
1629807875586,2102
1629807875590,2106
1629807875594,2109
1629807875598,2112
1629807875602,2114
1629807875606,2114
1629807875610,2114
1629807875614,2113
1629807875618,2113
1629807875622,2113
1629807875626,2112
1629807875630,2109
1629807875634,2105
1629807875638,2099
1629807875642,2091
1629807875646,2084
1629807875650,2077
1629807875654,2071
1629807875658,2066
1629807875662,2062
1629807875666,2058
1629807875670,2054
1629807875674,2050
1629807875678,2046
1629807875682,2042
1629807875686,2040
1629807875690,2038
1629807875694,2037
1629807875698,2037
1629807875702,2038
1629807875706,2038
1629807875710,2038
1629807875714,2037
1629807875718,2037
1629807875722,2037
1629807875726,2038
1629807875730,2039
1629807875734,2039
1629807875738,2040
1629807875742,2040
1629807875746,2041
1629807875750,2042
1629807875754,2043
1629807875758,2043
1629807875762,2043
1629807875766,2042
1629807875770,2041
1629807875774,2041
1629807875778,2042
1629807875782,2043
1629807875786,2044
1629807875790,2044
1629807875794,2043
1629807875798,2042
1629807875802,2042
1629807875806,2042
1629807875810,2042
1629807875814,2043
1629807875818,2043
1629807875822,2043
1629807875826,2043
1629807875830,2043
1629807875834,2043
1629807875838,2042
1629807875842,2041
1629807875846,2040
1629807875850,2038
1629807875854,2038
1629807875858,2037
1629807875862,2038
1629807875866,2039
1629807875870,2039
1629807875874,2039
1629807875878,2038
1629807875882,2037
1629807875886,2035
1629807875890,2034
1629807875894,2034
1629807875898,2035
1629807875902,2036
1629807875906,2037
1629807875910,2038
1629807875914,2038
1629807875918,2038
1629807875922,2038
1629807875926,2037
1629807875930,2036
1629807875934,2035
1629807875938,2034
1629807875942,2035
1629807875946,2036
1629807875950,2037
1629807875954,2038
1629807875958,2037
1629807875962,2037
1629807875966,2036
1629807875970,2037
1629807875974,2037
1629807875978,2038
1629807875982,2039
1629807875986,2038
1629807875990,2038
1629807875994,2037
1629807875998,2037
1629807876002,2038
1629807876006,2038
1629807876010,2038
1629807876014,2038
1629807876018,2038
1629807876022,2039
1629807876026,2039
1629807876030,2040
1629807876034,2040
1629807876038,2040
1629807876042,2039
1629807876046,2038
1629807876050,2037
1629807876054,2037
1629807876058,2038
1629807876062,2040
1629807876066,2042
1629807876070,2043
1629807876074,2044
1629807876078,2043
1629807876082,2041
1629807876086,2039
1629807876090,2038
1629807876094,2038
1629807876098,2039
1629807876102,2040
1629807876106,2042
1629807876110,2043
1629807876114,2043
1629807876118,2043
1629807876122,2042
1629807876126,2042
1629807876130,2041
1629807876134,2041
1629807876138,2041
1629807876142,2042
1629807876146,2044
1629807876150,2044
1629807876154,2044
1629807876158,2043
1629807876162,2043
1629807876166,2044
1629807876170,2047
1629807876174,2051
1629807876178,2055
1629807876182,2057
1629807876186,2056
1629807876190,2053
1629807876194,2049
1629807876198,2048
1629807876202,2047
1629807876206,2046
1629807876210,2045
1629807876214,2045
1629807876218,2044
1629807876222,2045
1629807876226,2046
1629807876230,2047
1629807876234,2047
1629807876238,2046
1629807876242,2046
1629807876246,2047
1629807876250,2047
1629807876254,2045
1629807876258,2038
1629807876262,2028
1629807876266,2021
1629807876270,2026
1629807876274,2055
1629807876278,2115
1629807876282,2188
1629807876286,2244
1629807876290,2254
1629807876294,2206
1629807876298,2118
1629807876302,2028
1629807876306,1971
1629807876310,1962
1629807876314,1990
1629807876318,2031
1629807876322,2060
1629807876326,2068
1629807876330,2061
1629807876334,2053
1629807876338,2047
1629807876342,2044
1629807876346,2044
1629807876350,2046
1629807876354,2048
1629807876358,2048
1629807876362,2048
1629807876366,2049
1629807876370,2050
1629807876374,2051
1629807876378,2052
1629807876382,2052
1629807876386,2052
1629807876390,2052
1629807876394,2052
1629807876398,2053
1629807876402,2055
1629807876406,2055
1629807876410,2055
1629807876414,2055
1629807876418,2056
1629807876422,2057
1629807876426,2060
1629807876430,2062
1629807876434,2063
1629807876438,2063
1629807876442,2063
1629807876446,2062
1629807876450,2063
1629807876454,2065
1629807876458,2068
1629807876462,2071
1629807876466,2073
1629807876470,2075
1629807876474,2076
1629807876478,2078
1629807876482,2079
1629807876486,2080
1629807876490,2081
1629807876494,2083
1629807876498,2087
1629807876502,2093
1629807876506,2098
1629807876510,2102
1629807876514,2104
1629807876518,2106
1629807876522,2107
1629807876526,2108
1629807876530,2110
1629807876534,2112
1629807876538,2114
1629807876542,2116
1629807876546,2117
1629807876550,2117
1629807876554,2116
1629807876558,2113
1629807876562,2109
1629807876566,2103
1629807876570,2097
1629807876574,2090
1629807876578,2083
1629807876582,2076
1629807876586,2070
1629807876590,2064
1629807876594,2059
1629807876598,2054
1629807876602,2050
1629807876606,2046
1629807876610,2043
1629807876614,2041
1629807876618,2039
1629807876622,2039
1629807876626,2039
1629807876630,2039
1629807876634,2038
1629807876638,2037
1629807876642,2037
1629807876646,2036
1629807876650,2037
1629807876654,2037
1629807876658,2038
1629807876662,2039
1629807876666,2040
1629807876670,2041
1629807876674,2041
1629807876678,2042
1629807876682,2042
1629807876686,2041
1629807876690,2041
1629807876694,2041
1629807876698,2042
1629807876702,2043
1629807876706,2044
1629807876710,2045
1629807876714,2045
1629807876718,2045
1629807876722,2045
1629807876726,2045
1629807876730,2044
1629807876734,2044
1629807876738,2043
1629807876742,2043
1629807876746,2043
1629807876750,2043
1629807876754,2044
1629807876758,2044
1629807876762,2044
1629807876766,2043
1629807876770,2043
1629807876774,2043
1629807876778,2043
1629807876782,2042
1629807876786,2042
1629807876790,2042
1629807876794,2042
1629807876798,2041
1629807876802,2041
1629807876806,2040
1629807876810,2040
1629807876814,2039
1629807876818,2039
1629807876822,2040
1629807876826,2040
1629807876830,2041
1629807876834,2040
1629807876838,2039
1629807876842,2039
1629807876846,2038
1629807876850,2038
1629807876854,2039
1629807876858,2040
1629807876862,2041
1629807876866,2043
1629807876870,2043
1629807876874,2044
1629807876878,2043
1629807876882,2042
1629807876886,2041
1629807876890,2040
1629807876894,2039
1629807876898,2040
1629807876902,2041
1629807876906,2042
1629807876910,2043
1629807876914,2042
1629807876918,2042
1629807876922,2042
1629807876926,2042
1629807876930,2042
1629807876934,2042
1629807876938,2042
1629807876942,2043
1629807876946,2043
1629807876950,2044
1629807876954,2044
1629807876958,2045
1629807876962,2045
1629807876966,2045
1629807876970,2044
1629807876974,2043
1629807876978,2043
1629807876982,2043
1629807876986,2044
1629807876990,2045
1629807876994,2046
1629807876998,2046
1629807877002,2046
1629807877006,2046
1629807877010,2045
1629807877014,2045
1629807877018,2045
1629807877022,2045
1629807877026,2046
1629807877030,2047
1629807877034,2047
1629807877038,2048
1629807877042,2048
1629807877046,2047
1629807877050,2047
1629807877054,2046
1629807877058,2046
1629807877062,2045
1629807877066,2043
1629807877070,2043
1629807877074,2044
1629807877078,2047
1629807877082,2051
1629807877086,2054
1629807877090,2056
1629807877094,2056
1629807877098,2054
1629807877102,2051
1629807877106,2049
1629807877110,2048
1629807877114,2048
1629807877118,2047
1629807877122,2046
1629807877126,2046
1629807877130,2046
1629807877134,2046
1629807877138,2047
1629807877142,2048
1629807877146,2048
1629807877150,2048
1629807877154,2050
1629807877158,2051
1629807877162,2049
1629807877166,2043
1629807877170,2032
1629807877174,2023
1629807877178,2022
1629807877182,2042
1629807877186,2093
1629807877190,2169
1629807877194,2242
1629807877198,2279
1629807877202,2259
1629807877206,2185
1629807877210,2088
1629807877214,2013
1629807877218,1981
1629807877222,1995
1629807877226,2030
1629807877230,2061
1629807877234,2074
1629807877238,2067
1629807877242,2056
1629807877246,2048
1629807877250,2046
1629807877254,2045
1629807877258,2046
1629807877262,2048
1629807877266,2048
1629807877270,2048
1629807877274,2049
1629807877278,2049
1629807877282,2049
1629807877286,2049
1629807877290,2049
1629807877294,2050
1629807877298,2051
1629807877302,2052
1629807877306,2054
1629807877310,2055
1629807877314,2056
1629807877318,2056
1629807877322,2056
1629807877326,2056
1629807877330,2057
1629807877334,2058
1629807877338,2059
1629807877342,2060
1629807877346,2061
1629807877350,2062
1629807877354,2063
1629807877358,2064
1629807877362,2065
1629807877366,2066
1629807877370,2068
1629807877374,2069
1629807877378,2071
1629807877382,2073
1629807877386,2075
1629807877390,2078
1629807877394,2080
1629807877398,2082
1629807877402,2084
1629807877406,2086
1629807877410,2089
1629807877414,2091
1629807877418,2094
1629807877422,2097
1629807877426,2101
1629807877430,2105
1629807877434,2108
1629807877438,2111
1629807877442,2112
1629807877446,2113
1629807877450,2113
1629807877454,2113
1629807877458,2113
1629807877462,2113
1629807877466,2111
1629807877470,2108
1629807877474,2104
1629807877478,2099
1629807877482,2093
1629807877486,2085
1629807877490,2078
1629807877494,2071
1629807877498,2064
1629807877502,2059
1629807877506,2055
1629807877510,2051
1629807877514,2048
1629807877518,2047
1629807877522,2045
1629807877526,2043
1629807877530,2041
1629807877534,2040
1629807877538,2039
1629807877542,2038
1629807877546,2038
1629807877550,2038
1629807877554,2038
1629807877558,2038
1629807877562,2038
1629807877566,2038
1629807877570,2038
1629807877574,2038
1629807877578,2038
1629807877582,2039
1629807877586,2039
1629807877590,2040
1629807877594,2041
1629807877598,2041
1629807877602,2042
1629807877606,2043
1629807877610,2043
1629807877614,2043
1629807877618,2043
1629807877622,2044
1629807877626,2045
1629807877630,2046
1629807877634,2046
1629807877638,2046
1629807877642,2046
1629807877646,2046
1629807877650,2045
1629807877654,2045
1629807877658,2045
1629807877662,2045
1629807877666,2045
1629807877670,2045
1629807877674,2045
1629807877678,2044
1629807877682,2044
1629807877686,2043
1629807877690,2042
1629807877694,2041
1629807877698,2041
1629807877702,2041
1629807877706,2041
1629807877710,2041
1629807877714,2041
1629807877718,2040
1629807877722,2039
1629807877726,2038
1629807877730,2039
1629807877734,2040
1629807877738,2041
1629807877742,2041
1629807877746,2041
1629807877750,2041
1629807877754,2040
1629807877758,2039
1629807877762,2039
1629807877766,2039
1629807877770,2039
1629807877774,2039
1629807877778,2039
1629807877782,2039
1629807877786,2040
1629807877790,2040
1629807877794,2041
1629807877798,2041
1629807877802,2041
1629807877806,2041
1629807877810,2041
1629807877814,2041
1629807877818,2041
1629807877822,2041
1629807877826,2041
1629807877830,2041
1629807877834,2042
1629807877838,2042
1629807877842,2042
1629807877846,2042
1629807877850,2042
1629807877854,2042
1629807877858,2042
1629807877862,2043
1629807877866,2042
1629807877870,2042
1629807877874,2042
1629807877878,2042
1629807877882,2042
1629807877886,2041
1629807877890,2041
1629807877894,2041
1629807877898,2042
1629807877902,2042
1629807877906,2043
1629807877910,2043
1629807877914,2043
1629807877918,2043
1629807877922,2043
1629807877926,2043
1629807877930,2042
1629807877934,2043
1629807877938,2043
1629807877942,2043
1629807877946,2044
1629807877950,2045
1629807877954,2046
1629807877958,2046
1629807877962,2046
1629807877966,2045
1629807877970,2045
1629807877974,2044
1629807877978,2044
1629807877982,2043
1629807877986,2044
1629807877990,2044
1629807877994,2044
1629807877998,2044
1629807878002,2044
1629807878006,2045
1629807878010,2047
1629807878014,2051
1629807878018,2055
1629807878022,2058
1629807878026,2058
1629807878030,2055
1629807878034,2052
1629807878038,2049
1629807878042,2047
1629807878046,2046
1629807878050,2046
1629807878054,2046
1629807878058,2046
1629807878062,2046
1629807878066,2047
1629807878070,2047
1629807878074,2047
1629807878078,2047
1629807878082,2047
1629807878086,2048
1629807878090,2049
1629807878094,2048
1629807878098,2045
1629807878102,2035
1629807878106,2025
1629807878110,2020
1629807878114,2031
1629807878118,2069
1629807878122,2140
1629807878126,2224
1629807878130,2289
1629807878134,2304
1629807878138,2259
1629807878142,2171
1629807878146,2080
1629807878150,2024
1629807878154,2012
1629807878158,2031
1629807878162,2057
1629807878166,2070
1629807878170,2064
1629807878174,2051
1629807878178,2044
1629807878182,2042
1629807878186,2042
1629807878190,2044
1629807878194,2045
1629807878198,2045
1629807878202,2045
1629807878206,2045
1629807878210,2045
1629807878214,2045
1629807878218,2045
1629807878222,2046
1629807878226,2048
1629807878230,2048
1629807878234,2049
1629807878238,2050
1629807878242,2050
1629807878246,2049
1629807878250,2050
1629807878254,2051
1629807878258,2052
1629807878262,2054
1629807878266,2055
1629807878270,2056
1629807878274,2057
1629807878278,2057
1629807878282,2057
1629807878286,2058
1629807878290,2058
1629807878294,2060
1629807878298,2061
1629807878302,2063
1629807878306,2065
1629807878310,2067
1629807878314,2069
1629807878318,2071
1629807878322,2073
1629807878326,2074
1629807878330,2075
1629807878334,2077
1629807878338,2080
1629807878342,2084
1629807878346,2087
1629807878350,2090
1629807878354,2092
1629807878358,2094
1629807878362,2097
1629807878366,2099
1629807878370,2102
1629807878374,2105
1629807878378,2107
1629807878382,2109
1629807878386,2111
1629807878390,2112
1629807878394,2112
1629807878398,2111
1629807878402,2109
1629807878406,2104
1629807878410,2098
