timestamp,ecg_waveform
1629800379778,2031
1629800379782,2032
1629800379786,2033
1629800379790,2032
1629800379794,2032
1629800379798,2031
1629800379802,2030
1629800379806,2029
1629800379810,2029
1629800379814,2028
1629800379818,2028
1629800379822,2028
1629800379826,2028
1629800379830,2028
1629800379834,2028
1629800379838,2028
1629800379842,2029
1629800379846,2029
1629800379850,2029
1629800379854,2030
1629800379858,2030
1629800379862,2030
1629800379866,2030
1629800379870,2029
1629800379874,2029
1629800379878,2028
1629800379882,2028
1629800379886,2028
1629800379890,2028
1629800379894,2028
1629800379898,2028
1629800379902,2027
1629800379906,2025
1629800379910,2024
1629800379914,2023
1629800379918,2022
1629800379922,2022
1629800379926,2021
1629800379930,2021
1629800379934,2020
1629800379938,2020
1629800379942,2021
1629800379946,2021
1629800379950,2020
1629800379954,2019
1629800379958,2017
1629800379962,2015
1629800379966,2015
1629800379970,2015
1629800379974,2015
1629800379978,2014
1629800379982,2014
1629800379986,2013
1629800379990,2013
1629800379994,2014
1629800379998,2015
1629800380002,2016
1629800380006,2017
1629800380010,2018
1629800380014,2018
1629800380018,2017
1629800380022,2017
1629800380026,2015
1629800380030,2014
1629800380034,2013
1629800380038,2012
1629800380042,2011
1629800380046,2009
1629800380050,2007
1629800380054,2006
1629800380058,2007
1629800380062,2009
1629800380066,2011
1629800380070,2013
1629800380074,2014
1629800380078,2010
1629800380082,1998
1629800380086,1977
1629800380090,1949
1629800380094,1924
1629800380098,1910
1629800380102,1916
1629800380106,1939
1629800380110,1972
1629800380114,2003
1629800380118,2025
1629800380122,2034
1629800380126,2034
1629800380130,2029
1629800380134,2024
1629800380138,2020
1629800380142,2017
1629800380146,2015
1629800380150,2015
1629800380154,2015
1629800380158,2015
1629800380162,2015
1629800380166,2016
1629800380170,2018
1629800380174,2021
1629800380178,2023
1629800380182,2024
1629800380186,2024
1629800380190,2023
1629800380194,2022
1629800380198,2020
1629800380202,2019
1629800380206,2017
1629800380210,2017
1629800380214,2016
1629800380218,2015
1629800380222,2014
1629800380226,2013
1629800380230,2012
1629800380234,2011
1629800380238,2009
1629800380242,2008
1629800380246,2007
1629800380250,2007
1629800380254,2006
1629800380258,2006
1629800380262,2004
1629800380266,2003
1629800380270,2001
1629800380274,1999
1629800380278,1997
1629800380282,1995
1629800380286,1993
1629800380290,1993
1629800380294,1993
1629800380298,1994
1629800380302,1994
1629800380306,1993
1629800380310,1991
1629800380314,1989
1629800380318,1988
1629800380322,1989
1629800380326,1991
1629800380330,1994
1629800380334,1996
1629800380338,1998
1629800380342,2000
1629800380346,2002
1629800380350,2004
1629800380354,2006
1629800380358,2007
1629800380362,2007
1629800380366,2008
1629800380370,2009
1629800380374,2011
1629800380378,2014
1629800380382,2016
1629800380386,2019
1629800380390,2019
1629800380394,2019
1629800380398,2017
1629800380402,2015
1629800380406,2014
1629800380410,2015
1629800380414,2017
1629800380418,2018
1629800380422,2018
1629800380426,2016
1629800380430,2012
1629800380434,2010
1629800380438,2009
1629800380442,2009
1629800380446,2011
1629800380450,2012
1629800380454,2013
1629800380458,2014
1629800380462,2013
1629800380466,2012
1629800380470,2011
1629800380474,2011
1629800380478,2010
1629800380482,2009
1629800380486,2009
1629800380490,2009
1629800380494,2010
1629800380498,2010
1629800380502,2011
1629800380506,2011
1629800380510,2012
1629800380514,2013
1629800380518,2014
1629800380522,2015
1629800380526,2015
1629800380530,2015
1629800380534,2014
1629800380538,2014
1629800380542,2014
1629800380546,2013
1629800380550,2013
1629800380554,2012
1629800380558,2012
1629800380562,2012
1629800380566,2013
1629800380570,2014
1629800380574,2015
1629800380578,2015
1629800380582,2015
1629800380586,2015
1629800380590,2016
1629800380594,2018
1629800380598,2018
1629800380602,2018
1629800380606,2017
1629800380610,2014
1629800380614,2013
1629800380618,2012
1629800380622,2012
1629800380626,2013
1629800380630,2013
1629800380634,2013
1629800380638,2013
1629800380642,2013
1629800380646,2015
1629800380650,2017
1629800380654,2020
1629800380658,2023
1629800380662,2024
1629800380666,2024
1629800380670,2024
1629800380674,2024
1629800380678,2024
1629800380682,2025
1629800380686,2026
1629800380690,2027
1629800380694,2027
1629800380698,2025
1629800380702,2024
1629800380706,2023
1629800380710,2023
1629800380714,2025
1629800380718,2027
1629800380722,2030
1629800380726,2032
1629800380730,2031
1629800380734,2020
1629800380738,1999
1629800380742,1969
1629800380746,1940
1629800380750,1924
1629800380754,1929
1629800380758,1953
1629800380762,1987
1629800380766,2019
1629800380770,2039
1629800380774,2046
1629800380778,2044
1629800380782,2039
1629800380786,2035
1629800380790,2033
1629800380794,2032
1629800380798,2031
1629800380802,2030
1629800380806,2030
1629800380810,2030
1629800380814,2031
1629800380818,2031
1629800380822,2031
1629800380826,2031
1629800380830,2031
1629800380834,2031
1629800380838,2030
1629800380842,2030
1629800380846,2030
1629800380850,2030
1629800380854,2030
1629800380858,2030
1629800380862,2030
1629800380866,2030
1629800380870,2029
1629800380874,2028
1629800380878,2027
1629800380882,2028
1629800380886,2028
1629800380890,2028
1629800380894,2029
1629800380898,2029
1629800380902,2029
1629800380906,2029
1629800380910,2028
1629800380914,2026
1629800380918,2025
1629800380922,2023
1629800380926,2023
1629800380930,2022
1629800380934,2022
1629800380938,2022
1629800380942,2021
1629800380946,2020
1629800380950,2018
1629800380954,2017
1629800380958,2016
1629800380962,2016
1629800380966,2017
1629800380970,2018
1629800380974,2020
1629800380978,2021
1629800380982,2022
1629800380986,2024
1629800380990,2026
1629800380994,2029
1629800380998,2032
1629800381002,2035
1629800381006,2037
1629800381010,2039
1629800381014,2040
1629800381018,2040
1629800381022,2041
1629800381026,2041
1629800381030,2042
1629800381034,2043
1629800381038,2044
1629800381042,2044
1629800381046,2045
1629800381050,2045
1629800381054,2046
1629800381058,2046
1629800381062,2046
1629800381066,2046
1629800381070,2047
1629800381074,2047
1629800381078,2048
1629800381082,2048
1629800381086,2049
1629800381090,2050
1629800381094,2052
1629800381098,2052
1629800381102,2051
1629800381106,2049
1629800381110,2048
1629800381114,2046
1629800381118,2045
1629800381122,2045
1629800381126,2045
1629800381130,2046
1629800381134,2047
1629800381138,2047
1629800381142,2047
1629800381146,2047
1629800381150,2046
1629800381154,2046
1629800381158,2045
1629800381162,2045
1629800381166,2046
1629800381170,2046
1629800381174,2047
1629800381178,2047
1629800381182,2047
1629800381186,2048
1629800381190,2048
1629800381194,2048
1629800381198,2048
1629800381202,2048
1629800381206,2048
1629800381210,2048
1629800381214,2049
1629800381218,2050
1629800381222,2050
1629800381226,2049
1629800381230,2048
1629800381234,2048
1629800381238,2047
1629800381242,2047
1629800381246,2048
1629800381250,2048
1629800381254,2048
1629800381258,2049
1629800381262,2050
1629800381266,2050
1629800381270,2049
1629800381274,2048
1629800381278,2047
1629800381282,2046
1629800381286,2047
1629800381290,2047
1629800381294,2048
1629800381298,2048
1629800381302,2048
1629800381306,2048
1629800381310,2048
1629800381314,2050
1629800381318,2052
1629800381322,2053
1629800381326,2054
1629800381330,2054
1629800381334,2053
1629800381338,2052
1629800381342,2051
1629800381346,2050
1629800381350,2051
1629800381354,2051
1629800381358,2052
1629800381362,2052
1629800381366,2053
1629800381370,2054
1629800381374,2056
1629800381378,2057
1629800381382,2059
1629800381386,2061
1629800381390,2062
1629800381394,2060
1629800381398,2049
1629800381402,2027
1629800381406,1996
1629800381410,1968
1629800381414,1954
1629800381418,1960
1629800381422,1985
1629800381426,2018
1629800381430,2047
1629800381434,2064
1629800381438,2069
1629800381442,2068
1629800381446,2064
1629800381450,2063
1629800381454,2062
1629800381458,2062
1629800381462,2061
1629800381466,2061
1629800381470,2060
1629800381474,2059
1629800381478,2058
1629800381482,2057
1629800381486,2056
1629800381490,2057
1629800381494,2058
1629800381498,2059
1629800381502,2060
1629800381506,2059
1629800381510,2058
1629800381514,2056
1629800381518,2055
1629800381522,2054
1629800381526,2054
1629800381530,2055
1629800381534,2055
1629800381538,2055
1629800381542,2055
1629800381546,2055
1629800381550,2055
1629800381554,2054
1629800381558,2054
1629800381562,2053
1629800381566,2052
1629800381570,2052
1629800381574,2051
1629800381578,2051
1629800381582,2051
1629800381586,2051
1629800381590,2050
1629800381594,2048
1629800381598,2045
1629800381602,2042
1629800381606,2040
1629800381610,2039
1629800381614,2039
1629800381618,2039
1629800381622,2040
1629800381626,2040
1629800381630,2040
1629800381634,2040
1629800381638,2040
1629800381642,2040
1629800381646,2042
1629800381650,2044
1629800381654,2046
1629800381658,2048
1629800381662,2051
1629800381666,2054
1629800381670,2056
1629800381674,2058
1629800381678,2059
1629800381682,2060
1629800381686,2060
1629800381690,2060
1629800381694,2061
1629800381698,2061
1629800381702,2063
1629800381706,2064
1629800381710,2064
1629800381714,2063
1629800381718,2061
1629800381722,2059
1629800381726,2057
1629800381730,2056
1629800381734,2057
1629800381738,2058
1629800381742,2059
1629800381746,2060
1629800381750,2060
1629800381754,2059
1629800381758,2058
1629800381762,2058
1629800381766,2058
1629800381770,2058
1629800381774,2059
1629800381778,2059
1629800381782,2059
1629800381786,2058
1629800381790,2057
1629800381794,2055
1629800381798,2054
1629800381802,2054
1629800381806,2054
1629800381810,2054
1629800381814,2054
1629800381818,2054
1629800381822,2054
1629800381826,2054
1629800381830,2054
1629800381834,2054
1629800381838,2054
1629800381842,2054
1629800381846,2053
1629800381850,2053
1629800381854,2052
1629800381858,2053
1629800381862,2053
1629800381866,2053
1629800381870,2053
1629800381874,2053
1629800381878,2053
1629800381882,2054
1629800381886,2054
1629800381890,2054
1629800381894,2054
1629800381898,2054
1629800381902,2054
1629800381906,2054
1629800381910,2055
1629800381914,2055
1629800381918,2055
1629800381922,2054
1629800381926,2053
1629800381930,2054
1629800381934,2055
1629800381938,2057
1629800381942,2057
1629800381946,2056
1629800381950,2055
1629800381954,2053
1629800381958,2052
1629800381962,2052
1629800381966,2053
1629800381970,2055
1629800381974,2058
1629800381978,2060
1629800381982,2061
1629800381986,2060
1629800381990,2058
1629800381994,2056
1629800381998,2056
1629800382002,2057
1629800382006,2059
1629800382010,2061
1629800382014,2062
1629800382018,2061
1629800382022,2059
1629800382026,2058
1629800382030,2056
1629800382034,2056
1629800382038,2055
1629800382042,2055
1629800382046,2056
1629800382050,2055
1629800382054,2055
1629800382058,2056
1629800382062,2056
1629800382066,2058
1629800382070,2060
1629800382074,2063
1629800382078,2064
1629800382082,2065
1629800382086,2065
1629800382090,2065
1629800382094,2066
1629800382098,2067
1629800382102,2068
1629800382106,2069
1629800382110,2069
1629800382114,2069
1629800382118,2068
1629800382122,2067
1629800382126,2068
1629800382130,2069
1629800382134,2071
1629800382138,2073
1629800382142,2073
1629800382146,2065
1629800382150,2047
1629800382154,2017
1629800382158,1985
1629800382162,1964
1629800382166,1962
1629800382170,1981
1629800382174,2014
1629800382178,2047
1629800382182,2069
1629800382186,2080
1629800382190,2080
1629800382194,2077
1629800382198,2073
1629800382202,2070
1629800382206,2068
1629800382210,2066
1629800382214,2066
1629800382218,2067
1629800382222,2068
1629800382226,2069
1629800382230,2069
1629800382234,2068
1629800382238,2067
1629800382242,2067
1629800382246,2068
1629800382250,2068
1629800382254,2069
1629800382258,2070
1629800382262,2071
1629800382266,2071
1629800382270,2072
1629800382274,2073
1629800382278,2073
1629800382282,2074
1629800382286,2075
1629800382290,2077
1629800382294,2078
1629800382298,2080
1629800382302,2081
1629800382306,2083
1629800382310,2084
1629800382314,2084
1629800382318,2084
1629800382322,2085
1629800382326,2087
1629800382330,2090
1629800382334,2094
1629800382338,2096
1629800382342,2097
1629800382346,2095
1629800382350,2093
1629800382354,2091
1629800382358,2091
1629800382362,2091
1629800382366,2093
1629800382370,2096
1629800382374,2099
1629800382378,2103
1629800382382,2108
1629800382386,2112
1629800382390,2116
1629800382394,2118
1629800382398,2120
1629800382402,2123
1629800382406,2126
1629800382410,2129
1629800382414,2132
1629800382418,2133
1629800382422,2133
1629800382426,2133
1629800382430,2133
1629800382434,2133
1629800382438,2132
1629800382442,2127
1629800382446,2117
1629800382450,2104
1629800382454,2090
1629800382458,2079
1629800382462,2072
1629800382466,2067
1629800382470,2063
1629800382474,2059
1629800382478,2054
1629800382482,2049
1629800382486,2046
1629800382490,2042
1629800382494,2040
1629800382498,2038
1629800382502,2036
1629800382506,2034
1629800382510,2030
1629800382514,2026
1629800382518,2022
1629800382522,2018
1629800382526,2015
1629800382530,2011
1629800382534,2008
1629800382538,2005
1629800382542,2001
1629800382546,1998
1629800382550,1995
1629800382554,1993
1629800382558,1992
1629800382562,1991
1629800382566,1990
1629800382570,1989
1629800382574,1989
1629800382578,1989
1629800382582,1990
1629800382586,1990
1629800382590,1990
1629800382594,1989
1629800382598,1988
1629800382602,1986
1629800382606,1985
1629800382610,1984
1629800382614,1982
1629800382618,1981
1629800382622,1980
1629800382626,1980
1629800382630,1978
1629800382634,1977
1629800382638,1975
1629800382642,1973
1629800382646,1973
1629800382650,1973
1629800382654,1974
1629800382658,1975
1629800382662,1976
1629800382666,1977
1629800382670,1977
1629800382674,1977
1629800382678,1978
1629800382682,1978
1629800382686,1979
1629800382690,1980
1629800382694,1982
1629800382698,1983
1629800382702,1984
1629800382706,1984
1629800382710,1985
1629800382714,1985
1629800382718,1985
1629800382722,1985
1629800382726,1985
1629800382730,1986
1629800382734,1987
1629800382738,1988
1629800382742,1990
1629800382746,1990
1629800382750,1990
1629800382754,1990
1629800382758,1988
1629800382762,1987
1629800382766,1985
1629800382770,1985
1629800382774,1986
1629800382778,1987
1629800382782,1989
1629800382786,1990
1629800382790,1990
1629800382794,1991
1629800382798,1991
1629800382802,1993
1629800382806,1994
1629800382810,1996
1629800382814,1999
1629800382818,2001
1629800382822,2002
1629800382826,2003
1629800382830,2002
1629800382834,2002
1629800382838,2001
1629800382842,2001
1629800382846,2001
1629800382850,2001
1629800382854,2001
1629800382858,2001
1629800382862,2001
1629800382866,2002
1629800382870,2004
1629800382874,2006
1629800382878,2007
1629800382882,2006
1629800382886,1997
1629800382890,1976
1629800382894,1947
1629800382898,1918
1629800382902,1900
1629800382906,1902
1629800382910,1923
1629800382914,1956
1629800382918,1988
1629800382922,2009
1629800382926,2018
1629800382930,2019
1629800382934,2017
1629800382938,2015
1629800382942,2015
1629800382946,2014
1629800382950,2014
1629800382954,2013
1629800382958,2013
1629800382962,2013
1629800382966,2014
1629800382970,2015
1629800382974,2016
1629800382978,2016
1629800382982,2016
1629800382986,2015
1629800382990,2014
1629800382994,2013
1629800382998,2013
1629800383002,2013
1629800383006,2013
1629800383010,2013
1629800383014,2013
1629800383018,2014
1629800383022,2015
1629800383026,2015
1629800383030,2015
1629800383034,2015
1629800383038,2014
1629800383042,2014
1629800383046,2013
1629800383050,2013
1629800383054,2013
1629800383058,2013
1629800383062,2013
1629800383066,2013
1629800383070,2012
1629800383074,2012
1629800383078,2011
1629800383082,2010
1629800383086,2009
1629800383090,2008
1629800383094,2008
1629800383098,2009
1629800383102,2009
1629800383106,2009
1629800383110,2008
1629800383114,2008
1629800383118,2008
1629800383122,2008
1629800383126,2009
1629800383130,2011
1629800383134,2013
1629800383138,2016
1629800383142,2019
1629800383146,2021
1629800383150,2024
1629800383154,2026
1629800383158,2028
1629800383162,2031
1629800383166,2034
1629800383170,2037
1629800383174,2039
1629800383178,2041
1629800383182,2043
1629800383186,2043
1629800383190,2044
1629800383194,2044
1629800383198,2044
1629800383202,2045
1629800383206,2046
1629800383210,2046
1629800383214,2047
1629800383218,2047
1629800383222,2048
1629800383226,2048
1629800383230,2048
1629800383234,2048
1629800383238,2048
1629800383242,2048
1629800383246,2048
1629800383250,2048
1629800383254,2049
1629800383258,2049
1629800383262,2049
1629800383266,2049
1629800383270,2049
1629800383274,2049
1629800383278,2048
1629800383282,2048
1629800383286,2048
1629800383290,2049
1629800383294,2050
1629800383298,2050
1629800383302,2050
1629800383306,2050
1629800383310,2050
1629800383314,2049
1629800383318,2049
1629800383322,2049
1629800383326,2049
1629800383330,2050
1629800383334,2051
1629800383338,2052
1629800383342,2052
1629800383346,2052
1629800383350,2052
1629800383354,2052
1629800383358,2052
1629800383362,2052
1629800383366,2053
1629800383370,2053
1629800383374,2054
1629800383378,2054
1629800383382,2054
1629800383386,2054
1629800383390,2054
1629800383394,2054
1629800383398,2054
1629800383402,2054
1629800383406,2054
1629800383410,2054
1629800383414,2055
1629800383418,2055
1629800383422,2056
1629800383426,2057
1629800383430,2057
1629800383434,2057
1629800383438,2056
1629800383442,2056
1629800383446,2056
1629800383450,2056
1629800383454,2057
1629800383458,2058
1629800383462,2059
1629800383466,2059
1629800383470,2058
1629800383474,2058
1629800383478,2057
1629800383482,2056
1629800383486,2056
1629800383490,2057
1629800383494,2058
1629800383498,2059
1629800383502,2059
1629800383506,2059
1629800383510,2059
1629800383514,2057
1629800383518,2056
1629800383522,2054
1629800383526,2054
1629800383530,2054
1629800383534,2055
1629800383538,2055
1629800383542,2056
1629800383546,2056
1629800383550,2057
1629800383554,2058
1629800383558,2060
1629800383562,2061
1629800383566,2062
1629800383570,2062
1629800383574,2062
1629800383578,2063
1629800383582,2063
1629800383586,2064
1629800383590,2064
1629800383594,2064
1629800383598,2063
1629800383602,2063
1629800383606,2063
1629800383610,2064
1629800383614,2064
1629800383618,2065
1629800383622,2066
1629800383626,2068
1629800383630,2068
1629800383634,2063
1629800383638,2048
1629800383642,2022
1629800383646,1989
1629800383650,1963
1629800383654,1953
1629800383658,1966
1629800383662,1996
1629800383666,2032
1629800383670,2060
1629800383674,2077
1629800383678,2082
1629800383682,2079
1629800383686,2076
1629800383690,2073
1629800383694,2072
1629800383698,2070
1629800383702,2069
1629800383706,2068
1629800383710,2067
1629800383714,2067
1629800383718,2066
1629800383722,2066
1629800383726,2067
1629800383730,2067
1629800383734,2068
1629800383738,2068
1629800383742,2067
1629800383746,2067
1629800383750,2066
1629800383754,2065
1629800383758,2065
1629800383762,2064
1629800383766,2064
1629800383770,2064
1629800383774,2064
1629800383778,2063
1629800383782,2063
1629800383786,2062
1629800383790,2062
1629800383794,2061
1629800383798,2060
1629800383802,2059
1629800383806,2059
1629800383810,2058
1629800383814,2058
1629800383818,2057
1629800383822,2056
1629800383826,2054
1629800383830,2053
1629800383834,2052
1629800383838,2051
1629800383842,2049
1629800383846,2048
1629800383850,2047
1629800383854,2047
1629800383858,2047
1629800383862,2048
1629800383866,2048
1629800383870,2048
1629800383874,2047
1629800383878,2047
1629800383882,2048
1629800383886,2048
1629800383890,2050
1629800383894,2053
1629800383898,2055
1629800383902,2058
1629800383906,2060
1629800383910,2062
1629800383914,2063
1629800383918,2064
1629800383922,2065
1629800383926,2066
1629800383930,2068
1629800383934,2069
1629800383938,2069
1629800383942,2070
1629800383946,2070
1629800383950,2070
1629800383954,2070
1629800383958,2070
1629800383962,2070
1629800383966,2070
1629800383970,2070
1629800383974,2071
1629800383978,2072
1629800383982,2072
1629800383986,2072
1629800383990,2072
1629800383994,2072
1629800383998,2072
1629800384002,2072
1629800384006,2072
1629800384010,2071
1629800384014,2071
1629800384018,2071
1629800384022,2071
1629800384026,2071
1629800384030,2070
1629800384034,2069
1629800384038,2068
1629800384042,2068
1629800384046,2068
1629800384050,2068
1629800384054,2069
1629800384058,2069
1629800384062,2069
1629800384066,2069
1629800384070,2069
1629800384074,2068
1629800384078,2068
1629800384082,2067
1629800384086,2067
1629800384090,2067
1629800384094,2068
1629800384098,2068
1629800384102,2068
1629800384106,2068
1629800384110,2068
1629800384114,2068
1629800384118,2068
1629800384122,2068
1629800384126,2069
1629800384130,2070
1629800384134,2071
1629800384138,2071
1629800384142,2072
1629800384146,2072
1629800384150,2072
1629800384154,2071
1629800384158,2071
1629800384162,2070
1629800384166,2070
1629800384170,2069
1629800384174,2070
1629800384178,2070
1629800384182,2070
1629800384186,2071
1629800384190,2071
1629800384194,2071
1629800384198,2071
1629800384202,2071
1629800384206,2071
1629800384210,2070
1629800384214,2069
1629800384218,2067
1629800384222,2067
1629800384226,2066
1629800384230,2066
1629800384234,2066
1629800384238,2065
1629800384242,2065
1629800384246,2065
1629800384250,2067
1629800384254,2068
1629800384258,2070
1629800384262,2072
1629800384266,2073
1629800384270,2074
1629800384274,2073
1629800384278,2073
1629800384282,2072
1629800384286,2072
1629800384290,2073
1629800384294,2073
1629800384298,2073
1629800384302,2073
1629800384306,2072
1629800384310,2072
1629800384314,2073
1629800384318,2073
1629800384322,2075
1629800384326,2076
1629800384330,2075
1629800384334,2067
1629800384338,2048
1629800384342,2018
1629800384346,1987
1629800384350,1966
1629800384354,1965
1629800384358,1986
1629800384362,2020
1629800384366,2055
1629800384370,2080
1629800384374,2092
1629800384378,2093
1629800384382,2089
1629800384386,2085
1629800384390,2081
1629800384394,2078
1629800384398,2075
1629800384402,2074
1629800384406,2074
1629800384410,2075
1629800384414,2076
1629800384418,2076
1629800384422,2075
1629800384426,2074
1629800384430,2073
1629800384434,2072
1629800384438,2071
1629800384442,2071
1629800384446,2071
1629800384450,2071
1629800384454,2071
1629800384458,2071
1629800384462,2070
1629800384466,2070
1629800384470,2069
1629800384474,2069
1629800384478,2068
1629800384482,2067
1629800384486,2067
1629800384490,2066
1629800384494,2066
1629800384498,2066
1629800384502,2065
1629800384506,2064
1629800384510,2063
1629800384514,2062
1629800384518,2060
1629800384522,2059
1629800384526,2058
1629800384530,2057
1629800384534,2056
1629800384538,2056
1629800384542,2055
1629800384546,2054
1629800384550,2053
1629800384554,2052
1629800384558,2051
1629800384562,2051
1629800384566,2050
1629800384570,2050
1629800384574,2051
1629800384578,2052
1629800384582,2053
1629800384586,2055
1629800384590,2057
1629800384594,2059
1629800384598,2061
1629800384602,2063
1629800384606,2065
1629800384610,2067
1629800384614,2068
1629800384618,2070
1629800384622,2071
1629800384626,2073
1629800384630,2074
1629800384634,2074
1629800384638,2074
1629800384642,2074
1629800384646,2073
1629800384650,2074
1629800384654,2074
1629800384658,2075
1629800384662,2075
1629800384666,2075
1629800384670,2075
1629800384674,2074
1629800384678,2074
1629800384682,2074
1629800384686,2074
1629800384690,2074
1629800384694,2074
1629800384698,2074
1629800384702,2075
1629800384706,2075
1629800384710,2074
1629800384714,2074
1629800384718,2073
1629800384722,2072
1629800384726,2071
1629800384730,2071
1629800384734,2071
1629800384738,2071
1629800384742,2072
1629800384746,2072
1629800384750,2071
1629800384754,2071
1629800384758,2070
1629800384762,2070
1629800384766,2070
1629800384770,2070
1629800384774,2070
1629800384778,2070
1629800384782,2070
1629800384786,2070
1629800384790,2069
1629800384794,2069
1629800384798,2068
1629800384802,2068
1629800384806,2068
1629800384810,2068
1629800384814,2069
1629800384818,2069
1629800384822,2070
1629800384826,2070
1629800384830,2070
1629800384834,2069
1629800384838,2069
1629800384842,2069
1629800384846,2068
1629800384850,2068
1629800384854,2069
1629800384858,2069
1629800384862,2069
1629800384866,2070
1629800384870,2069
1629800384874,2069
1629800384878,2069
1629800384882,2068
1629800384886,2068
1629800384890,2068
1629800384894,2068
1629800384898,2068
1629800384902,2068
1629800384906,2068
1629800384910,2068
1629800384914,2068
1629800384918,2068
1629800384922,2067
1629800384926,2066
1629800384930,2065
1629800384934,2064
1629800384938,2063
1629800384942,2063
1629800384946,2062
1629800384950,2062
1629800384954,2062
1629800384958,2062
1629800384962,2062
1629800384966,2062
1629800384970,2063
1629800384974,2065
1629800384978,2067
1629800384982,2069
1629800384986,2070
1629800384990,2070
1629800384994,2069
1629800384998,2069
1629800385002,2069
1629800385006,2069
1629800385010,2069
1629800385014,2069
1629800385018,2069
1629800385022,2070
1629800385026,2069
1629800385030,2069
1629800385034,2069
1629800385038,2070
1629800385042,2071
1629800385046,2072
1629800385050,2069
1629800385054,2056
1629800385058,2033
1629800385062,2001
1629800385066,1973
1629800385070,1960
1629800385074,1968
1629800385078,1994
1629800385082,2029
1629800385086,2058
1629800385090,2076
1629800385094,2083
1629800385098,2082
1629800385102,2079
1629800385106,2076
1629800385110,2074
1629800385114,2072
1629800385118,2070
1629800385122,2069
1629800385126,2069
1629800385130,2070
1629800385134,2070
1629800385138,2070
1629800385142,2070
1629800385146,2069
1629800385150,2069
1629800385154,2068
1629800385158,2067
1629800385162,2067
1629800385166,2066
1629800385170,2066
1629800385174,2066
1629800385178,2066
1629800385182,2066
1629800385186,2065
1629800385190,2065
1629800385194,2064
1629800385198,2064
1629800385202,2063
1629800385206,2062
1629800385210,2062
1629800385214,2061
1629800385218,2061
1629800385222,2061
1629800385226,2060
1629800385230,2060
1629800385234,2058
1629800385238,2057
1629800385242,2055
1629800385246,2054
1629800385250,2052
1629800385254,2052
1629800385258,2051
1629800385262,2051
1629800385266,2050
1629800385270,2049
1629800385274,2048
1629800385278,2048
1629800385282,2048
1629800385286,2047
1629800385290,2047
1629800385294,2048
1629800385298,2048
1629800385302,2050
1629800385306,2052
1629800385310,2054
1629800385314,2056
1629800385318,2058
1629800385322,2059
1629800385326,2061
1629800385330,2062
1629800385334,2064
1629800385338,2065
1629800385342,2066
1629800385346,2066
1629800385350,2066
1629800385354,2066
1629800385358,2066
1629800385362,2066
1629800385366,2066
1629800385370,2066
1629800385374,2067
1629800385378,2067
1629800385382,2067
1629800385386,2067
1629800385390,2067
1629800385394,2066
1629800385398,2066
1629800385402,2066
1629800385406,2066
1629800385410,2066
1629800385414,2066
1629800385418,2066
1629800385422,2066
1629800385426,2065
1629800385430,2065
1629800385434,2064
1629800385438,2064
1629800385442,2063
1629800385446,2063
1629800385450,2063
1629800385454,2063
1629800385458,2064
1629800385462,2064
1629800385466,2064
1629800385470,2064
1629800385474,2063
1629800385478,2063
1629800385482,2062
1629800385486,2062
1629800385490,2062
1629800385494,2062
1629800385498,2063
1629800385502,2063
1629800385506,2063
1629800385510,2063
1629800385514,2062
1629800385518,2062
1629800385522,2062
1629800385526,2062
1629800385530,2062
1629800385534,2062
1629800385538,2063
1629800385542,2063
1629800385546,2063
1629800385550,2063
1629800385554,2063
1629800385558,2062
1629800385562,2062
1629800385566,2062
1629800385570,2062
1629800385574,2063
1629800385578,2063
1629800385582,2064
1629800385586,2064
1629800385590,2063
1629800385594,2063
1629800385598,2062
1629800385602,2062
1629800385606,2062
1629800385610,2062
1629800385614,2063
1629800385618,2063
1629800385622,2063
1629800385626,2063
1629800385630,2062
1629800385634,2062
1629800385638,2062
1629800385642,2062
1629800385646,2061
1629800385650,2061
1629800385654,2062
1629800385658,2062
1629800385662,2062
1629800385666,2062
1629800385670,2062
1629800385674,2061
1629800385678,2061
1629800385682,2061
1629800385686,2061
1629800385690,2061
1629800385694,2061
1629800385698,2061
1629800385702,2061
1629800385706,2061
1629800385710,2061
1629800385714,2061
1629800385718,2060
1629800385722,2059
1629800385726,2057
1629800385730,2057
1629800385734,2056
1629800385738,2057
1629800385742,2057
1629800385746,2057
1629800385750,2057
1629800385754,2056
1629800385758,2055
1629800385762,2055
1629800385766,2057
1629800385770,2059
1629800385774,2061
1629800385778,2063
1629800385782,2064
1629800385786,2064
1629800385790,2064
1629800385794,2064
1629800385798,2063
1629800385802,2063
1629800385806,2063
1629800385810,2063
1629800385814,2064
1629800385818,2064
1629800385822,2064
1629800385826,2065
1629800385830,2065
1629800385834,2067
1629800385838,2068
1629800385842,2068
1629800385846,2065
1629800385850,2052
1629800385854,2030
1629800385858,1999
1629800385862,1972
1629800385866,1958
1629800385870,1965
1629800385874,1990
1629800385878,2023
1629800385882,2051
1629800385886,2068
1629800385890,2074
1629800385894,2074
1629800385898,2071
1629800385902,2069
1629800385906,2068
1629800385910,2067
1629800385914,2066
1629800385918,2065
1629800385922,2065
1629800385926,2065
1629800385930,2065
1629800385934,2065
1629800385938,2065
1629800385942,2065
1629800385946,2064
1629800385950,2064
1629800385954,2063
1629800385958,2063
1629800385962,2062
1629800385966,2062
1629800385970,2062
1629800385974,2062
1629800385978,2062
1629800385982,2062
1629800385986,2061
1629800385990,2060
1629800385994,2059
1629800385998,2058
1629800386002,2057
1629800386006,2057
1629800386010,2057
1629800386014,2057
1629800386018,2057
1629800386022,2056
1629800386026,2056
1629800386030,2055
1629800386034,2053
1629800386038,2052
1629800386042,2050
1629800386046,2049
1629800386050,2048
1629800386054,2048
1629800386058,2048
1629800386062,2048
1629800386066,2047
1629800386070,2046
1629800386074,2045
1629800386078,2044
1629800386082,2044
1629800386086,2044
1629800386090,2045
1629800386094,2046
1629800386098,2047
1629800386102,2048
1629800386106,2048
1629800386110,2049
1629800386114,2050
1629800386118,2052
1629800386122,2054
1629800386126,2056
1629800386130,2058
1629800386134,2060
1629800386138,2061
1629800386142,2062
1629800386146,2063
1629800386150,2063
1629800386154,2063
1629800386158,2063
1629800386162,2063
1629800386166,2064
1629800386170,2063
1629800386174,2064
1629800386178,2064
1629800386182,2065
1629800386186,2065
1629800386190,2065
1629800386194,2064
1629800386198,2064
1629800386202,2063
1629800386206,2063
1629800386210,2063
1629800386214,2064
1629800386218,2064
1629800386222,2064
1629800386226,2064
1629800386230,2063
1629800386234,2063
1629800386238,2062
1629800386242,2061
1629800386246,2061
1629800386250,2061
1629800386254,2062
1629800386258,2062
1629800386262,2062
1629800386266,2062
1629800386270,2062
1629800386274,2061
1629800386278,2060
1629800386282,2059
1629800386286,2059
1629800386290,2059
1629800386294,2060
1629800386298,2060
1629800386302,2061
1629800386306,2060
1629800386310,2060
1629800386314,2060
1629800386318,2060
1629800386322,2059
1629800386326,2060
1629800386330,2060
1629800386334,2060
1629800386338,2060
1629800386342,2060
1629800386346,2060
1629800386350,2060
1629800386354,2060
1629800386358,2060
1629800386362,2060
1629800386366,2060
1629800386370,2060
1629800386374,2060
1629800386378,2060
1629800386382,2061
1629800386386,2060
1629800386390,2060
1629800386394,2060
1629800386398,2059
1629800386402,2059
1629800386406,2060
1629800386410,2060
1629800386414,2061
1629800386418,2061
1629800386422,2062
1629800386426,2062
1629800386430,2062
1629800386434,2062
1629800386438,2061
1629800386442,2061
1629800386446,2061
1629800386450,2061
1629800386454,2061
1629800386458,2061
1629800386462,2061
1629800386466,2061
1629800386470,2061
1629800386474,2061
1629800386478,2060
1629800386482,2060
1629800386486,2060
1629800386490,2061
1629800386494,2061
1629800386498,2061
1629800386502,2061
1629800386506,2061
1629800386510,2061
1629800386514,2061
1629800386518,2060
1629800386522,2060
1629800386526,2060
1629800386530,2060
1629800386534,2061
1629800386538,2061
1629800386542,2060
1629800386546,2059
1629800386550,2058
1629800386554,2056
1629800386558,2056
1629800386562,2055
1629800386566,2055
1629800386570,2056
1629800386574,2056
1629800386578,2056
1629800386582,2057
1629800386586,2058
1629800386590,2059
1629800386594,2060
1629800386598,2061
1629800386602,2062
1629800386606,2062
1629800386610,2063
1629800386614,2063
1629800386618,2064
1629800386622,2065
1629800386626,2065
1629800386630,2065
1629800386634,2064
1629800386638,2064
1629800386642,2063
1629800386646,2064
1629800386650,2064
1629800386654,2066
1629800386658,2068
1629800386662,2069
1629800386666,2064
1629800386670,2050
1629800386674,2025
1629800386678,1994
1629800386682,1967
1629800386686,1957
1629800386690,1969
1629800386694,1997
1629800386698,2031
1629800386702,2058
1629800386706,2073
1629800386710,2077
1629800386714,2075
1629800386718,2071
1629800386722,2068
1629800386726,2067
1629800386730,2066
1629800386734,2065
1629800386738,2066
1629800386742,2066
1629800386746,2066
1629800386750,2066
1629800386754,2065
1629800386758,2064
1629800386762,2063
1629800386766,2062
1629800386770,2062
1629800386774,2062
1629800386778,2062
1629800386782,2062
1629800386786,2061
1629800386790,2061
1629800386794,2061
1629800386798,2060
1629800386802,2059
1629800386806,2058
1629800386810,2056
1629800386814,2056
1629800386818,2055
1629800386822,2055
1629800386826,2055
1629800386830,2055
1629800386834,2054
1629800386838,2053
1629800386842,2052
1629800386846,2051
1629800386850,2051
1629800386854,2050
1629800386858,2049
1629800386862,2048
1629800386866,2047
1629800386870,2046
1629800386874,2044
1629800386878,2043
1629800386882,2041
1629800386886,2040
1629800386890,2039
1629800386894,2039
1629800386898,2039
1629800386902,2039
1629800386906,2039
1629800386910,2039
1629800386914,2039
1629800386918,2040
1629800386922,2041
1629800386926,2043
1629800386930,2045
1629800386934,2047
1629800386938,2048
1629800386942,2050
1629800386946,2052
1629800386950,2053
1629800386954,2054
1629800386958,2055
1629800386962,2056
1629800386966,2056
1629800386970,2057
1629800386974,2058
1629800386978,2058
1629800386982,2059
1629800386986,2059
1629800386990,2059
1629800386994,2059
1629800386998,2059
1629800387002,2058
1629800387006,2058
1629800387010,2058
1629800387014,2057
1629800387018,2057
1629800387022,2058
1629800387026,2058
1629800387030,2058
1629800387034,2058
1629800387038,2057
1629800387042,2057
1629800387046,2056
1629800387050,2056
1629800387054,2056
1629800387058,2056
1629800387062,2056
1629800387066,2056
1629800387070,2055
1629800387074,2055
1629800387078,2054
1629800387082,2054
1629800387086,2054
1629800387090,2054
1629800387094,2054
1629800387098,2055
1629800387102,2056
1629800387106,2056
1629800387110,2055
1629800387114,2054
1629800387118,2053
1629800387122,2052
1629800387126,2052
1629800387130,2053
1629800387134,2054
1629800387138,2055
1629800387142,2055
1629800387146,2055
1629800387150,2055
1629800387154,2054
1629800387158,2053
1629800387162,2053
1629800387166,2053
1629800387170,2053
1629800387174,2054
1629800387178,2055
1629800387182,2055
1629800387186,2055
1629800387190,2055
1629800387194,2055
1629800387198,2054
1629800387202,2054
1629800387206,2054
1629800387210,2054
1629800387214,2055
1629800387218,2055
1629800387222,2055
1629800387226,2055
1629800387230,2054
1629800387234,2053
1629800387238,2053
1629800387242,2053
1629800387246,2053
1629800387250,2053
1629800387254,2054
1629800387258,2053
1629800387262,2052
1629800387266,2050
1629800387270,2049
1629800387274,2048
1629800387278,2048
1629800387282,2048
1629800387286,2048
1629800387290,2048
1629800387294,2048
1629800387298,2048
1629800387302,2051
1629800387306,2053
1629800387310,2055
1629800387314,2056
1629800387318,2056
1629800387322,2055
1629800387326,2054
1629800387330,2054
1629800387334,2054
1629800387338,2055
1629800387342,2056
1629800387346,2056
1629800387350,2055
1629800387354,2055
1629800387358,2054
1629800387362,2054
1629800387366,2054
1629800387370,2056
1629800387374,2058
1629800387378,2057
1629800387382,2048
1629800387386,2026
1629800387390,1995
1629800387394,1964
1629800387398,1945
1629800387402,1949
1629800387406,1974
1629800387410,2011
1629800387414,2046
1629800387418,2069
1629800387422,2078
1629800387426,2076
1629800387430,2071
1629800387434,2065
1629800387438,2061
1629800387442,2057
1629800387446,2054
1629800387450,2053
1629800387454,2053
1629800387458,2054
1629800387462,2056
1629800387466,2056
1629800387470,2056
1629800387474,2054
1629800387478,2053
1629800387482,2052
1629800387486,2051
1629800387490,2051
1629800387494,2052
1629800387498,2052
1629800387502,2051
1629800387506,2051
1629800387510,2050
1629800387514,2049
1629800387518,2048
1629800387522,2048
1629800387526,2048
1629800387530,2048
1629800387534,2048
1629800387538,2047
1629800387542,2047
1629800387546,2046
1629800387550,2046
1629800387554,2044
1629800387558,2043
1629800387562,2042
1629800387566,2041
1629800387570,2040
1629800387574,2039
1629800387578,2039
1629800387582,2038
1629800387586,2037
1629800387590,2035
1629800387594,2034
1629800387598,2032
1629800387602,2031
1629800387606,2030
1629800387610,2030
1629800387614,2030
1629800387618,2031
1629800387622,2032
1629800387626,2033
1629800387630,2034
1629800387634,2036
1629800387638,2037
1629800387642,2039
1629800387646,2041
1629800387650,2044
1629800387654,2047
1629800387658,2049
1629800387662,2051
1629800387666,2053
1629800387670,2054
1629800387674,2055
1629800387678,2055
1629800387682,2056
1629800387686,2056
1629800387690,2057
1629800387694,2057
1629800387698,2058
1629800387702,2058
1629800387706,2058
1629800387710,2058
1629800387714,2059
1629800387718,2059
1629800387722,2059
1629800387726,2058
1629800387730,2058
1629800387734,2058
1629800387738,2058
1629800387742,2058
1629800387746,2058
1629800387750,2058
1629800387754,2058
1629800387758,2058
1629800387762,2057
1629800387766,2057
1629800387770,2056
1629800387774,2056
1629800387778,2056
1629800387782,2056
1629800387786,2056
1629800387790,2056
1629800387794,2056
1629800387798,2055
1629800387802,2055
1629800387806,2054
1629800387810,2054
1629800387814,2054
1629800387818,2055
1629800387822,2055
1629800387826,2055
1629800387830,2055
1629800387834,2054
1629800387838,2054
1629800387842,2054
1629800387846,2054
1629800387850,2055
1629800387854,2056
1629800387858,2056
1629800387862,2056
1629800387866,2056
1629800387870,2055
1629800387874,2055
1629800387878,2055
1629800387882,2055
1629800387886,2056
1629800387890,2056
1629800387894,2057
1629800387898,2058
1629800387902,2058
1629800387906,2058
1629800387910,2057
1629800387914,2056
1629800387918,2055
1629800387922,2055
1629800387926,2056
1629800387930,2056
1629800387934,2057
1629800387938,2057
1629800387942,2057
1629800387946,2056
1629800387950,2056
1629800387954,2055
1629800387958,2055
1629800387962,2056
1629800387966,2056
1629800387970,2055
1629800387974,2055
1629800387978,2053
1629800387982,2053
1629800387986,2052
1629800387990,2051
1629800387994,2051
1629800387998,2050
1629800388002,2050
1629800388006,2050
1629800388010,2050
1629800388014,2052
1629800388018,2053
1629800388022,2055
1629800388026,2056
1629800388030,2057
1629800388034,2057
1629800388038,2057
1629800388042,2056
1629800388046,2056
1629800388050,2057
1629800388054,2057
1629800388058,2058
1629800388062,2058
1629800388066,2058
1629800388070,2058
1629800388074,2057
1629800388078,2057
1629800388082,2058
1629800388086,2059
1629800388090,2061
1629800388094,2059
1629800388098,2048
1629800388102,2027
1629800388106,1996
1629800388110,1966
1629800388114,1949
1629800388118,1954
1629800388122,1979
1629800388126,2015
1629800388130,2048
1629800388134,2068
1629800388138,2076
1629800388142,2075
1629800388146,2071
1629800388150,2067
1629800388154,2063
1629800388158,2061
1629800388162,2059
1629800388166,2058
1629800388170,2058
1629800388174,2059
1629800388178,2059
1629800388182,2059
1629800388186,2058
1629800388190,2057
1629800388194,2057
1629800388198,2056
1629800388202,2055
1629800388206,2055
1629800388210,2055
1629800388214,2055
1629800388218,2055
1629800388222,2056
1629800388226,2055
1629800388230,2055
1629800388234,2054
1629800388238,2053
1629800388242,2052
1629800388246,2052
1629800388250,2052
1629800388254,2052
1629800388258,2052
1629800388262,2052
1629800388266,2052
1629800388270,2051
1629800388274,2049
1629800388278,2048
1629800388282,2047
1629800388286,2046
1629800388290,2045
1629800388294,2044
1629800388298,2044
1629800388302,2043
1629800388306,2042
1629800388310,2041
1629800388314,2040
1629800388318,2038
1629800388322,2038
1629800388326,2037
1629800388330,2037
1629800388334,2037
1629800388338,2038
1629800388342,2039
1629800388346,2041
1629800388350,2042
1629800388354,2044
1629800388358,2046
1629800388362,2047
1629800388366,2048
1629800388370,2051
1629800388374,2053
1629800388378,2055
1629800388382,2057
1629800388386,2058
1629800388390,2059
1629800388394,2059
1629800388398,2059
1629800388402,2059
1629800388406,2060
1629800388410,2060
1629800388414,2061
1629800388418,2061
1629800388422,2061
1629800388426,2062
1629800388430,2062
1629800388434,2061
1629800388438,2061
1629800388442,2060
1629800388446,2060
1629800388450,2060
1629800388454,2061
1629800388458,2061
1629800388462,2062
1629800388466,2061
1629800388470,2061
1629800388474,2060
1629800388478,2060
1629800388482,2059
1629800388486,2059
1629800388490,2059
1629800388494,2059
1629800388498,2059
1629800388502,2059
1629800388506,2058
1629800388510,2058
1629800388514,2057
1629800388518,2057
1629800388522,2056
1629800388526,2056
1629800388530,2057
1629800388534,2057
1629800388538,2058
1629800388542,2058
1629800388546,2058
1629800388550,2057
1629800388554,2056
1629800388558,2055
1629800388562,2055
1629800388566,2056
1629800388570,2056
1629800388574,2057
1629800388578,2057
1629800388582,2057
1629800388586,2057
1629800388590,2057
1629800388594,2057
1629800388598,2057
1629800388602,2057
1629800388606,2057
1629800388610,2057
1629800388614,2058
1629800388618,2058
1629800388622,2058
1629800388626,2058
1629800388630,2058
1629800388634,2057
1629800388638,2056
1629800388642,2056
1629800388646,2056
1629800388650,2057
1629800388654,2057
1629800388658,2057
1629800388662,2057
1629800388666,2057
1629800388670,2056
1629800388674,2056
1629800388678,2056
1629800388682,2056
1629800388686,2056
1629800388690,2055
1629800388694,2055
1629800388698,2053
1629800388702,2052
1629800388706,2051
1629800388710,2051
1629800388714,2051
1629800388718,2051
1629800388722,2051
1629800388726,2051
1629800388730,2051
1629800388734,2052
1629800388738,2053
1629800388742,2056
1629800388746,2058
1629800388750,2059
1629800388754,2059
1629800388758,2058
1629800388762,2057
1629800388766,2057
1629800388770,2056
1629800388774,2057
1629800388778,2058
1629800388782,2058
1629800388786,2058
1629800388790,2058
1629800388794,2057
1629800388798,2057
1629800388802,2058
1629800388806,2059
1629800388810,2061
1629800388814,2061
1629800388818,2053
1629800388822,2036
1629800388826,2007
1629800388830,1976
1629800388834,1954
1629800388838,1951
1629800388842,1970
1629800388846,2001
1629800388850,2034
1629800388854,2058
1629800388858,2069
1629800388862,2071
1629800388866,2068
1629800388870,2065
1629800388874,2063
1629800388878,2061
1629800388882,2059
1629800388886,2059
1629800388890,2059
1629800388894,2059
1629800388898,2060
1629800388902,2059
1629800388906,2059
1629800388910,2058
1629800388914,2057
1629800388918,2056
1629800388922,2056
1629800388926,2056
1629800388930,2056
1629800388934,2056
1629800388938,2056
1629800388942,2056
1629800388946,2055
1629800388950,2054
1629800388954,2053
1629800388958,2053
1629800388962,2052
1629800388966,2052
1629800388970,2052
1629800388974,2052
1629800388978,2052
1629800388982,2051
1629800388986,2051
1629800388990,2050
1629800388994,2049
1629800388998,2048
1629800389002,2047
1629800389006,2046
1629800389010,2045
1629800389014,2044
1629800389018,2044
1629800389022,2043
1629800389026,2042
1629800389030,2041
1629800389034,2039
1629800389038,2038
1629800389042,2037
1629800389046,2036
1629800389050,2036
1629800389054,2036
1629800389058,2037
1629800389062,2038
1629800389066,2040
1629800389070,2042
1629800389074,2044
1629800389078,2046
1629800389082,2048
1629800389086,2049
1629800389090,2052
1629800389094,2054
1629800389098,2056
1629800389102,2058
1629800389106,2059
1629800389110,2060
1629800389114,2060
1629800389118,2060
1629800389122,2061
1629800389126,2061
1629800389130,2062
1629800389134,2062
1629800389138,2063
1629800389142,2063
1629800389146,2063
1629800389150,2063
1629800389154,2063
1629800389158,2062
1629800389162,2062
1629800389166,2062
1629800389170,2062
1629800389174,2063
1629800389178,2063
1629800389182,2063
1629800389186,2063
1629800389190,2063
1629800389194,2062
1629800389198,2061
1629800389202,2060
1629800389206,2060
1629800389210,2060
1629800389214,2061
1629800389218,2060
1629800389222,2060
1629800389226,2059
1629800389230,2059
1629800389234,2059
1629800389238,2058
1629800389242,2058
1629800389246,2058
1629800389250,2058
1629800389254,2058
1629800389258,2058
1629800389262,2058
1629800389266,2058
1629800389270,2058
1629800389274,2058
1629800389278,2058
1629800389282,2057
1629800389286,2057
1629800389290,2057
1629800389294,2058
1629800389298,2058
1629800389302,2058
1629800389306,2058
1629800389310,2056
1629800389314,2055
1629800389318,2054
1629800389322,2054
1629800389326,2053
1629800389330,2054
1629800389334,2054
1629800389338,2055
1629800389342,2057
1629800389346,2058
1629800389350,2059
1629800389354,2059
1629800389358,2059
1629800389362,2059
1629800389366,2059
1629800389370,2059
1629800389374,2059
1629800389378,2059
1629800389382,2059
1629800389386,2059
1629800389390,2058
1629800389394,2057
1629800389398,2056
1629800389402,2056
1629800389406,2056
1629800389410,2056
1629800389414,2056
1629800389418,2056
1629800389422,2056
1629800389426,2057
1629800389430,2056
1629800389434,2055
1629800389438,2055
1629800389442,2054
1629800389446,2054
1629800389450,2056
1629800389454,2057
1629800389458,2058
1629800389462,2059
1629800389466,2059
1629800389470,2059
1629800389474,2058
1629800389478,2058
1629800389482,2057
1629800389486,2057
1629800389490,2056
1629800389494,2056
1629800389498,2056
1629800389502,2057
1629800389506,2057
1629800389510,2056
1629800389514,2055
1629800389518,2053
1629800389522,2051
1629800389526,2051
1629800389530,2052
1629800389534,2053
1629800389538,2054
1629800389542,2054
1629800389546,2053
1629800389550,2052
1629800389554,2051
1629800389558,2050
1629800389562,2051
1629800389566,2052
1629800389570,2054
1629800389574,2056
1629800389578,2059
1629800389582,2060
1629800389586,2060
1629800389590,2059
1629800389594,2058
1629800389598,2057
1629800389602,2057
1629800389606,2057
1629800389610,2058
1629800389614,2059
1629800389618,2059
1629800389622,2060
1629800389626,2059
1629800389630,2058
1629800389634,2057
1629800389638,2058
1629800389642,2059
1629800389646,2058
1629800389650,2050
1629800389654,2031
1629800389658,2001
1629800389662,1972
1629800389666,1954
1629800389670,1956
1629800389674,1977
1629800389678,2008
1629800389682,2038
1629800389686,2056
1629800389690,2063
1629800389694,2063
1629800389698,2061
1629800389702,2060
1629800389706,2059
1629800389710,2058
1629800389714,2057
1629800389718,2055
1629800389722,2054
1629800389726,2053
1629800389730,2053
1629800389734,2054
1629800389738,2055
1629800389742,2055
1629800389746,2055
1629800389750,2054
1629800389754,2053
1629800389758,2052
1629800389762,2051
1629800389766,2052
1629800389770,2052
1629800389774,2053
1629800389778,2053
1629800389782,2052
1629800389786,2050
1629800389790,2048
1629800389794,2048
1629800389798,2047
1629800389802,2047
1629800389806,2047
1629800389810,2047
1629800389814,2047
1629800389818,2047
1629800389822,2046
1629800389826,2044
1629800389830,2043
1629800389834,2042
1629800389838,2042
1629800389842,2042
1629800389846,2042
1629800389850,2042
1629800389854,2041
1629800389858,2039
1629800389862,2037
1629800389866,2036
1629800389870,2035
1629800389874,2035
1629800389878,2035
1629800389882,2034
1629800389886,2035
1629800389890,2035
1629800389894,2036
1629800389898,2037
1629800389902,2038
1629800389906,2040
1629800389910,2041
1629800389914,2043
1629800389918,2044
1629800389922,2046
1629800389926,2048
1629800389930,2048
1629800389934,2051
1629800389938,2053
1629800389942,2054
1629800389946,2055
1629800389950,2055
1629800389954,2054
1629800389958,2053
1629800389962,2052
1629800389966,2052
1629800389970,2053
1629800389974,2055
1629800389978,2057
1629800389982,2058
1629800389986,2059
1629800389990,2058
1629800389994,2058
1629800389998,2057
1629800390002,2057
1629800390006,2057
1629800390010,2057
1629800390014,2058
1629800390018,2058
1629800390022,2058
1629800390026,2057
1629800390030,2056
1629800390034,2055
1629800390038,2054
1629800390042,2054
1629800390046,2054
1629800390050,2054
1629800390054,2055
1629800390058,2055
1629800390062,2056
1629800390066,2056
1629800390070,2056
1629800390074,2056
1629800390078,2055
1629800390082,2053
1629800390086,2052
1629800390090,2052
1629800390094,2053
1629800390098,2054
1629800390102,2054
1629800390106,2054
1629800390110,2054
1629800390114,2053
1629800390118,2052
1629800390122,2052
1629800390126,2052
1629800390130,2053
1629800390134,2055
1629800390138,2056
1629800390142,2056
1629800390146,2055
1629800390150,2054
1629800390154,2053
1629800390158,2053
1629800390162,2053
1629800390166,2053
1629800390170,2053
1629800390174,2053
1629800390178,2053
1629800390182,2053
1629800390186,2053
1629800390190,2052
1629800390194,2052
1629800390198,2052
1629800390202,2053
1629800390206,2053
1629800390210,2053
1629800390214,2054
1629800390218,2053
1629800390222,2053
1629800390226,2052
1629800390230,2052
1629800390234,2052
1629800390238,2052
1629800390242,2053
1629800390246,2053
1629800390250,2053
1629800390254,2054
1629800390258,2053
1629800390262,2053
1629800390266,2052
1629800390270,2051
1629800390274,2050
1629800390278,2050
1629800390282,2050
1629800390286,2051
1629800390290,2052
1629800390294,2053
1629800390298,2053
1629800390302,2053
1629800390306,2052
1629800390310,2051
1629800390314,2050
1629800390318,2048
1629800390322,2048
1629800390326,2047
1629800390330,2047
1629800390334,2048
1629800390338,2048
1629800390342,2048
1629800390346,2048
1629800390350,2048
1629800390354,2047
1629800390358,2047
1629800390362,2048
1629800390366,2049
1629800390370,2051
1629800390374,2053
1629800390378,2054
1629800390382,2054
1629800390386,2054
1629800390390,2053
1629800390394,2053
1629800390398,2052
1629800390402,2052
1629800390406,2053
1629800390410,2054
1629800390414,2055
1629800390418,2054
1629800390422,2053
1629800390426,2053
1629800390430,2054
1629800390434,2056
1629800390438,2054
1629800390442,2043
1629800390446,2018
1629800390450,1986
1629800390454,1958
1629800390458,1944
1629800390462,1953
1629800390466,1981
1629800390470,2015
1629800390474,2045
1629800390478,2062
1629800390482,2067
1629800390486,2065
1629800390490,2062
1629800390494,2060
1629800390498,2059
1629800390502,2058
1629800390506,2056
1629800390510,2056
1629800390514,2055
1629800390518,2054
1629800390522,2053
1629800390526,2052
1629800390530,2052
1629800390534,2052
1629800390538,2052
1629800390542,2052
1629800390546,2052
1629800390550,2051
1629800390554,2050
1629800390558,2049
1629800390562,2049
1629800390566,2049
1629800390570,2049
1629800390574,2050
1629800390578,2049
1629800390582,2048
1629800390586,2048
1629800390590,2047
1629800390594,2046
1629800390598,2045
1629800390602,2044
1629800390606,2043
1629800390610,2043
1629800390614,2042
1629800390618,2042
1629800390622,2041
1629800390626,2041
1629800390630,2040
1629800390634,2039
1629800390638,2037
1629800390642,2035
1629800390646,2034
1629800390650,2033
1629800390654,2033
1629800390658,2033
1629800390662,2033
1629800390666,2032
1629800390670,2031
1629800390674,2031
1629800390678,2030
1629800390682,2031
1629800390686,2032
1629800390690,2034
1629800390694,2036
1629800390698,2039
1629800390702,2041
1629800390706,2043
1629800390710,2044
1629800390714,2044
1629800390718,2045
1629800390722,2047
1629800390726,2049
1629800390730,2052
1629800390734,2055
1629800390738,2056
1629800390742,2057
1629800390746,2057
1629800390750,2056
1629800390754,2056
1629800390758,2055
1629800390762,2056
1629800390766,2056
1629800390770,2058
1629800390774,2059
1629800390778,2059
1629800390782,2059
1629800390786,2058
1629800390790,2058
1629800390794,2057
1629800390798,2057
1629800390802,2057
1629800390806,2057
1629800390810,2057
1629800390814,2057
1629800390818,2057
1629800390822,2057
1629800390826,2058
1629800390830,2058
1629800390834,2058
1629800390838,2057
1629800390842,2056
1629800390846,2056
1629800390850,2055
1629800390854,2054
1629800390858,2054
1629800390862,2054
1629800390866,2054
1629800390870,2054
1629800390874,2054
1629800390878,2054
1629800390882,2055
1629800390886,2055
1629800390890,2055
1629800390894,2056
1629800390898,2056
1629800390902,2055
1629800390906,2055
1629800390910,2054
1629800390914,2054
1629800390918,2055
1629800390922,2055
1629800390926,2055
1629800390930,2054
1629800390934,2054
1629800390938,2053
1629800390942,2055
1629800390946,2056
1629800390950,2058
1629800390954,2059
1629800390958,2058
1629800390962,2057
1629800390966,2057
1629800390970,2056
1629800390974,2056
1629800390978,2055
1629800390982,2055
1629800390986,2055
1629800390990,2055
1629800390994,2056
1629800390998,2056
1629800391002,2056
1629800391006,2056
1629800391010,2056
1629800391014,2056
1629800391018,2057
1629800391022,2057
1629800391026,2056
1629800391030,2056
1629800391034,2056
1629800391038,2056
1629800391042,2057
1629800391046,2057
1629800391050,2056
1629800391054,2056
1629800391058,2055
1629800391062,2056
1629800391066,2055
1629800391070,2055
1629800391074,2054
1629800391078,2053
1629800391082,2052
1629800391086,2052
1629800391090,2052
1629800391094,2051
1629800391098,2050
1629800391102,2049
1629800391106,2048
1629800391110,2049
1629800391114,2051
1629800391118,2054
1629800391122,2056
1629800391126,2058
1629800391130,2059
1629800391134,2060
1629800391138,2061
1629800391142,2061
1629800391146,2060
1629800391150,2059
1629800391154,2056
1629800391158,2054
1629800391162,2054
1629800391166,2055
1629800391170,2057
1629800391174,2060
1629800391178,2061
1629800391182,2062
1629800391186,2062
1629800391190,2058
1629800391194,2047
1629800391198,2023
1629800391202,1992
1629800391206,1964
1629800391210,1950
1629800391214,1957
1629800391218,1983
1629800391222,2017
1629800391226,2047
1629800391230,2064
1629800391234,2071
1629800391238,2069
1629800391242,2066
1629800391246,2064
1629800391250,2062
1629800391254,2062
1629800391258,2062
1629800391262,2062
1629800391266,2062
1629800391270,2060
1629800391274,2058
1629800391278,2056
1629800391282,2055
1629800391286,2055
1629800391290,2056
1629800391294,2057
1629800391298,2057
1629800391302,2058
1629800391306,2057
1629800391310,2056
1629800391314,2056
1629800391318,2054
1629800391322,2053
1629800391326,2053
1629800391330,2052
1629800391334,2052
1629800391338,2052
1629800391342,2052
1629800391346,2052
1629800391350,2051
1629800391354,2049
1629800391358,2048
1629800391362,2047
1629800391366,2046
1629800391370,2045
1629800391374,2045
1629800391378,2044
1629800391382,2044
1629800391386,2043
1629800391390,2042
1629800391394,2041
1629800391398,2039
1629800391402,2037
1629800391406,2036
1629800391410,2036
1629800391414,2036
1629800391418,2036
1629800391422,2036
1629800391426,2036
1629800391430,2035
1629800391434,2034
1629800391438,2034
1629800391442,2034
1629800391446,2036
1629800391450,2038
1629800391454,2042
1629800391458,2044
1629800391462,2047
1629800391466,2048
1629800391470,2049
1629800391474,2050
1629800391478,2051
1629800391482,2052
1629800391486,2053
1629800391490,2054
1629800391494,2056
1629800391498,2057
1629800391502,2057
1629800391506,2057
1629800391510,2057
1629800391514,2057
1629800391518,2057
1629800391522,2057
1629800391526,2057
1629800391530,2058
1629800391534,2058
1629800391538,2059
1629800391542,2058
1629800391546,2058
1629800391550,2056
1629800391554,2055
1629800391558,2055
1629800391562,2055
1629800391566,2056
1629800391570,2057
1629800391574,2058
1629800391578,2058
1629800391582,2059
1629800391586,2059
1629800391590,2058
1629800391594,2057
1629800391598,2056
1629800391602,2056
1629800391606,2055
1629800391610,2055
1629800391614,2055
1629800391618,2054
1629800391622,2054
1629800391626,2053
1629800391630,2053
1629800391634,2053
1629800391638,2053
1629800391642,2053
1629800391646,2053
1629800391650,2053
1629800391654,2053
1629800391658,2054
1629800391662,2054
1629800391666,2055
1629800391670,2055
1629800391674,2055
1629800391678,2055
1629800391682,2054
1629800391686,2054
1629800391690,2053
1629800391694,2054
1629800391698,2054
1629800391702,2055
1629800391706,2056
1629800391710,2056
1629800391714,2056
1629800391718,2055
1629800391722,2054
1629800391726,2054
1629800391730,2054
1629800391734,2055
1629800391738,2055
1629800391742,2056
1629800391746,2056
1629800391750,2056
1629800391754,2056
1629800391758,2055
1629800391762,2054
1629800391766,2053
1629800391770,2053
1629800391774,2054
1629800391778,2054
1629800391782,2055
1629800391786,2056
1629800391790,2056
1629800391794,2056
1629800391798,2055
1629800391802,2055
1629800391806,2055
1629800391810,2055
1629800391814,2056
1629800391818,2056
1629800391822,2057
1629800391826,2056
1629800391830,2055
1629800391834,2053
1629800391838,2052
1629800391842,2052
1629800391846,2053
1629800391850,2053
1629800391854,2053
1629800391858,2051
1629800391862,2050
1629800391866,2048
1629800391870,2048
1629800391874,2048
1629800391878,2048
1629800391882,2047
1629800391886,2047
1629800391890,2048
1629800391894,2050
1629800391898,2052
1629800391902,2055
1629800391906,2056
1629800391910,2056
1629800391914,2056
1629800391918,2056
1629800391922,2055
1629800391926,2055
1629800391930,2055
1629800391934,2056
1629800391938,2057
1629800391942,2058
1629800391946,2058
1629800391950,2057
1629800391954,2054
1629800391958,2053
1629800391962,2052
1629800391966,2054
1629800391970,2058
1629800391974,2060
1629800391978,2057
1629800391982,2044
1629800391986,2018
1629800391990,1986
1629800391994,1959
1629800391998,1949
1629800392002,1960
1629800392006,1987
1629800392010,2020
1629800392014,2046
1629800392018,2060
1629800392022,2064
1629800392026,2062
1629800392030,2060
1629800392034,2059
1629800392038,2057
1629800392042,2056
1629800392046,2054
1629800392050,2054
1629800392054,2054
1629800392058,2056
1629800392062,2057
1629800392066,2058
1629800392070,2058
1629800392074,2057
1629800392078,2056
1629800392082,2054
1629800392086,2053
1629800392090,2053
1629800392094,2053
1629800392098,2053
1629800392102,2053
1629800392106,2052
1629800392110,2051
1629800392114,2050
1629800392118,2050
1629800392122,2050
1629800392126,2050
1629800392130,2049
1629800392134,2048
1629800392138,2048
1629800392142,2047
1629800392146,2047
1629800392150,2048
1629800392154,2048
1629800392158,2047
1629800392162,2046
1629800392166,2044
1629800392170,2043
1629800392174,2042
1629800392178,2041
1629800392182,2040
1629800392186,2039
1629800392190,2037
1629800392194,2035
1629800392198,2033
1629800392202,2032
1629800392206,2033
1629800392210,2034
1629800392214,2036
1629800392218,2037
1629800392222,2038
1629800392226,2038
1629800392230,2038
1629800392234,2038
1629800392238,2039
1629800392242,2041
1629800392246,2043
1629800392250,2045
1629800392254,2048
1629800392258,2048
1629800392262,2050
1629800392266,2051
1629800392270,2053
1629800392274,2054
1629800392278,2055
1629800392282,2056
1629800392286,2056
1629800392290,2056
1629800392294,2056
1629800392298,2057
1629800392302,2057
1629800392306,2058
1629800392310,2057
1629800392314,2056
1629800392318,2056
1629800392322,2056
1629800392326,2056
1629800392330,2056
1629800392334,2057
1629800392338,2057
1629800392342,2057
1629800392346,2056
1629800392350,2056
1629800392354,2056
1629800392358,2056
1629800392362,2056
1629800392366,2057
1629800392370,2057
1629800392374,2056
1629800392378,2055
1629800392382,2055
1629800392386,2055
1629800392390,2055
1629800392394,2055
1629800392398,2055
1629800392402,2055
1629800392406,2055
1629800392410,2054
1629800392414,2054
1629800392418,2054
1629800392422,2055
1629800392426,2055
1629800392430,2054
1629800392434,2053
1629800392438,2052
1629800392442,2051
1629800392446,2050
1629800392450,2051
1629800392454,2052
1629800392458,2054
1629800392462,2055
1629800392466,2056
1629800392470,2055
1629800392474,2054
1629800392478,2053
1629800392482,2054
1629800392486,2054
1629800392490,2055
1629800392494,2056
1629800392498,2055
1629800392502,2055
1629800392506,2054
1629800392510,2053
1629800392514,2053
1629800392518,2053
1629800392522,2053
1629800392526,2053
1629800392530,2053
1629800392534,2053
1629800392538,2053
1629800392542,2053
1629800392546,2053
1629800392550,2053
1629800392554,2053
1629800392558,2053
1629800392562,2053
1629800392566,2053
1629800392570,2053
1629800392574,2053
1629800392578,2054
1629800392582,2054
1629800392586,2054
1629800392590,2054
1629800392594,2054
1629800392598,2054
1629800392602,2054
1629800392606,2054
1629800392610,2053
1629800392614,2053
1629800392618,2053
1629800392622,2053
1629800392626,2053
1629800392630,2053
1629800392634,2053
1629800392638,2053
1629800392642,2053
1629800392646,2052
1629800392650,2051
1629800392654,2052
1629800392658,2052
1629800392662,2052
1629800392666,2053
1629800392670,2053
1629800392674,2053
1629800392678,2052
1629800392682,2051
1629800392686,2051
1629800392690,2051
1629800392694,2051
1629800392698,2052
1629800392702,2052
1629800392706,2052
1629800392710,2052
1629800392714,2052
1629800392718,2052
1629800392722,2053
1629800392726,2053
1629800392730,2053
1629800392734,2053
1629800392738,2053
1629800392742,2053
1629800392746,2052
1629800392750,2052
1629800392754,2051
1629800392758,2050
1629800392762,2049
1629800392766,2049
1629800392770,2050
1629800392774,2051
1629800392778,2051
1629800392782,2051
1629800392786,2049
1629800392790,2048
1629800392794,2047
1629800392798,2045
1629800392802,2045
1629800392806,2045
1629800392810,2046
1629800392814,2048
1629800392818,2048
1629800392822,2048
1629800392826,2049
1629800392830,2049
1629800392834,2050
1629800392838,2051
1629800392842,2052
1629800392846,2052
1629800392850,2052
1629800392854,2053
1629800392858,2053
1629800392862,2053
1629800392866,2054
1629800392870,2054
1629800392874,2053
1629800392878,2053
1629800392882,2052
1629800392886,2052
1629800392890,2052
1629800392894,2054
1629800392898,2057
1629800392902,2059
1629800392906,2057
1629800392910,2048
1629800392914,2026
1629800392918,1995
1629800392922,1964
1629800392926,1947
1629800392930,1949
1629800392934,1971
1629800392938,2004
1629800392942,2035
1629800392946,2054
1629800392950,2062
1629800392954,2062
1629800392958,2059
1629800392962,2058
1629800392966,2057
1629800392970,2056
1629800392974,2056
1629800392978,2056
1629800392982,2057
1629800392986,2057
1629800392990,2057
1629800392994,2056
1629800392998,2055
1629800393002,2054
1629800393006,2054
1629800393010,2055
1629800393014,2055
1629800393018,2055
1629800393022,2054
1629800393026,2053
1629800393030,2052
1629800393034,2052
1629800393038,2051
1629800393042,2051
1629800393046,2050
1629800393050,2050
1629800393054,2050
1629800393058,2050
1629800393062,2051
1629800393066,2051
1629800393070,2050
1629800393074,2049
1629800393078,2048
1629800393082,2046
1629800393086,2045
1629800393090,2045
1629800393094,2045
1629800393098,2045
1629800393102,2045
1629800393106,2044
1629800393110,2043
1629800393114,2041
1629800393118,2040
1629800393122,2038
1629800393126,2037
1629800393130,2036
1629800393134,2036
1629800393138,2036
1629800393142,2036
1629800393146,2036
1629800393150,2035
1629800393154,2034
1629800393158,2035
1629800393162,2036
1629800393166,2039
1629800393170,2042
1629800393174,2044
1629800393178,2045
1629800393182,2046
1629800393186,2048
1629800393190,2050
1629800393194,2053
1629800393198,2055
1629800393202,2057
1629800393206,2057
1629800393210,2057
1629800393214,2058
1629800393218,2058
1629800393222,2059
1629800393226,2058
1629800393230,2057
1629800393234,2057
1629800393238,2057
1629800393242,2057
1629800393246,2058
1629800393250,2059
1629800393254,2061
1629800393258,2061
1629800393262,2061
1629800393266,2061
1629800393270,2060
1629800393274,2060
1629800393278,2059
1629800393282,2059
1629800393286,2059
1629800393290,2060
1629800393294,2059
1629800393298,2059
1629800393302,2058
1629800393306,2058
1629800393310,2058
1629800393314,2058
1629800393318,2059
1629800393322,2059
1629800393326,2059
1629800393330,2059
1629800393334,2059
1629800393338,2059
1629800393342,2059
1629800393346,2058
1629800393350,2057
1629800393354,2056
1629800393358,2056
1629800393362,2056
1629800393366,2056
1629800393370,2057
1629800393374,2057
1629800393378,2057
1629800393382,2058
1629800393386,2058
1629800393390,2058
1629800393394,2057
1629800393398,2057
1629800393402,2057
1629800393406,2057
1629800393410,2058
1629800393414,2059
1629800393418,2060
1629800393422,2061
1629800393426,2060
1629800393430,2059
1629800393434,2058
1629800393438,2057
1629800393442,2057
1629800393446,2057
1629800393450,2057
1629800393454,2057
1629800393458,2057
1629800393462,2058
1629800393466,2058
1629800393470,2060
1629800393474,2060
1629800393478,2059
1629800393482,2058
1629800393486,2058
1629800393490,2057
1629800393494,2058
1629800393498,2059
1629800393502,2059
1629800393506,2059
1629800393510,2059
1629800393514,2059
1629800393518,2058
1629800393522,2059
1629800393526,2059
1629800393530,2059
1629800393534,2060
1629800393538,2060
1629800393542,2060
1629800393546,2061
1629800393550,2060
1629800393554,2060
1629800393558,2060
1629800393562,2060
1629800393566,2060
1629800393570,2060
1629800393574,2060
1629800393578,2060
1629800393582,2061
1629800393586,2061
1629800393590,2061
1629800393594,2061
1629800393598,2060
1629800393602,2060
1629800393606,2060
1629800393610,2061
1629800393614,2061
1629800393618,2061
1629800393622,2061
1629800393626,2061
1629800393630,2061
1629800393634,2060
1629800393638,2060
1629800393642,2059
1629800393646,2059
1629800393650,2059
1629800393654,2060
1629800393658,2060
1629800393662,2060
1629800393666,2059
1629800393670,2057
1629800393674,2056
1629800393678,2054
1629800393682,2054
1629800393686,2055
1629800393690,2055
1629800393694,2055
1629800393698,2056
1629800393702,2056
1629800393706,2057
1629800393710,2058
1629800393714,2059
1629800393718,2060
1629800393722,2061
1629800393726,2061
1629800393730,2061
1629800393734,2062
1629800393738,2062
1629800393742,2063
1629800393746,2063
1629800393750,2063
1629800393754,2062
1629800393758,2061
1629800393762,2060
1629800393766,2061
1629800393770,2061
1629800393774,2063
1629800393778,2065
1629800393782,2067
1629800393786,2066
1629800393790,2056
1629800393794,2035
1629800393798,2004
1629800393802,1973
1629800393806,1956
1629800393810,1959
1629800393814,1983
1629800393818,2017
1629800393822,2049
1629800393826,2069
1629800393830,2077
1629800393834,2075
1629800393838,2071
1629800393842,2067
1629800393846,2066
1629800393850,2065
1629800393854,2064
1629800393858,2064
1629800393862,2064
1629800393866,2064
1629800393870,2064
1629800393874,2063
1629800393878,2062
1629800393882,2062
1629800393886,2062
1629800393890,2062
1629800393894,2062
1629800393898,2062
1629800393902,2062
1629800393906,2061
1629800393910,2061
1629800393914,2060
1629800393918,2059
1629800393922,2058
1629800393926,2058
1629800393930,2058
1629800393934,2057
1629800393938,2057
1629800393942,2057
1629800393946,2056
1629800393950,2055
1629800393954,2054
1629800393958,2053
1629800393962,2052
1629800393966,2052
1629800393970,2051
1629800393974,2051
1629800393978,2050
1629800393982,2048
1629800393986,2048
1629800393990,2046
1629800393994,2045
1629800393998,2044
1629800394002,2042
1629800394006,2041
1629800394010,2041
1629800394014,2040
1629800394018,2040
1629800394022,2040
1629800394026,2040
1629800394030,2040
1629800394034,2040
1629800394038,2040
1629800394042,2041
1629800394046,2042
1629800394050,2045
1629800394054,2048
1629800394058,2049
1629800394062,2052
1629800394066,2054
1629800394070,2055
1629800394074,2056
1629800394078,2058
1629800394082,2059
1629800394086,2060
1629800394090,2061
1629800394094,2062
1629800394098,2063
1629800394102,2063
1629800394106,2063
1629800394110,2063
1629800394114,2063
1629800394118,2063
1629800394122,2063
1629800394126,2063
1629800394130,2063
1629800394134,2064
1629800394138,2065
1629800394142,2065
1629800394146,2065
1629800394150,2065
1629800394154,2064
1629800394158,2064
1629800394162,2063
1629800394166,2063
1629800394170,2062
1629800394174,2062
1629800394178,2062
1629800394182,2063
1629800394186,2062
1629800394190,2062
1629800394194,2061
1629800394198,2060
1629800394202,2060
1629800394206,2060
1629800394210,2060
1629800394214,2060
1629800394218,2061
1629800394222,2061
1629800394226,2060
1629800394230,2060
1629800394234,2059
1629800394238,2059
1629800394242,2059
1629800394246,2059
1629800394250,2059
1629800394254,2060
1629800394258,2060
1629800394262,2060
1629800394266,2060
1629800394270,2060
1629800394274,2059
1629800394278,2059
1629800394282,2058
1629800394286,2058
1629800394290,2059
1629800394294,2059
1629800394298,2060
1629800394302,2060
1629800394306,2060
1629800394310,2060
1629800394314,2060
1629800394318,2059
1629800394322,2059
1629800394326,2060
1629800394330,2060
1629800394334,2060
1629800394338,2060
1629800394342,2061
1629800394346,2061
1629800394350,2061
1629800394354,2060
1629800394358,2060
1629800394362,2059
1629800394366,2059
1629800394370,2060
1629800394374,2060
1629800394378,2060
1629800394382,2060
1629800394386,2060
1629800394390,2060
1629800394394,2060
1629800394398,2059
1629800394402,2059
1629800394406,2058
1629800394410,2058
1629800394414,2059
1629800394418,2059
1629800394422,2059
1629800394426,2059
1629800394430,2059
1629800394434,2059
1629800394438,2059
1629800394442,2058
1629800394446,2058
1629800394450,2058
1629800394454,2059
1629800394458,2059
1629800394462,2059
1629800394466,2059
1629800394470,2059
1629800394474,2058
1629800394478,2058
1629800394482,2058
1629800394486,2058
1629800394490,2058
1629800394494,2059
1629800394498,2059
1629800394502,2059
1629800394506,2059
1629800394510,2059
1629800394514,2058
1629800394518,2057
1629800394522,2057
1629800394526,2056
1629800394530,2057
1629800394534,2057
1629800394538,2058
1629800394542,2058
1629800394546,2058
1629800394550,2056
1629800394554,2054
1629800394558,2053
1629800394562,2052
1629800394566,2052
1629800394570,2053
1629800394574,2053
1629800394578,2053
1629800394582,2053
1629800394586,2053
1629800394590,2053
1629800394594,2054
1629800394598,2056
1629800394602,2058
1629800394606,2059
1629800394610,2060
1629800394614,2061
1629800394618,2061
1629800394622,2061
1629800394626,2060
1629800394630,2060
1629800394634,2060
1629800394638,2060
1629800394642,2060
1629800394646,2059
1629800394650,2060
1629800394654,2060
1629800394658,2061
1629800394662,2063
1629800394666,2065
1629800394670,2064
1629800394674,2057
1629800394678,2039
1629800394682,2011
1629800394686,1980
1629800394690,1958
1629800394694,1954
1629800394698,1972
1629800394702,2003
1629800394706,2035
1629800394710,2057
1629800394714,2068
1629800394718,2070
1629800394722,2067
1629800394726,2064
1629800394730,2063
1629800394734,2063
1629800394738,2062
1629800394742,2062
1629800394746,2062
1629800394750,2062
1629800394754,2062
1629800394758,2061
1629800394762,2061
1629800394766,2060
1629800394770,2060
1629800394774,2060
1629800394778,2060
1629800394782,2060
1629800394786,2060
1629800394790,2059
1629800394794,2058
1629800394798,2057
1629800394802,2057
1629800394806,2057
1629800394810,2056
1629800394814,2056
1629800394818,2056
1629800394822,2056
1629800394826,2056
1629800394830,2055
1629800394834,2054
1629800394838,2053
1629800394842,2052
1629800394846,2052
1629800394850,2051
1629800394854,2050
1629800394858,2050
1629800394862,2049
1629800394866,2049
1629800394870,2048
1629800394874,2047
1629800394878,2045
1629800394882,2044
1629800394886,2042
1629800394890,2041
1629800394894,2041
1629800394898,2040
1629800394902,2040
1629800394906,2039
1629800394910,2039
1629800394914,2038
1629800394918,2038
1629800394922,2038
1629800394926,2039
1629800394930,2041
1629800394934,2043
1629800394938,2045
1629800394942,2048
1629800394946,2050
1629800394950,2052
1629800394954,2054
1629800394958,2055
1629800394962,2056
1629800394966,2057
1629800394970,2058
1629800394974,2060
1629800394978,2061
1629800394982,2062
1629800394986,2062
1629800394990,2062
1629800394994,2062
1629800394998,2062
1629800395002,2062
1629800395006,2062
1629800395010,2062
1629800395014,2063
1629800395018,2063
1629800395022,2064
1629800395026,2064
1629800395030,2064
1629800395034,2064
1629800395038,2063
1629800395042,2063
1629800395046,2063
1629800395050,2063
1629800395054,2063
1629800395058,2063
1629800395062,2063
1629800395066,2062
1629800395070,2062
1629800395074,2061
1629800395078,2060
1629800395082,2060
1629800395086,2060
1629800395090,2060
1629800395094,2060
1629800395098,2060
1629800395102,2060
1629800395106,2060
1629800395110,2059
1629800395114,2059
1629800395118,2058
1629800395122,2058
1629800395126,2058
1629800395130,2058
1629800395134,2059
1629800395138,2059
1629800395142,2059
1629800395146,2059
1629800395150,2059
1629800395154,2058
1629800395158,2058
1629800395162,2057
1629800395166,2057
1629800395170,2058
1629800395174,2058
1629800395178,2059
1629800395182,2060
1629800395186,2060
1629800395190,2059
1629800395194,2059
1629800395198,2058
1629800395202,2058
1629800395206,2058
1629800395210,2058
1629800395214,2058
1629800395218,2058
1629800395222,2058
1629800395226,2058
1629800395230,2058
1629800395234,2058
1629800395238,2058
1629800395242,2058
1629800395246,2058
1629800395250,2059
1629800395254,2059
1629800395258,2059
1629800395262,2059
1629800395266,2059
1629800395270,2059
1629800395274,2058
1629800395278,2057
1629800395282,2057
1629800395286,2057
1629800395290,2057
1629800395294,2058
1629800395298,2058
1629800395302,2058
1629800395306,2058
1629800395310,2058
1629800395314,2057
1629800395318,2057
1629800395322,2057
1629800395326,2057
1629800395330,2057
1629800395334,2057
1629800395338,2058
1629800395342,2058
1629800395346,2057
1629800395350,2057
1629800395354,2057
1629800395358,2056
1629800395362,2056
1629800395366,2056
1629800395370,2056
1629800395374,2056
1629800395378,2056
1629800395382,2056
1629800395386,2056
1629800395390,2055
1629800395394,2055
1629800395398,2055
1629800395402,2055
1629800395406,2055
1629800395410,2055
1629800395414,2055
1629800395418,2053
1629800395422,2052
1629800395426,2051
1629800395430,2051
1629800395434,2050
1629800395438,2050
1629800395442,2050
1629800395446,2050
1629800395450,2050
1629800395454,2051
1629800395458,2052
1629800395462,2054
1629800395466,2056
1629800395470,2057
1629800395474,2057
1629800395478,2057
1629800395482,2057
1629800395486,2056
1629800395490,2056
1629800395494,2057
1629800395498,2058
1629800395502,2059
1629800395506,2059
1629800395510,2058
1629800395514,2058
1629800395518,2057
1629800395522,2058
1629800395526,2059
1629800395530,2060
1629800395534,2060
1629800395538,2055
1629800395542,2040
1629800395546,2013
1629800395550,1981
1629800395554,1954
1629800395558,1945
1629800395562,1959
1629800395566,1991
1629800395570,2028
1629800395574,2057
1629800395578,2073
1629800395582,2077
1629800395586,2073
1629800395590,2068
1629800395594,2064
1629800395598,2061
1629800395602,2059
1629800395606,2058
1629800395610,2058
1629800395614,2058
1629800395618,2059
1629800395622,2059
1629800395626,2059
1629800395630,2058
1629800395634,2058
1629800395638,2057
1629800395642,2057
1629800395646,2056
1629800395650,2056
1629800395654,2057
1629800395658,2056
1629800395662,2056
1629800395666,2055
1629800395670,2055
1629800395674,2054
1629800395678,2053
1629800395682,2052
1629800395686,2052
1629800395690,2052
1629800395694,2052
1629800395698,2052
1629800395702,2051
1629800395706,2051
1629800395710,2050
1629800395714,2048
1629800395718,2048
1629800395722,2046
1629800395726,2045
1629800395730,2044
1629800395734,2044
1629800395738,2043
1629800395742,2042
1629800395746,2040
1629800395750,2039
1629800395754,2037
1629800395758,2035
1629800395762,2034
1629800395766,2034
1629800395770,2033
1629800395774,2033
1629800395778,2033
1629800395782,2034
1629800395786,2035
1629800395790,2036
1629800395794,2038
1629800395798,2040
1629800395802,2042
1629800395806,2045
1629800395810,2047
1629800395814,2049
1629800395818,2051
1629800395822,2054
1629800395826,2056
1629800395830,2058
1629800395834,2059
1629800395838,2059
1629800395842,2060
1629800395846,2060
1629800395850,2061
1629800395854,2061
1629800395858,2062
1629800395862,2063
1629800395866,2063
1629800395870,2063
1629800395874,2063
1629800395878,2063
1629800395882,2062
1629800395886,2063
1629800395890,2063
1629800395894,2064
1629800395898,2065
1629800395902,2066
1629800395906,2065
1629800395910,2065
1629800395914,2064
1629800395918,2064
1629800395922,2063
1629800395926,2063
1629800395930,2063
1629800395934,2063
1629800395938,2063
1629800395942,2063
1629800395946,2063
1629800395950,2063
1629800395954,2062
1629800395958,2062
1629800395962,2061
1629800395966,2061
1629800395970,2061
1629800395974,2061
1629800395978,2062
1629800395982,2062
1629800395986,2062
1629800395990,2062
1629800395994,2062
1629800395998,2061
1629800396002,2060
1629800396006,2060
1629800396010,2060
1629800396014,2060
1629800396018,2061
1629800396022,2061
1629800396026,2062
1629800396030,2062
1629800396034,2062
1629800396038,2062
1629800396042,2061
1629800396046,2061
1629800396050,2061
1629800396054,2062
1629800396058,2062
1629800396062,2063
1629800396066,2062
1629800396070,2062
1629800396074,2061
1629800396078,2061
1629800396082,2061
1629800396086,2061
1629800396090,2062
1629800396094,2063
1629800396098,2063
1629800396102,2063
1629800396106,2063
1629800396110,2062
1629800396114,2062
1629800396118,2061
1629800396122,2061
1629800396126,2061
1629800396130,2061
1629800396134,2062
1629800396138,2062
1629800396142,2062
1629800396146,2062
1629800396150,2061
1629800396154,2060
1629800396158,2060
1629800396162,2059
1629800396166,2058
1629800396170,2058
1629800396174,2059
1629800396178,2059
1629800396182,2060
1629800396186,2059
1629800396190,2058
1629800396194,2057
1629800396198,2055
1629800396202,2054
1629800396206,2054
1629800396210,2054
1629800396214,2055
1629800396218,2055
1629800396222,2055
1629800396226,2055
1629800396230,2055
1629800396234,2056
1629800396238,2057
1629800396242,2058
1629800396246,2060
1629800396250,2060
1629800396254,2061
1629800396258,2061
1629800396262,2061
1629800396266,2061
1629800396270,2061
1629800396274,2060
1629800396278,2060
1629800396282,2060
1629800396286,2059
1629800396290,2060
1629800396294,2061
1629800396298,2062
1629800396302,2064
1629800396306,2065
1629800396310,2064
1629800396314,2055
1629800396318,2035
1629800396322,2004
1629800396326,1973
1629800396330,1952
1629800396334,1953
1629800396338,1975
1629800396342,2009
1629800396346,2044
1629800396350,2066
1629800396354,2076
1629800396358,2077
1629800396362,2072
1629800396366,2068
1629800396370,2066
1629800396374,2064
1629800396378,2063
1629800396382,2063
1629800396386,2063
1629800396390,2063
1629800396394,2062
1629800396398,2062
1629800396402,2061
1629800396406,2060
1629800396410,2060
1629800396414,2061
1629800396418,2061
1629800396422,2061
1629800396426,2061
1629800396430,2060
1629800396434,2059
1629800396438,2058
1629800396442,2058
1629800396446,2057
1629800396450,2057
1629800396454,2057
1629800396458,2057
1629800396462,2057
1629800396466,2056
1629800396470,2056
1629800396474,2055
1629800396478,2054
1629800396482,2053
1629800396486,2052
1629800396490,2051
1629800396494,2051
1629800396498,2050
1629800396502,2049
1629800396506,2048
1629800396510,2048
1629800396514,2046
1629800396518,2044
1629800396522,2043
1629800396526,2041
1629800396530,2040
1629800396534,2039
1629800396538,2039
1629800396542,2038
1629800396546,2038
1629800396550,2037
1629800396554,2037
1629800396558,2037
1629800396562,2038
1629800396566,2040
1629800396570,2042
1629800396574,2045
1629800396578,2048
1629800396582,2049
1629800396586,2052
1629800396590,2054
1629800396594,2056
1629800396598,2057
1629800396602,2059
1629800396606,2060
1629800396610,2062
1629800396614,2063
1629800396618,2063
1629800396622,2064
1629800396626,2065
1629800396630,2065
1629800396634,2064
1629800396638,2064
1629800396642,2064
1629800396646,2064
1629800396650,2064
1629800396654,2065
1629800396658,2065
1629800396662,2066
1629800396666,2066
1629800396670,2066
1629800396674,2066
1629800396678,2065
1629800396682,2065
1629800396686,2065
1629800396690,2064
1629800396694,2065
1629800396698,2065
1629800396702,2065
1629800396706,2064
1629800396710,2064
1629800396714,2063
1629800396718,2062
1629800396722,2062
1629800396726,2062
1629800396730,2062
1629800396734,2062
1629800396738,2062
1629800396742,2062
1629800396746,2062
1629800396750,2062
1629800396754,2061
1629800396758,2061
1629800396762,2060
1629800396766,2060
1629800396770,2060
1629800396774,2060
1629800396778,2061
1629800396782,2061
1629800396786,2061
1629800396790,2061
1629800396794,2061
1629800396798,2060
1629800396802,2060
1629800396806,2060
1629800396810,2060
1629800396814,2061
1629800396818,2061
1629800396822,2062
1629800396826,2062
1629800396830,2061
1629800396834,2061
1629800396838,2061
1629800396842,2060
1629800396846,2060
1629800396850,2061
1629800396854,2061
1629800396858,2062
1629800396862,2062
1629800396866,2062
1629800396870,2061
1629800396874,2060
1629800396878,2060
1629800396882,2060
1629800396886,2061
1629800396890,2061
1629800396894,2061
1629800396898,2062
1629800396902,2061
1629800396906,2061
1629800396910,2061
1629800396914,2060
1629800396918,2060
1629800396922,2060
1629800396926,2060
1629800396930,2060
1629800396934,2060
1629800396938,2061
1629800396942,2061
1629800396946,2061
1629800396950,2061
1629800396954,2060
1629800396958,2059
1629800396962,2059
1629800396966,2059
1629800396970,2059
1629800396974,2059
1629800396978,2060
1629800396982,2060
1629800396986,2060
1629800396990,2059
1629800396994,2059
1629800396998,2059
1629800397002,2059
1629800397006,2059
1629800397010,2059
1629800397014,2060
1629800397018,2060
1629800397022,2060
1629800397026,2060
1629800397030,2060
1629800397034,2059
1629800397038,2059
1629800397042,2058
1629800397046,2058
1629800397050,2058
1629800397054,2059
1629800397058,2059
1629800397062,2060
1629800397066,2059
1629800397070,2057
1629800397074,2055
1629800397078,2054
1629800397082,2053
1629800397086,2053
1629800397090,2053
1629800397094,2054
1629800397098,2054
1629800397102,2054
1629800397106,2054
1629800397110,2055
1629800397114,2056
1629800397118,2058
1629800397122,2059
1629800397126,2059
1629800397130,2060
1629800397134,2060
1629800397138,2061
1629800397142,2061
1629800397146,2061
1629800397150,2061
1629800397154,2061
1629800397158,2060
1629800397162,2060
1629800397166,2060
1629800397170,2060
1629800397174,2061
1629800397178,2063
1629800397182,2065
1629800397186,2066
1629800397190,2061
1629800397194,2047
1629800397198,2020
1629800397202,1988
1629800397206,1961
1629800397210,1950
1629800397214,1961
1629800397218,1990
1629800397222,2024
1629800397226,2051
1629800397230,2067
1629800397234,2072
1629800397238,2070
1629800397242,2067
1629800397246,2065
1629800397250,2064
1629800397254,2064
1629800397258,2063
1629800397262,2063
1629800397266,2064
1629800397270,2063
1629800397274,2063
1629800397278,2062
1629800397282,2061
1629800397286,2061
1629800397290,2061
1629800397294,2061
1629800397298,2060
1629800397302,2060
1629800397306,2060
1629800397310,2060
1629800397314,2059
1629800397318,2059
1629800397322,2058
1629800397326,2057
1629800397330,2057
1629800397334,2057
1629800397338,2057
1629800397342,2057
1629800397346,2056
1629800397350,2055
1629800397354,2054
1629800397358,2053
1629800397362,2052
1629800397366,2051
1629800397370,2051
1629800397374,2051
1629800397378,2050
1629800397382,2049
1629800397386,2048
1629800397390,2048
1629800397394,2046
1629800397398,2045
1629800397402,2043
1629800397406,2042
1629800397410,2041
1629800397414,2040
1629800397418,2040
1629800397422,2040
1629800397426,2039
1629800397430,2038
1629800397434,2038
1629800397438,2037
1629800397442,2038
1629800397446,2039
1629800397450,2041
1629800397454,2044
1629800397458,2046
1629800397462,2048
1629800397466,2051
1629800397470,2053
1629800397474,2054
1629800397478,2056
1629800397482,2057
1629800397486,2058
1629800397490,2059
1629800397494,2060
1629800397498,2061
1629800397502,2062
1629800397506,2063
1629800397510,2063
1629800397514,2063
1629800397518,2062
1629800397522,2062
1629800397526,2062
1629800397530,2062
1629800397534,2062
1629800397538,2063
1629800397542,2063
1629800397546,2063
1629800397550,2063
1629800397554,2063
1629800397558,2062
1629800397562,2061
1629800397566,2061
1629800397570,2061
1629800397574,2061
1629800397578,2062
1629800397582,2062
1629800397586,2062
1629800397590,2062
1629800397594,2061
1629800397598,2061
1629800397602,2060
1629800397606,2059
1629800397610,2059
1629800397614,2060
1629800397618,2060
1629800397622,2060
1629800397626,2060
1629800397630,2060
1629800397634,2060
1629800397638,2059
1629800397642,2059
1629800397646,2059
1629800397650,2059
1629800397654,2059
1629800397658,2059
1629800397662,2060
1629800397666,2060
1629800397670,2059
1629800397674,2059
1629800397678,2058
1629800397682,2058
1629800397686,2058
1629800397690,2058
1629800397694,2058
1629800397698,2058
1629800397702,2058
1629800397706,2058
1629800397710,2058
1629800397714,2058
1629800397718,2058
1629800397722,2058
1629800397726,2058
1629800397730,2059
1629800397734,2059
1629800397738,2059
1629800397742,2059
1629800397746,2059
1629800397750,2058
1629800397754,2058
1629800397758,2058
1629800397762,2058
1629800397766,2058
1629800397770,2058
1629800397774,2058
1629800397778,2058
1629800397782,2059
1629800397786,2059
1629800397790,2059
1629800397794,2058
1629800397798,2058
1629800397802,2057
1629800397806,2057
1629800397810,2057
1629800397814,2057
1629800397818,2058
1629800397822,2058
1629800397826,2058
1629800397830,2058
1629800397834,2058
1629800397838,2057
1629800397842,2057
1629800397846,2057
1629800397850,2057
1629800397854,2058
1629800397858,2058
1629800397862,2059
1629800397866,2058
1629800397870,2058
1629800397874,2057
1629800397878,2057
1629800397882,2057
1629800397886,2057
1629800397890,2057
1629800397894,2057
1629800397898,2057
1629800397902,2058
1629800397906,2058
1629800397910,2057
1629800397914,2057
1629800397918,2057
1629800397922,2056
1629800397926,2056
1629800397930,2056
1629800397934,2056
1629800397938,2057
1629800397942,2057
1629800397946,2058
1629800397950,2057
1629800397954,2056
1629800397958,2054
1629800397962,2052
1629800397966,2051
1629800397970,2050
1629800397974,2051
1629800397978,2052
1629800397982,2053
1629800397986,2053
1629800397990,2052
1629800397994,2051
1629800397998,2051
1629800398002,2052
1629800398006,2054
1629800398010,2056
1629800398014,2058
1629800398018,2059
1629800398022,2059
1629800398026,2059
1629800398030,2059
1629800398034,2059
1629800398038,2059
1629800398042,2059
1629800398046,2059
1629800398050,2058
1629800398054,2059
1629800398058,2059
1629800398062,2059
1629800398066,2060
1629800398070,2061
1629800398074,2062
1629800398078,2062
1629800398082,2058
1629800398086,2044
1629800398090,2018
1629800398094,1987
1629800398098,1961
1629800398102,1951
1629800398106,1962
1629800398110,1989
1629800398114,2022
1629800398118,2048
1629800398122,2062
1629800398126,2067
1629800398130,2066
1629800398134,2065
1629800398138,2064
1629800398142,2064
1629800398146,2063
1629800398150,2061
1629800398154,2061
1629800398158,2061
1629800398162,2061
1629800398166,2061
1629800398170,2061
1629800398174,2061
1629800398178,2060
1629800398182,2060
1629800398186,2060
1629800398190,2059
1629800398194,2058
1629800398198,2057
1629800398202,2057
1629800398206,2056
1629800398210,2056
1629800398214,2056
1629800398218,2056
1629800398222,2056
1629800398226,2056
1629800398230,2055
1629800398234,2054
1629800398238,2053
1629800398242,2052
1629800398246,2052
1629800398250,2051
1629800398254,2051
1629800398258,2050
1629800398262,2050
1629800398266,2049
1629800398270,2049
1629800398274,2048
1629800398278,2047
1629800398282,2045
1629800398286,2044
1629800398290,2043
1629800398294,2042
1629800398298,2041
1629800398302,2041
1629800398306,2040
1629800398310,2040
1629800398314,2038
1629800398318,2037
1629800398322,2037
1629800398326,2036
1629800398330,2037
1629800398334,2039
1629800398338,2040
1629800398342,2042
1629800398346,2044
1629800398350,2046
1629800398354,2048
1629800398358,2049
1629800398362,2051
1629800398366,2053
1629800398370,2055
1629800398374,2057
1629800398378,2058
1629800398382,2060
1629800398386,2061
1629800398390,2061
1629800398394,2061
1629800398398,2060
1629800398402,2060
1629800398406,2061
1629800398410,2061
1629800398414,2062
1629800398418,2063
1629800398422,2063
1629800398426,2063
1629800398430,2063
1629800398434,2063
1629800398438,2062
1629800398442,2061
1629800398446,2061
1629800398450,2061
1629800398454,2062
1629800398458,2062
1629800398462,2063
1629800398466,2063
1629800398470,2063
1629800398474,2063
1629800398478,2062
1629800398482,2061
1629800398486,2060
1629800398490,2060
1629800398494,2061
1629800398498,2061
1629800398502,2061
1629800398506,2061
1629800398510,2061
1629800398514,2060
1629800398518,2059
1629800398522,2059
1629800398526,2059
1629800398530,2059
1629800398534,2060
1629800398538,2060
1629800398542,2060
1629800398546,2060
1629800398550,2059
1629800398554,2059
1629800398558,2059
1629800398562,2059
1629800398566,2059
1629800398570,2058
1629800398574,2058
1629800398578,2058
1629800398582,2058
1629800398586,2059
1629800398590,2059
1629800398594,2059
1629800398598,2059
1629800398602,2058
1629800398606,2058
1629800398610,2058
1629800398614,2059
1629800398618,2059
1629800398622,2059
1629800398626,2059
1629800398630,2059
1629800398634,2059
1629800398638,2059
1629800398642,2058
1629800398646,2058
1629800398650,2058
1629800398654,2058
1629800398658,2059
1629800398662,2059
1629800398666,2059
1629800398670,2059
1629800398674,2058
1629800398678,2058
1629800398682,2058
1629800398686,2058
1629800398690,2058
1629800398694,2058
1629800398698,2058
1629800398702,2058
1629800398706,2057
1629800398710,2057
1629800398714,2057
1629800398718,2057
1629800398722,2057
1629800398726,2057
1629800398730,2057
1629800398734,2057
1629800398738,2057
1629800398742,2057
1629800398746,2057
1629800398750,2057
1629800398754,2056
1629800398758,2056
1629800398762,2056
1629800398766,2056
1629800398770,2056
1629800398774,2057
1629800398778,2057
1629800398782,2057
1629800398786,2056
1629800398790,2056
1629800398794,2055
1629800398798,2055
1629800398802,2055
1629800398806,2055
1629800398810,2056
1629800398814,2056
1629800398818,2057
1629800398822,2057
1629800398826,2056
1629800398830,2054
1629800398834,2053
1629800398838,2051
1629800398842,2050
1629800398846,2050
1629800398850,2050
1629800398854,2050
1629800398858,2050
1629800398862,2050
1629800398866,2050
1629800398870,2051
1629800398874,2052
1629800398878,2053
1629800398882,2054
1629800398886,2055
1629800398890,2055
1629800398894,2056
1629800398898,2057
1629800398902,2058
1629800398906,2058
1629800398910,2058
1629800398914,2058
1629800398918,2057
1629800398922,2057
1629800398926,2056
1629800398930,2056
1629800398934,2057
1629800398938,2059
1629800398942,2060
1629800398946,2061
1629800398950,2061
1629800398954,2054
1629800398958,2038
1629800398962,2010
1629800398966,1978
1629800398970,1953
1629800398974,1946
1629800398978,1961
1629800398982,1994
1629800398986,2031
1629800398990,2060
1629800398994,2076
1629800398998,2079
1629800399002,2075
1629800399006,2069
1629800399010,2065
1629800399014,2063
1629800399018,2061
1629800399022,2061
1629800399026,2060
1629800399030,2059
1629800399034,2058
1629800399038,2058
1629800399042,2057
1629800399046,2057
1629800399050,2057
1629800399054,2057
1629800399058,2057
1629800399062,2056
1629800399066,2056
1629800399070,2056
1629800399074,2055
1629800399078,2055
1629800399082,2054
1629800399086,2053
1629800399090,2053
1629800399094,2053
1629800399098,2053
1629800399102,2053
1629800399106,2052
1629800399110,2051
1629800399114,2050
1629800399118,2049
1629800399122,2048
1629800399126,2048
1629800399130,2047
1629800399134,2047
1629800399138,2047
1629800399142,2046
1629800399146,2045
1629800399150,2044
1629800399154,2042
1629800399158,2040
1629800399162,2038
1629800399166,2037
1629800399170,2036
1629800399174,2035
1629800399178,2035
1629800399182,2034
1629800399186,2033
1629800399190,2033
1629800399194,2032
1629800399198,2032
1629800399202,2033
1629800399206,2034
1629800399210,2035
1629800399214,2038
1629800399218,2041
1629800399222,2044
1629800399226,2047
1629800399230,2048
1629800399234,2050
1629800399238,2051
1629800399242,2053
1629800399246,2055
1629800399250,2057
1629800399254,2058
1629800399258,2059
1629800399262,2060
1629800399266,2060
1629800399270,2061
1629800399274,2061
1629800399278,2061
1629800399282,2060
1629800399286,2060
1629800399290,2060
1629800399294,2060
1629800399298,2061
1629800399302,2062
1629800399306,2062
1629800399310,2062
1629800399314,2062
1629800399318,2062
1629800399322,2061
1629800399326,2061
1629800399330,2061
1629800399334,2061
1629800399338,2062
1629800399342,2062
1629800399346,2062
1629800399350,2061
1629800399354,2061
1629800399358,2059
1629800399362,2059
1629800399366,2058
1629800399370,2058
1629800399374,2058
1629800399378,2059
1629800399382,2059
1629800399386,2058
1629800399390,2058
1629800399394,2057
1629800399398,2056
1629800399402,2056
1629800399406,2056
1629800399410,2056
1629800399414,2057
1629800399418,2057
1629800399422,2057
1629800399426,2057
1629800399430,2057
1629800399434,2056
1629800399438,2056
1629800399442,2055
1629800399446,2055
1629800399450,2055
1629800399454,2056
1629800399458,2056
1629800399462,2057
1629800399466,2057
1629800399470,2057
1629800399474,2057
1629800399478,2057
1629800399482,2056
1629800399486,2056
1629800399490,2057
1629800399494,2057
1629800399498,2057
1629800399502,2058
1629800399506,2058
1629800399510,2057
1629800399514,2057
1629800399518,2057
1629800399522,2057
1629800399526,2057
1629800399530,2056
1629800399534,2057
1629800399538,2057
1629800399542,2058
1629800399546,2058
1629800399550,2058
1629800399554,2058
1629800399558,2057
1629800399562,2056
1629800399566,2056
1629800399570,2056
1629800399574,2057
1629800399578,2057
1629800399582,2058
1629800399586,2058
1629800399590,2058
1629800399594,2057
1629800399598,2056
1629800399602,2056
1629800399606,2055
1629800399610,2055
1629800399614,2056
1629800399618,2057
1629800399622,2058
1629800399626,2057
1629800399630,2056
1629800399634,2055
1629800399638,2053
1629800399642,2052
1629800399646,2051
1629800399650,2051
1629800399654,2052
1629800399658,2052
1629800399662,2052
1629800399666,2053
1629800399670,2053
1629800399674,2054
1629800399678,2055
1629800399682,2056
1629800399686,2058
1629800399690,2059
1629800399694,2059
1629800399698,2060
1629800399702,2060
1629800399706,2059
1629800399710,2059
1629800399714,2059
1629800399718,2058
1629800399722,2058
1629800399726,2058
1629800399730,2058
1629800399734,2059
1629800399738,2060
1629800399742,2062
1629800399746,2064
1629800399750,2063
1629800399754,2055
1629800399758,2036
1629800399762,2005
1629800399766,1973
1629800399770,1951
1629800399774,1949
1629800399778,1969
1629800399782,2003
1629800399786,2038
1629800399790,2062
1629800399794,2074
1629800399798,2075
1629800399802,2071
1629800399806,2068
1629800399810,2066
1629800399814,2064
1629800399818,2062
1629800399822,2062
1629800399826,2061
1629800399830,2061
1629800399834,2061
1629800399838,2060
1629800399842,2060
1629800399846,2059
1629800399850,2059
1629800399854,2059
1629800399858,2059
1629800399862,2059
1629800399866,2058
1629800399870,2058
1629800399874,2057
1629800399878,2057
1629800399882,2056
1629800399886,2056
1629800399890,2056
1629800399894,2056
1629800399898,2056
1629800399902,2055
1629800399906,2054
1629800399910,2053
1629800399914,2052
1629800399918,2051
1629800399922,2051
1629800399926,2050
1629800399930,2050
1629800399934,2049
1629800399938,2049
1629800399942,2048
1629800399946,2048
1629800399950,2046
1629800399954,2045
1629800399958,2043
1629800399962,2041
1629800399966,2040
1629800399970,2039
1629800399974,2038
1629800399978,2038
1629800399982,2037
1629800399986,2037
1629800399990,2037
1629800399994,2036
1629800399998,2036
1629800400002,2037
1629800400006,2038
1629800400010,2040
1629800400014,2043
1629800400018,2046
1629800400022,2048
1629800400026,2050
1629800400030,2052
1629800400034,2054
1629800400038,2055
1629800400042,2057
1629800400046,2058
1629800400050,2059
1629800400054,2061
1629800400058,2062
1629800400062,2063
1629800400066,2063
1629800400070,2063
1629800400074,2063
1629800400078,2063
1629800400082,2062
1629800400086,2062
1629800400090,2063
1629800400094,2063
1629800400098,2064
1629800400102,2064
1629800400106,2064
1629800400110,2064
1629800400114,2064
1629800400118,2064
1629800400122,2064
1629800400126,2063
1629800400130,2063
1629800400134,2063
1629800400138,2063
1629800400142,2064
1629800400146,2064
1629800400150,2063
1629800400154,2062
1629800400158,2062
1629800400162,2061
1629800400166,2061
1629800400170,2061
1629800400174,2062
1629800400178,2062
1629800400182,2062
1629800400186,2062
1629800400190,2061
1629800400194,2061
1629800400198,2060
1629800400202,2059
1629800400206,2059
1629800400210,2059
1629800400214,2059
1629800400218,2060
1629800400222,2060
1629800400226,2060
1629800400230,2060
1629800400234,2059
1629800400238,2059
1629800400242,2059
1629800400246,2059
1629800400250,2059
1629800400254,2059
1629800400258,2060
1629800400262,2060
1629800400266,2060
1629800400270,2060
1629800400274,2059
1629800400278,2059
1629800400282,2059
1629800400286,2059
1629800400290,2059
1629800400294,2059
1629800400298,2060
1629800400302,2060
1629800400306,2060
1629800400310,2060
1629800400314,2060
1629800400318,2059
1629800400322,2059
1629800400326,2059
1629800400330,2059
1629800400334,2060
1629800400338,2060
1629800400342,2060
1629800400346,2060
1629800400350,2060
1629800400354,2059
1629800400358,2059
1629800400362,2059
1629800400366,2059
1629800400370,2059
1629800400374,2059
1629800400378,2060
1629800400382,2060
1629800400386,2060
1629800400390,2060
1629800400394,2059
1629800400398,2059
1629800400402,2058
1629800400406,2058
1629800400410,2058
1629800400414,2059
1629800400418,2059
1629800400422,2059
1629800400426,2059
1629800400430,2058
1629800400434,2058
1629800400438,2057
1629800400442,2057
1629800400446,2057
1629800400450,2058
1629800400454,2058
1629800400458,2058
1629800400462,2058
1629800400466,2058
1629800400470,2058
1629800400474,2058
1629800400478,2057
1629800400482,2057
1629800400486,2057
1629800400490,2057
1629800400494,2058
1629800400498,2058
1629800400502,2058
1629800400506,2058
1629800400510,2058
1629800400514,2058
1629800400518,2057
1629800400522,2057
1629800400526,2057
1629800400530,2057
1629800400534,2057
1629800400538,2057
1629800400542,2058
1629800400546,2058
1629800400550,2057
1629800400554,2057
1629800400558,2057
1629800400562,2056
1629800400566,2056
1629800400570,2056
1629800400574,2057
1629800400578,2057
1629800400582,2057
1629800400586,2057
1629800400590,2057
1629800400594,2057
1629800400598,2057
1629800400602,2056
1629800400606,2054
1629800400610,2053
1629800400614,2052
1629800400618,2051
1629800400622,2051
1629800400626,2052
1629800400630,2052
1629800400634,2052
1629800400638,2052
1629800400642,2052
1629800400646,2052
1629800400650,2053
1629800400654,2055
1629800400658,2057
1629800400662,2059
1629800400666,2060
1629800400670,2060
1629800400674,2059
1629800400678,2058
1629800400682,2058
1629800400686,2058
1629800400690,2058
1629800400694,2059
1629800400698,2059
1629800400702,2059
1629800400706,2059
1629800400710,2060
1629800400714,2061
1629800400718,2062
1629800400722,2063
1629800400726,2063
1629800400730,2056
1629800400734,2039
1629800400738,2011
1629800400742,1979
1629800400746,1954
1629800400750,1949
1629800400754,1964
1629800400758,1994
1629800400762,2028
1629800400766,2053
1629800400770,2066
1629800400774,2070
1629800400778,2069
1629800400782,2067
1629800400786,2066
1629800400790,2064
1629800400794,2063
1629800400798,2062
1629800400802,2061
1629800400806,2061
1629800400810,2062
1629800400814,2062
1629800400818,2062
1629800400822,2062
1629800400826,2061
1629800400830,2061
1629800400834,2060
1629800400838,2059
1629800400842,2059
1629800400846,2059
1629800400850,2058
1629800400854,2058
1629800400858,2058
1629800400862,2058
1629800400866,2058
1629800400870,2058
1629800400874,2057
1629800400878,2056
1629800400882,2055
1629800400886,2054
1629800400890,2054
1629800400894,2054
1629800400898,2054
1629800400902,2054
1629800400906,2053
1629800400910,2053
1629800400914,2051
1629800400918,2050
1629800400922,2048
1629800400926,2048
1629800400930,2047
1629800400934,2046
1629800400938,2046
1629800400942,2045
1629800400946,2044
1629800400950,2043
1629800400954,2041
1629800400958,2040
1629800400962,2039
1629800400966,2038
1629800400970,2038
1629800400974,2038
1629800400978,2039
1629800400982,2040
1629800400986,2041
1629800400990,2043
1629800400994,2044
1629800400998,2046
1629800401002,2048
1629800401006,2049
1629800401010,2051
1629800401014,2054
1629800401018,2056
1629800401022,2058
1629800401026,2059
1629800401030,2060
1629800401034,2060
1629800401038,2060
1629800401042,2061
1629800401046,2061
1629800401050,2062
1629800401054,2062
1629800401058,2062
1629800401062,2063
1629800401066,2063
1629800401070,2063
1629800401074,2063
1629800401078,2062
1629800401082,2062
1629800401086,2062
1629800401090,2063
1629800401094,2063
1629800401098,2063
1629800401102,2063
1629800401106,2063
1629800401110,2062
1629800401114,2062
1629800401118,2062
1629800401122,2061
1629800401126,2061
1629800401130,2061
1629800401134,2062
1629800401138,2062
1629800401142,2062
1629800401146,2062
1629800401150,2061
1629800401154,2061
1629800401158,2060
1629800401162,2059
1629800401166,2059
1629800401170,2059
1629800401174,2060
1629800401178,2060
1629800401182,2060
1629800401186,2060
1629800401190,2060
1629800401194,2060
1629800401198,2059
1629800401202,2059
1629800401206,2058
1629800401210,2058
1629800401214,2059
1629800401218,2060
1629800401222,2060
1629800401226,2060
1629800401230,2060
1629800401234,2059
1629800401238,2058
1629800401242,2058
1629800401246,2058
1629800401250,2059
1629800401254,2059
1629800401258,2060
1629800401262,2060
1629800401266,2060
1629800401270,2060
1629800401274,2059
1629800401278,2059
1629800401282,2059
1629800401286,2059
1629800401290,2059
1629800401294,2059
1629800401298,2060
1629800401302,2060
1629800401306,2060
1629800401310,2060
1629800401314,2059
1629800401318,2058
1629800401322,2058
1629800401326,2059
1629800401330,2059
1629800401334,2060
1629800401338,2060
1629800401342,2060
1629800401346,2060
1629800401350,2060
1629800401354,2059
1629800401358,2058
1629800401362,2058
1629800401366,2058
1629800401370,2058
1629800401374,2059
1629800401378,2059
1629800401382,2060
1629800401386,2059
1629800401390,2059
1629800401394,2058
1629800401398,2058
1629800401402,2058
1629800401406,2058
1629800401410,2058
1629800401414,2058
1629800401418,2058
1629800401422,2059
1629800401426,2058
1629800401430,2058
1629800401434,2058
1629800401438,2058
1629800401442,2058
1629800401446,2058
1629800401450,2058
1629800401454,2058
1629800401458,2058
1629800401462,2058
1629800401466,2058
1629800401470,2058
1629800401474,2058
1629800401478,2057
1629800401482,2057
1629800401486,2057
1629800401490,2057
1629800401494,2057
1629800401498,2058
1629800401502,2058
1629800401506,2058
1629800401510,2058
1629800401514,2057
1629800401518,2057
1629800401522,2056
1629800401526,2057
1629800401530,2057
1629800401534,2057
1629800401538,2058
1629800401542,2058
1629800401546,2058
1629800401550,2057
1629800401554,2057
1629800401558,2056
1629800401562,2056
1629800401566,2056
1629800401570,2056
1629800401574,2057
1629800401578,2057
1629800401582,2058
1629800401586,2058
1629800401590,2057
1629800401594,2057
1629800401598,2056
1629800401602,2055
1629800401606,2055
1629800401610,2055
1629800401614,2056
1629800401618,2057
1629800401622,2057
1629800401626,2055
1629800401630,2054
1629800401634,2052
1629800401638,2050
1629800401642,2050
1629800401646,2050
1629800401650,2051
1629800401654,2052
1629800401658,2053
1629800401662,2053
1629800401666,2054
1629800401670,2054
1629800401674,2055
1629800401678,2056
1629800401682,2057
1629800401686,2058
1629800401690,2059
1629800401694,2059
1629800401698,2059
1629800401702,2060
1629800401706,2059
1629800401710,2059
1629800401714,2058
1629800401718,2058
1629800401722,2058
1629800401726,2058
1629800401730,2059
1629800401734,2061
1629800401738,2062
1629800401742,2064
1629800401746,2062
1629800401750,2053
1629800401754,2033
1629800401758,2003
1629800401762,1971
1629800401766,1951
1629800401770,1951
1629800401774,1972
1629800401778,2004
1629800401782,2037
1629800401786,2058
1629800401790,2068
1629800401794,2069
1629800401798,2066
1629800401802,2064
1629800401806,2063
1629800401810,2062
1629800401814,2061
1629800401818,2061
1629800401822,2062
1629800401826,2062
1629800401830,2061
1629800401834,2060
1629800401838,2059
1629800401842,2059
1629800401846,2058
1629800401850,2058
1629800401854,2058
1629800401858,2059
1629800401862,2059
1629800401866,2058
1629800401870,2057
1629800401874,2056
1629800401878,2055
1629800401882,2054
1629800401886,2054
1629800401890,2054
1629800401894,2054
1629800401898,2054
1629800401902,2054
1629800401906,2054
1629800401910,2053
1629800401914,2052
1629800401918,2051
1629800401922,2050
1629800401926,2049
1629800401930,2048
1629800401934,2048
1629800401938,2048
1629800401942,2048
1629800401946,2047
1629800401950,2045
1629800401954,2043
1629800401958,2041
1629800401962,2040
1629800401966,2038
1629800401970,2038
1629800401974,2038
1629800401978,2037
1629800401982,2037
1629800401986,2037
1629800401990,2036
1629800401994,2036
1629800401998,2036
1629800402002,2037
1629800402006,2038
1629800402010,2039
1629800402014,2042
1629800402018,2044
1629800402022,2047
1629800402026,2048
1629800402030,2050
1629800402034,2052
1629800402038,2053
1629800402042,2054
1629800402046,2055
1629800402050,2056
1629800402054,2057
1629800402058,2058
1629800402062,2059
1629800402066,2059
1629800402070,2059
1629800402074,2060
1629800402078,2059
1629800402082,2060
1629800402086,2060
1629800402090,2060
1629800402094,2060
1629800402098,2060
1629800402102,2060
1629800402106,2060
1629800402110,2060
1629800402114,2059
1629800402118,2059
1629800402122,2058
1629800402126,2058
1629800402130,2058
1629800402134,2059
1629800402138,2059
1629800402142,2059
1629800402146,2059
1629800402150,2059
1629800402154,2059
1629800402158,2059
1629800402162,2059
1629800402166,2058
1629800402170,2058
1629800402174,2058
1629800402178,2058
1629800402182,2058
1629800402186,2058
1629800402190,2057
1629800402194,2057
1629800402198,2056
1629800402202,2056
1629800402206,2056
1629800402210,2056
1629800402214,2056
1629800402218,2057
1629800402222,2057
1629800402226,2057
1629800402230,2057
1629800402234,2056
1629800402238,2056
1629800402242,2055
1629800402246,2056
1629800402250,2056
1629800402254,2057
1629800402258,2057
1629800402262,2057
1629800402266,2057
1629800402270,2057
1629800402274,2057
1629800402278,2056
1629800402282,2056
1629800402286,2056
1629800402290,2056
1629800402294,2056
1629800402298,2056
1629800402302,2056
1629800402306,2056
1629800402310,2056
1629800402314,2056
1629800402318,2056
1629800402322,2055
1629800402326,2055
1629800402330,2055
1629800402334,2056
1629800402338,2056
1629800402342,2056
1629800402346,2056
1629800402350,2056
1629800402354,2055
1629800402358,2055
1629800402362,2055
1629800402366,2055
1629800402370,2055
1629800402374,2055
1629800402378,2056
1629800402382,2056
1629800402386,2056
1629800402390,2055
1629800402394,2055
1629800402398,2054
1629800402402,2054
1629800402406,2054
1629800402410,2054
1629800402414,2055
1629800402418,2055
1629800402422,2055
1629800402426,2055
1629800402430,2055
1629800402434,2054
1629800402438,2053
1629800402442,2053
1629800402446,2053
1629800402450,2053
1629800402454,2054
1629800402458,2055
1629800402462,2055
1629800402466,2055
1629800402470,2055
1629800402474,2054
1629800402478,2053
1629800402482,2053
1629800402486,2053
1629800402490,2053
1629800402494,2054
1629800402498,2054
1629800402502,2054
1629800402506,2054
1629800402510,2053
1629800402514,2052
1629800402518,2051
1629800402522,2051
1629800402526,2051
1629800402530,2052
1629800402534,2053
1629800402538,2052
1629800402542,2050
1629800402546,2048
1629800402550,2047
1629800402554,2047
1629800402558,2048
1629800402562,2048
1629800402566,2048
1629800402570,2048
1629800402574,2048
1629800402578,2049
1629800402582,2051
1629800402586,2053
1629800402590,2055
1629800402594,2056
1629800402598,2055
1629800402602,2055
1629800402606,2054
1629800402610,2053
1629800402614,2053
1629800402618,2054
1629800402622,2055
1629800402626,2055
1629800402630,2055
1629800402634,2054
1629800402638,2054
1629800402642,2054
1629800402646,2056
1629800402650,2058
1629800402654,2058
1629800402658,2055
1629800402662,2044
1629800402666,2021
1629800402670,1989
1629800402674,1959
1629800402678,1943
1629800402682,1948
1629800402686,1975
1629800402690,2011
1629800402694,2046
1629800402698,2067
1629800402702,2076
1629800402706,2075
1629800402710,2070
1629800402714,2066
1629800402718,2062
1629800402722,2059
1629800402726,2057
1629800402730,2056
1629800402734,2057
1629800402738,2058
1629800402742,2058
1629800402746,2057
1629800402750,2056
1629800402754,2055
1629800402758,2054
1629800402762,2053
1629800402766,2053
1629800402770,2053
1629800402774,2053
1629800402778,2054
1629800402782,2054
1629800402786,2053
1629800402790,2052
1629800402794,2050
1629800402798,2049
1629800402802,2048
1629800402806,2049
1629800402810,2049
1629800402814,2050
1629800402818,2050
1629800402822,2049
1629800402826,2049
1629800402830,2048
1629800402834,2048
1629800402838,2046
1629800402842,2045
1629800402846,2044
1629800402850,2043
1629800402854,2043
1629800402858,2042
1629800402862,2040
1629800402866,2039
1629800402870,2037
1629800402874,2035
1629800402878,2034
1629800402882,2033
1629800402886,2032
1629800402890,2032
1629800402894,2032
1629800402898,2032
1629800402902,2032
1629800402906,2033
1629800402910,2033
1629800402914,2033
1629800402918,2035
1629800402922,2036
1629800402926,2039
1629800402930,2042
1629800402934,2045
1629800402938,2048
1629800402942,2050
1629800402946,2052
1629800402950,2054
1629800402954,2056
1629800402958,2056
1629800402962,2057
1629800402966,2058
1629800402970,2058
1629800402974,2059
1629800402978,2060
1629800402982,2060
1629800402986,2061
1629800402990,2061
1629800402994,2060
1629800402998,2060
1629800403002,2060
1629800403006,2060
1629800403010,2060
1629800403014,2061
1629800403018,2061
1629800403022,2061
1629800403026,2062
1629800403030,2061
1629800403034,2061
1629800403038,2060
1629800403042,2060
1629800403046,2060
1629800403050,2060
1629800403054,2060
1629800403058,2060
1629800403062,2060
1629800403066,2060
1629800403070,2060
1629800403074,2060
1629800403078,2059
1629800403082,2059
1629800403086,2058
1629800403090,2058
1629800403094,2058
1629800403098,2058
1629800403102,2058
1629800403106,2058
1629800403110,2058
1629800403114,2057
1629800403118,2057
1629800403122,2056
1629800403126,2056
1629800403130,2056
1629800403134,2057
1629800403138,2057
1629800403142,2058
1629800403146,2058
1629800403150,2058
1629800403154,2058
1629800403158,2057
1629800403162,2057
1629800403166,2057
1629800403170,2057
1629800403174,2058
1629800403178,2058
1629800403182,2058
1629800403186,2058
1629800403190,2058
1629800403194,2058
1629800403198,2057
1629800403202,2057
1629800403206,2057
1629800403210,2057
1629800403214,2058
1629800403218,2058
1629800403222,2059
1629800403226,2059
1629800403230,2059
1629800403234,2059
1629800403238,2058
1629800403242,2058
1629800403246,2058
1629800403250,2058
1629800403254,2058
1629800403258,2059
1629800403262,2059
1629800403266,2059
1629800403270,2059
1629800403274,2058
1629800403278,2057
1629800403282,2057
1629800403286,2056
1629800403290,2057
1629800403294,2057
1629800403298,2058
1629800403302,2058
1629800403306,2059
1629800403310,2059
1629800403314,2058
1629800403318,2058
1629800403322,2057
1629800403326,2057
1629800403330,2058
1629800403334,2058
1629800403338,2059
1629800403342,2059
1629800403346,2059
1629800403350,2059
1629800403354,2058
1629800403358,2057
1629800403362,2057
1629800403366,2057
1629800403370,2058
1629800403374,2058
1629800403378,2057
1629800403382,2056
1629800403386,2055
1629800403390,2054
1629800403394,2053
1629800403398,2052
1629800403402,2052
1629800403406,2052
1629800403410,2052
1629800403414,2053
1629800403418,2053
1629800403422,2055
1629800403426,2056
1629800403430,2057
1629800403434,2058
1629800403438,2059
1629800403442,2059
1629800403446,2059
1629800403450,2059
1629800403454,2060
1629800403458,2060
1629800403462,2061
1629800403466,2061
1629800403470,2060
1629800403474,2059
1629800403478,2059
1629800403482,2058
1629800403486,2059
1629800403490,2060
1629800403494,2062
1629800403498,2063
1629800403502,2059
1629800403506,2044
1629800403510,2017
1629800403514,1984
1629800403518,1957
1629800403522,1947
1629800403526,1959
1629800403530,1990
1629800403534,2026
1629800403538,2056
1629800403542,2073
1629800403546,2078
1629800403550,2075
1629800403554,2071
1629800403558,2067
1629800403562,2064
1629800403566,2062
1629800403570,2061
1629800403574,2062
1629800403578,2063
1629800403582,2063
1629800403586,2063
1629800403590,2062
1629800403594,2061
1629800403598,2060
1629800403602,2060
1629800403606,2060
1629800403610,2060
1629800403614,2060
1629800403618,2060
1629800403622,2060
1629800403626,2060
1629800403630,2059
1629800403634,2058
1629800403638,2057
1629800403642,2056
1629800403646,2056
1629800403650,2055
1629800403654,2055
1629800403658,2055
1629800403662,2055
1629800403666,2055
1629800403670,2054
1629800403674,2053
1629800403678,2052
1629800403682,2051
1629800403686,2050
1629800403690,2049
1629800403694,2048
1629800403698,2048
1629800403702,2048
1629800403706,2046
1629800403710,2045
1629800403714,2043
1629800403718,2041
1629800403722,2039
1629800403726,2039
1629800403730,2038
1629800403734,2039
1629800403738,2038
1629800403742,2038
1629800403746,2038
1629800403750,2038
1629800403754,2038
1629800403758,2039
1629800403762,2041
1629800403766,2043
1629800403770,2046
1629800403774,2048
1629800403778,2051
1629800403782,2054
1629800403786,2056
1629800403790,2057
1629800403794,2059
1629800403798,2060
1629800403802,2061
1629800403806,2062
1629800403810,2062
1629800403814,2063
1629800403818,2063
1629800403822,2064
1629800403826,2064
1629800403830,2064
1629800403834,2064
1629800403838,2064
1629800403842,2064
1629800403846,2064
1629800403850,2064
1629800403854,2065
1629800403858,2065
1629800403862,2066
1629800403866,2066
1629800403870,2065
1629800403874,2065
1629800403878,2065
1629800403882,2064
1629800403886,2064
1629800403890,2064
1629800403894,2064
1629800403898,2065
1629800403902,2065
1629800403906,2065
1629800403910,2065
1629800403914,2064
1629800403918,2063
1629800403922,2062
1629800403926,2061
1629800403930,2061
1629800403934,2062
1629800403938,2062
1629800403942,2063
1629800403946,2062
1629800403950,2062
1629800403954,2061
1629800403958,2061
1629800403962,2061
1629800403966,2061
1629800403970,2061
1629800403974,2061
1629800403978,2062
1629800403982,2062
1629800403986,2062
1629800403990,2061
1629800403994,2060
1629800403998,2060
1629800404002,2059
1629800404006,2059
1629800404010,2060
1629800404014,2061
1629800404018,2061
1629800404022,2061
1629800404026,2060
1629800404030,2059
1629800404034,2059
1629800404038,2059
1629800404042,2060
1629800404046,2061
1629800404050,2062
1629800404054,2062
1629800404058,2061
1629800404062,2060
1629800404066,2060
1629800404070,2060
1629800404074,2060
1629800404078,2060
1629800404082,2061
1629800404086,2061
1629800404090,2061
1629800404094,2061
1629800404098,2061
1629800404102,2061
1629800404106,2061
1629800404110,2061
1629800404114,2061
1629800404118,2060
1629800404122,2059
1629800404126,2058
1629800404130,2057
1629800404134,2057
1629800404138,2057
1629800404142,2058
1629800404146,2059
1629800404150,2059
1629800404154,2060
1629800404158,2061
1629800404162,2061
1629800404166,2061
1629800404170,2060
1629800404174,2060
1629800404178,2060
1629800404182,2060
1629800404186,2060
1629800404190,2060
1629800404194,2060
1629800404198,2058
1629800404202,2057
1629800404206,2055
1629800404210,2053
1629800404214,2052
1629800404218,2052
1629800404222,2053
1629800404226,2055
1629800404230,2056
1629800404234,2056
1629800404238,2055
1629800404242,2055
1629800404246,2055
1629800404250,2057
1629800404254,2059
1629800404258,2061
1629800404262,2062
1629800404266,2062
1629800404270,2062
1629800404274,2062
1629800404278,2061
1629800404282,2061
1629800404286,2062
1629800404290,2061
1629800404294,2061
1629800404298,2061
1629800404302,2061
1629800404306,2061
1629800404310,2061
1629800404314,2062
1629800404318,2063
1629800404322,2062
1629800404326,2056
1629800404330,2041
1629800404334,2015
1629800404338,1985
1629800404342,1961
1629800404346,1952
1629800404350,1965
1629800404354,1993
1629800404358,2025
1629800404362,2050
1629800404366,2064
1629800404370,2068
1629800404374,2067
1629800404378,2064
1629800404382,2063
1629800404386,2063
1629800404390,2062
1629800404394,2062
1629800404398,2061
1629800404402,2061
1629800404406,2060
1629800404410,2060
1629800404414,2060
1629800404418,2061
1629800404422,2061
1629800404426,2061
1629800404430,2061
1629800404434,2060
1629800404438,2059
1629800404442,2058
1629800404446,2058
1629800404450,2057
1629800404454,2057
1629800404458,2056
1629800404462,2055
1629800404466,2054
1629800404470,2054
1629800404474,2054
1629800404478,2054
1629800404482,2055
1629800404486,2054
1629800404490,2053
1629800404494,2053
1629800404498,2051
1629800404502,2050
1629800404506,2049
1629800404510,2048
1629800404514,2047
1629800404518,2046
1629800404522,2045
1629800404526,2044
1629800404530,2044
1629800404534,2043
1629800404538,2042
1629800404542,2041
1629800404546,2039
1629800404550,2039
1629800404554,2038
1629800404558,2037
1629800404562,2036
1629800404566,2034
1629800404570,2033
1629800404574,2034
1629800404578,2035
1629800404582,2038
1629800404586,2041
1629800404590,2043
1629800404594,2045
1629800404598,2046
1629800404602,2048
1629800404606,2049
1629800404610,2052
1629800404614,2055
1629800404618,2057
1629800404622,2058
1629800404626,2058
1629800404630,2058
1629800404634,2059
1629800404638,2060
1629800404642,2061
1629800404646,2062
1629800404650,2063
1629800404654,2064
1629800404658,2064
1629800404662,2064
1629800404666,2064
1629800404670,2063
1629800404674,2063
1629800404678,2062
1629800404682,2063
1629800404686,2062
1629800404690,2062
1629800404694,2062
1629800404698,2062
1629800404702,2062
1629800404706,2062
1629800404710,2062
1629800404714,2062
1629800404718,2062
1629800404722,2062
1629800404726,2062
1629800404730,2062
1629800404734,2062
1629800404738,2062
1629800404742,2061
1629800404746,2061
1629800404750,2060
1629800404754,2060
1629800404758,2060
1629800404762,2061
1629800404766,2061
1629800404770,2060
1629800404774,2060
1629800404778,2060
1629800404782,2060
1629800404786,2060
1629800404790,2060
1629800404794,2059
1629800404798,2057
1629800404802,2056
1629800404806,2056
1629800404810,2056
1629800404814,2056
1629800404818,2056
1629800404822,2056
1629800404826,2057
1629800404830,2058
1629800404834,2060
1629800404838,2060
1629800404842,2060
1629800404846,2060
1629800404850,2059
1629800404854,2059
1629800404858,2059
1629800404862,2059
1629800404866,2059
1629800404870,2059
1629800404874,2059
1629800404878,2058
1629800404882,2058
1629800404886,2057
1629800404890,2057
1629800404894,2056
1629800404898,2056
1629800404902,2057
1629800404906,2057
1629800404910,2057
1629800404914,2057
1629800404918,2057
1629800404922,2057
1629800404926,2058
1629800404930,2059
1629800404934,2059
1629800404938,2058
1629800404942,2057
1629800404946,2056
1629800404950,2055
1629800404954,2056
1629800404958,2056
1629800404962,2057
1629800404966,2056
1629800404970,2055
1629800404974,2053
1629800404978,2051
1629800404982,2049
1629800404986,2049
1629800404990,2048
1629800404994,2049
1629800404998,2049
1629800405002,2049
1629800405006,2049
1629800405010,2049
1629800405014,2051
1629800405018,2053
1629800405022,2055
1629800405026,2057
1629800405030,2057
