timestamp,ecg_waveform
1630497978000,2054
1630497978004,2053
1630497978008,2052
1630497978012,2051
1630497978016,2050
1630497978020,2048
1630497978024,2048
1630497978028,2048
1630497978032,2048
1630497978036,2048
1630497978040,2048
1630497978044,2048
1630497978048,2048
1630497978052,2048
1630497978056,2048
1630497978060,2048
1630497978064,2048
1630497978068,2049
1630497978072,2050
1630497978076,2050
1630497978080,2051
1630497978084,2051
1630497978088,2050
1630497978092,2049
1630497978096,2048
1630497978100,2048
1630497978104,2048
1630497978108,2048
1630497978112,2048
1630497978116,2049
1630497978120,2048
1630497978124,2048
1630497978128,2048
1630497978132,2047
1630497978136,2046
1630497978140,2045
1630497978144,2045
1630497978148,2045
1630497978152,2045
1630497978156,2045
1630497978160,2045
1630497978164,2044
1630497978168,2043
1630497978172,2041
1630497978176,2040
1630497978180,2039
1630497978184,2041
1630497978188,2044
1630497978192,2047
1630497978196,2048
1630497978200,2048
1630497978204,2048
1630497978208,2046
1630497978212,2043
1630497978216,2041
1630497978220,2041
1630497978224,2041
1630497978228,2041
1630497978232,2041
1630497978236,2041
1630497978240,2041
1630497978244,2041
1630497978248,2041
1630497978252,2041
1630497978256,2040
1630497978260,2039
1630497978264,2039
1630497978268,2040
1630497978272,2041
1630497978276,2043
1630497978280,2043
1630497978284,2039
1630497978288,2033
1630497978292,2032
1630497978296,2041
1630497978300,2063
1630497978304,2106
1630497978308,2161
1630497978312,2214
1630497978316,2245
1630497978320,2240
1630497978324,2196
1630497978328,2125
1630497978332,2051
1630497978336,1997
1630497978340,1971
1630497978344,1973
1630497978348,1990
1630497978352,2009
1630497978356,2021
1630497978360,2028
1630497978364,2032
1630497978368,2035
1630497978372,2037
1630497978376,2038
1630497978380,2039
1630497978384,2039
1630497978388,2040
1630497978392,2041
1630497978396,2043
1630497978400,2045
1630497978404,2045
1630497978408,2046
1630497978412,2046
1630497978416,2047
1630497978420,2048
1630497978424,2048
1630497978428,2049
1630497978432,2050
1630497978436,2052
1630497978440,2053
1630497978444,2054
1630497978448,2055
1630497978452,2056
1630497978456,2057
1630497978460,2058
1630497978464,2059
1630497978468,2060
1630497978472,2062
1630497978476,2064
1630497978480,2066
1630497978484,2068
1630497978488,2069
1630497978492,2070
1630497978496,2070
1630497978500,2071
1630497978504,2072
1630497978508,2073
1630497978512,2073
1630497978516,2074
1630497978520,2073
1630497978524,2072
1630497978528,2070
1630497978532,2068
1630497978536,2066
1630497978540,2065
1630497978544,2064
1630497978548,2063
1630497978552,2063
1630497978556,2063
1630497978560,2064
1630497978564,2064
1630497978568,2063
1630497978572,2063
1630497978576,2061
1630497978580,2060
1630497978584,2059
1630497978588,2057
1630497978592,2057
1630497978596,2056
1630497978600,2056
1630497978604,2055
1630497978608,2054
1630497978612,2053
1630497978616,2051
1630497978620,2051
1630497978624,2051
1630497978628,2051
1630497978632,2052
1630497978636,2052
1630497978640,2053
1630497978644,2053
1630497978648,2053
1630497978652,2053
1630497978656,2053
1630497978660,2053
1630497978664,2054
1630497978668,2054
1630497978672,2055
1630497978676,2055
1630497978680,2055
1630497978684,2055
1630497978688,2055
1630497978692,2055
1630497978696,2054
1630497978700,2054
1630497978704,2054
1630497978708,2054
1630497978712,2054
1630497978716,2053
1630497978720,2053
1630497978724,2053
1630497978728,2053
1630497978732,2052
1630497978736,2051
1630497978740,2051
1630497978744,2050
1630497978748,2050
1630497978752,2050
1630497978756,2050
1630497978760,2050
1630497978764,2049
1630497978768,2048
1630497978772,2047
1630497978776,2046
1630497978780,2047
1630497978784,2048
1630497978788,2052
1630497978792,2055
1630497978796,2057
1630497978800,2056
1630497978804,2054
1630497978808,2052
1630497978812,2050
1630497978816,2049
1630497978820,2049
1630497978824,2049
1630497978828,2049
1630497978832,2048
1630497978836,2048
1630497978840,2048
1630497978844,2048
1630497978848,2048
1630497978852,2048
1630497978856,2048
1630497978860,2048
1630497978864,2048
1630497978868,2048
1630497978872,2050
1630497978876,2051
1630497978880,2048
1630497978884,2044
1630497978888,2039
1630497978892,2041
1630497978896,2054
1630497978900,2083
1630497978904,2128
1630497978908,2182
1630497978912,2232
1630497978916,2261
1630497978920,2253
1630497978924,2206
1630497978928,2134
1630497978932,2061
1630497978936,2009
1630497978940,1987
1630497978944,1994
1630497978948,2013
1630497978952,2031
1630497978956,2041
1630497978960,2043
1630497978964,2043
1630497978968,2042
1630497978972,2041
1630497978976,2042
1630497978980,2042
1630497978984,2043
1630497978988,2043
1630497978992,2044
1630497978996,2045
1630497979000,2046
1630497979004,2046
1630497979008,2047
1630497979012,2047
1630497979016,2048
1630497979020,2048
1630497979024,2048
1630497979028,2048
1630497979032,2050
1630497979036,2051
1630497979040,2052
1630497979044,2052
1630497979048,2053
1630497979052,2053
1630497979056,2054
1630497979060,2054
1630497979064,2056
1630497979068,2057
1630497979072,2059
1630497979076,2061
1630497979080,2062
1630497979084,2063
1630497979088,2064
1630497979092,2065
1630497979096,2066
1630497979100,2066
1630497979104,2067
1630497979108,2067
1630497979112,2067
1630497979116,2067
1630497979120,2067
1630497979124,2066
1630497979128,2065
1630497979132,2063
1630497979136,2061
1630497979140,2059
1630497979144,2058
1630497979148,2057
1630497979152,2058
1630497979156,2058
1630497979160,2059
1630497979164,2058
1630497979168,2058
1630497979172,2057
1630497979176,2056
1630497979180,2054
1630497979184,2053
1630497979188,2052
1630497979192,2052
1630497979196,2051
1630497979200,2051
1630497979204,2051
1630497979208,2050
1630497979212,2050
1630497979216,2048
1630497979220,2048
1630497979224,2048
1630497979228,2048
1630497979232,2049
1630497979236,2050
1630497979240,2051
1630497979244,2051
1630497979248,2051
1630497979252,2051
1630497979256,2051
1630497979260,2051
1630497979264,2051
1630497979268,2051
1630497979272,2052
1630497979276,2052
1630497979280,2053
1630497979284,2053
1630497979288,2053
1630497979292,2052
1630497979296,2052
1630497979300,2051
1630497979304,2051
1630497979308,2051
1630497979312,2051
1630497979316,2051
1630497979320,2050
1630497979324,2050
1630497979328,2049
1630497979332,2048
1630497979336,2048
1630497979340,2048
1630497979344,2048
1630497979348,2048
1630497979352,2048
1630497979356,2048
1630497979360,2048
1630497979364,2048
1630497979368,2047
1630497979372,2046
1630497979376,2045
1630497979380,2044
1630497979384,2044
1630497979388,2043
1630497979392,2043
1630497979396,2044
1630497979400,2045
1630497979404,2047
1630497979408,2049
1630497979412,2052
1630497979416,2053
1630497979420,2053
1630497979424,2052
1630497979428,2050
1630497979432,2048
1630497979436,2048
1630497979440,2048
1630497979444,2048
1630497979448,2048
1630497979452,2047
1630497979456,2046
1630497979460,2046
1630497979464,2046
1630497979468,2046
1630497979472,2046
1630497979476,2047
1630497979480,2047
1630497979484,2047
1630497979488,2048
1630497979492,2048
1630497979496,2048
1630497979500,2047
1630497979504,2043
1630497979508,2037
1630497979512,2036
1630497979516,2044
1630497979520,2066
1630497979524,2107
1630497979528,2161
1630497979532,2218
1630497979536,2257
1630497979540,2263
1630497979544,2227
1630497979548,2159
1630497979552,2082
1630497979556,2021
1630497979560,1990
1630497979564,1989
1630497979568,2006
1630497979572,2025
1630497979576,2037
1630497979580,2040
1630497979584,2039
1630497979588,2039
1630497979592,2039
1630497979596,2040
1630497979600,2041
1630497979604,2041
1630497979608,2042
1630497979612,2042
1630497979616,2042
1630497979620,2043
1630497979624,2043
1630497979628,2044
1630497979632,2045
1630497979636,2046
1630497979640,2047
1630497979644,2048
1630497979648,2048
1630497979652,2048
1630497979656,2048
1630497979660,2048
1630497979664,2048
1630497979668,2049
1630497979672,2051
1630497979676,2052
1630497979680,2053
1630497979684,2054
1630497979688,2055
1630497979692,2056
1630497979696,2057
1630497979700,2059
1630497979704,2060
1630497979708,2061
1630497979712,2062
1630497979716,2063
1630497979720,2064
1630497979724,2065
1630497979728,2065
1630497979732,2065
1630497979736,2064
1630497979740,2062
1630497979744,2061
1630497979748,2060
1630497979752,2059
1630497979756,2058
1630497979760,2057
1630497979764,2056
1630497979768,2055
1630497979772,2054
1630497979776,2054
1630497979780,2054
1630497979784,2054
1630497979788,2054
1630497979792,2054
1630497979796,2054
1630497979800,2054
1630497979804,2053
1630497979808,2052
1630497979812,2051
1630497979816,2050
1630497979820,2048
1630497979824,2048
1630497979828,2048
1630497979832,2048
1630497979836,2048
1630497979840,2048
1630497979844,2048
1630497979848,2048
1630497979852,2048
1630497979856,2048
1630497979860,2048
1630497979864,2048
1630497979868,2049
1630497979872,2050
1630497979876,2050
1630497979880,2051
1630497979884,2051
1630497979888,2051
1630497979892,2050
1630497979896,2050
1630497979900,2050
1630497979904,2050
1630497979908,2050
1630497979912,2050
1630497979916,2051
1630497979920,2051
1630497979924,2050
1630497979928,2049
1630497979932,2049
1630497979936,2048
1630497979940,2048
1630497979944,2048
1630497979948,2048
1630497979952,2048
1630497979956,2048
1630497979960,2048
1630497979964,2048
1630497979968,2047
1630497979972,2046
1630497979976,2045
1630497979980,2045
1630497979984,2045
1630497979988,2045
1630497979992,2045
1630497979996,2045
1630497980000,2045
1630497980004,2045
1630497980008,2045
1630497980012,2044
1630497980016,2043
1630497980020,2043
1630497980024,2042
1630497980028,2042
1630497980032,2042
1630497980036,2042
1630497980040,2042
1630497980044,2042
1630497980048,2041
1630497980052,2040
1630497980056,2040
1630497980060,2042
1630497980064,2045
1630497980068,2048
1630497980072,2050
1630497980076,2051
1630497980080,2050
1630497980084,2048
1630497980088,2047
1630497980092,2046
1630497980096,2045
1630497980100,2045
1630497980104,2045
1630497980108,2044
1630497980112,2045
1630497980116,2045
1630497980120,2045
1630497980124,2045
1630497980128,2045
1630497980132,2045
1630497980136,2044
1630497980140,2044
1630497980144,2045
1630497980148,2046
1630497980152,2047
1630497980156,2046
1630497980160,2041
1630497980164,2035
1630497980168,2034
1630497980172,2043
1630497980176,2067
1630497980180,2109
1630497980184,2164
1630497980188,2217
1630497980192,2249
1630497980196,2246
1630497980200,2204
1630497980204,2133
1630497980208,2059
1630497980212,2004
1630497980216,1978
1630497980220,1981
1630497980224,2000
1630497980228,2020
1630497980232,2033
1630497980236,2037
1630497980240,2037
1630497980244,2037
1630497980248,2036
1630497980252,2036
1630497980256,2036
1630497980260,2037
1630497980264,2038
1630497980268,2039
1630497980272,2039
1630497980276,2039
1630497980280,2040
1630497980284,2041
1630497980288,2041
1630497980292,2042
1630497980296,2042
1630497980300,2042
1630497980304,2043
1630497980308,2044
1630497980312,2045
1630497980316,2046
1630497980320,2047
1630497980324,2048
1630497980328,2048
1630497980332,2048
1630497980336,2049
1630497980340,2050
1630497980344,2051
1630497980348,2053
1630497980352,2054
1630497980356,2056
1630497980360,2057
1630497980364,2059
1630497980368,2059
1630497980372,2060
1630497980376,2060
1630497980380,2060
1630497980384,2060
1630497980388,2060
1630497980392,2060
1630497980396,2059
1630497980400,2058
1630497980404,2058
1630497980408,2057
1630497980412,2056
1630497980416,2054
1630497980420,2053
1630497980424,2052
1630497980428,2052
1630497980432,2052
1630497980436,2052
1630497980440,2053
1630497980444,2053
1630497980448,2052
1630497980452,2051
1630497980456,2050
1630497980460,2049
1630497980464,2048
1630497980468,2048
1630497980472,2048
1630497980476,2048
1630497980480,2047
1630497980484,2047
1630497980488,2046
1630497980492,2045
1630497980496,2045
1630497980500,2045
1630497980504,2045
1630497980508,2045
1630497980512,2046
1630497980516,2047
1630497980520,2047
1630497980524,2047
1630497980528,2048
1630497980532,2048
1630497980536,2048
1630497980540,2047
1630497980544,2047
1630497980548,2047
1630497980552,2048
1630497980556,2048
1630497980560,2048
1630497980564,2048
1630497980568,2048
1630497980572,2048
1630497980576,2047
1630497980580,2046
1630497980584,2045
1630497980588,2045
1630497980592,2045
1630497980596,2045
1630497980600,2045
1630497980604,2045
1630497980608,2044
1630497980612,2043
1630497980616,2043
1630497980620,2042
1630497980624,2042
1630497980628,2042
1630497980632,2042
1630497980636,2042
1630497980640,2042
1630497980644,2042
1630497980648,2041
1630497980652,2040
1630497980656,2039
1630497980660,2039
1630497980664,2039
1630497980668,2040
1630497980672,2040
1630497980676,2040
1630497980680,2039
1630497980684,2039
1630497980688,2038
1630497980692,2038
1630497980696,2037
1630497980700,2037
1630497980704,2036
1630497980708,2036
1630497980712,2038
1630497980716,2041
1630497980720,2044
1630497980724,2047
1630497980728,2048
1630497980732,2047
1630497980736,2045
1630497980740,2043
1630497980744,2041
1630497980748,2040
1630497980752,2040
1630497980756,2041
1630497980760,2041
1630497980764,2041
1630497980768,2040
1630497980772,2040
1630497980776,2039
1630497980780,2038
1630497980784,2038
1630497980788,2038
1630497980792,2039
1630497980796,2040
1630497980800,2041
1630497980804,2042
1630497980808,2042
1630497980812,2038
1630497980816,2033
1630497980820,2031
1630497980824,2037
1630497980828,2055
1630497980832,2093
1630497980836,2145
1630497980840,2199
1630497980844,2235
1630497980848,2237
1630497980852,2201
1630497980856,2134
1630497980860,2059
1630497980864,2000
1630497980868,1969
1630497980872,1965
1630497980876,1981
1630497980880,2000
1630497980884,2015
1630497980888,2023
1630497980892,2027
1630497980896,2030
1630497980900,2031
1630497980904,2032
1630497980908,2033
1630497980912,2034
1630497980916,2036
1630497980920,2037
1630497980924,2038
1630497980928,2039
1630497980932,2039
1630497980936,2039
1630497980940,2040
1630497980944,2040
1630497980948,2041
1630497980952,2042
1630497980956,2043
1630497980960,2045
1630497980964,2046
1630497980968,2046
1630497980972,2047
1630497980976,2047
1630497980980,2048
1630497980984,2048
1630497980988,2049
1630497980992,2051
1630497980996,2053
1630497981000,2055
1630497981004,2056
1630497981008,2057
1630497981012,2058
1630497981016,2059
1630497981020,2060
1630497981024,2062
1630497981028,2064
1630497981032,2066
1630497981036,2067
1630497981040,2067
1630497981044,2068
1630497981048,2067
1630497981052,2066
1630497981056,2065
1630497981060,2064
1630497981064,2062
1630497981068,2062
1630497981072,2061
1630497981076,2061
1630497981080,2061
1630497981084,2061
1630497981088,2061
1630497981092,2061
1630497981096,2060
1630497981100,2059
1630497981104,2058
1630497981108,2057
1630497981112,2057
1630497981116,2057
1630497981120,2056
1630497981124,2055
1630497981128,2054
1630497981132,2052
1630497981136,2051
1630497981140,2049
1630497981144,2049
1630497981148,2049
1630497981152,2049
1630497981156,2049
1630497981160,2050
1630497981164,2050
1630497981168,2050
1630497981172,2049
1630497981176,2049
1630497981180,2049
1630497981184,2050
1630497981188,2050
1630497981192,2051
1630497981196,2052
1630497981200,2052
1630497981204,2053
1630497981208,2052
1630497981212,2052
1630497981216,2051
1630497981220,2051
1630497981224,2051
1630497981228,2051
1630497981232,2051
1630497981236,2051
1630497981240,2051
1630497981244,2051
1630497981248,2051
1630497981252,2050
1630497981256,2049
1630497981260,2049
1630497981264,2049
1630497981268,2049
1630497981272,2049
1630497981276,2049
1630497981280,2049
1630497981284,2048
1630497981288,2048
1630497981292,2048
1630497981296,2048
1630497981300,2047
1630497981304,2047
1630497981308,2047
1630497981312,2047
1630497981316,2047
1630497981320,2047
1630497981324,2047
1630497981328,2046
1630497981332,2046
1630497981336,2045
1630497981340,2045
1630497981344,2044
1630497981348,2044
1630497981352,2044
1630497981356,2046
1630497981360,2048
1630497981364,2051
1630497981368,2054
1630497981372,2055
1630497981376,2054
1630497981380,2052
1630497981384,2050
1630497981388,2048
1630497981392,2048
1630497981396,2048
1630497981400,2049
1630497981404,2049
1630497981408,2048
1630497981412,2048
1630497981416,2048
1630497981420,2048
1630497981424,2047
1630497981428,2047
1630497981432,2048
1630497981436,2048
1630497981440,2048
1630497981444,2049
1630497981448,2051
1630497981452,2050
1630497981456,2047
1630497981460,2042
1630497981464,2038
1630497981468,2043
1630497981472,2061
1630497981476,2096
1630497981480,2146
1630497981484,2200
1630497981488,2243
1630497981492,2257
1630497981496,2233
1630497981500,2174
1630497981504,2099
1630497981508,2033
1630497981512,1991
1630497981516,1980
1630497981520,1993
1630497981524,2014
1630497981528,2031
1630497981532,2040
1630497981536,2042
1630497981540,2042
1630497981544,2042
1630497981548,2042
1630497981552,2043
1630497981556,2045
1630497981560,2046
1630497981564,2047
1630497981568,2048
1630497981572,2048
1630497981576,2048
1630497981580,2048
1630497981584,2048
1630497981588,2049
1630497981592,2050
1630497981596,2051
1630497981600,2052
1630497981604,2052
1630497981608,2053
1630497981612,2053
1630497981616,2053
1630497981620,2053
1630497981624,2054
1630497981628,2055
1630497981632,2056
1630497981636,2058
1630497981640,2059
1630497981644,2060
1630497981648,2061
1630497981652,2063
1630497981656,2064
1630497981660,2065
1630497981664,2066
1630497981668,2067
1630497981672,2068
1630497981676,2070
1630497981680,2070
1630497981684,2071
1630497981688,2070
1630497981692,2070
1630497981696,2068
1630497981700,2067
1630497981704,2066
1630497981708,2064
1630497981712,2062
1630497981716,2061
1630497981720,2060
1630497981724,2059
1630497981728,2059
1630497981732,2059
1630497981736,2058
1630497981740,2058
1630497981744,2058
1630497981748,2057
1630497981752,2057
1630497981756,2057
1630497981760,2056
1630497981764,2055
1630497981768,2054
1630497981772,2053
1630497981776,2051
1630497981780,2050
1630497981784,2049
1630497981788,2049
1630497981792,2049
1630497981796,2050
1630497981800,2050
1630497981804,2051
1630497981808,2050
1630497981812,2050
1630497981816,2050
1630497981820,2050
1630497981824,2050
1630497981828,2051
1630497981832,2051
1630497981836,2052
1630497981840,2052
1630497981844,2052
1630497981848,2052
1630497981852,2052
1630497981856,2052
1630497981860,2052
1630497981864,2051
1630497981868,2051
1630497981872,2051
1630497981876,2051
1630497981880,2051
1630497981884,2051
1630497981888,2050
1630497981892,2049
1630497981896,2048
1630497981900,2048
1630497981904,2048
1630497981908,2048
1630497981912,2048
1630497981916,2048
1630497981920,2048
1630497981924,2048
1630497981928,2047
1630497981932,2047
1630497981936,2046
1630497981940,2046
1630497981944,2046
1630497981948,2045
1630497981952,2046
1630497981956,2045
1630497981960,2045
1630497981964,2045
1630497981968,2045
1630497981972,2045
1630497981976,2044
1630497981980,2043
1630497981984,2041
1630497981988,2041
1630497981992,2042
1630497981996,2045
1630497982000,2048
1630497982004,2051
1630497982008,2052
1630497982012,2051
1630497982016,2049
1630497982020,2048
1630497982024,2046
1630497982028,2046
1630497982032,2046
1630497982036,2046
1630497982040,2046
1630497982044,2046
1630497982048,2046
1630497982052,2046
1630497982056,2045
1630497982060,2045
1630497982064,2045
1630497982068,2045
1630497982072,2045
1630497982076,2046
1630497982080,2047
1630497982084,2048
1630497982088,2048
1630497982092,2045
1630497982096,2039
1630497982100,2035
1630497982104,2037
1630497982108,2053
1630497982112,2086
1630497982116,2136
1630497982120,2193
1630497982124,2239
1630497982128,2257
1630497982132,2237
1630497982136,2181
1630497982140,2106
1630497982144,2037
1630497982148,1993
1630497982152,1979
1630497982156,1991
1630497982160,2011
1630497982164,2029
1630497982168,2037
1630497982172,2040
1630497982176,2039
1630497982180,2038
1630497982184,2038
1630497982188,2038
1630497982192,2040
1630497982196,2041
1630497982200,2042
1630497982204,2043
1630497982208,2043
1630497982212,2043
1630497982216,2043
1630497982220,2044
1630497982224,2044
1630497982228,2045
1630497982232,2046
1630497982236,2047
1630497982240,2048
1630497982244,2048
1630497982248,2048
1630497982252,2048
1630497982256,2049
1630497982260,2049
1630497982264,2050
1630497982268,2051
1630497982272,2052
1630497982276,2054
1630497982280,2056
1630497982284,2057
1630497982288,2058
1630497982292,2059
1630497982296,2060
1630497982300,2061
1630497982304,2062
1630497982308,2063
1630497982312,2064
1630497982316,2065
1630497982320,2066
1630497982324,2065
1630497982328,2065
1630497982332,2063
1630497982336,2062
1630497982340,2060
1630497982344,2059
1630497982348,2057
1630497982352,2056
1630497982356,2056
1630497982360,2055
1630497982364,2055
1630497982368,2055
1630497982372,2054
1630497982376,2054
1630497982380,2054
1630497982384,2053
1630497982388,2053
1630497982392,2053
1630497982396,2052
1630497982400,2052
1630497982404,2051
1630497982408,2050
1630497982412,2049
1630497982416,2048
1630497982420,2047
1630497982424,2046
1630497982428,2046
1630497982432,2047
1630497982436,2047
1630497982440,2048
1630497982444,2048
1630497982448,2048
1630497982452,2048
1630497982456,2048
1630497982460,2048
1630497982464,2048
1630497982468,2048
1630497982472,2048
1630497982476,2048
1630497982480,2048
1630497982484,2048
1630497982488,2048
1630497982492,2048
1630497982496,2048
1630497982500,2048
1630497982504,2048
1630497982508,2048
1630497982512,2048
1630497982516,2048
1630497982520,2048
1630497982524,2047
1630497982528,2047
1630497982532,2046
1630497982536,2046
1630497982540,2045
1630497982544,2044
1630497982548,2044
1630497982552,2044
1630497982556,2044
1630497982560,2044
1630497982564,2044
1630497982568,2043
1630497982572,2043
1630497982576,2042
1630497982580,2042
1630497982584,2042
1630497982588,2041
1630497982592,2041
1630497982596,2041
1630497982600,2042
1630497982604,2041
1630497982608,2040
1630497982612,2039
1630497982616,2038
1630497982620,2039
1630497982624,2041
1630497982628,2045
1630497982632,2048
1630497982636,2049
1630497982640,2049
1630497982644,2048
1630497982648,2046
1630497982652,2044
1630497982656,2043
1630497982660,2042
1630497982664,2042
1630497982668,2042
1630497982672,2042
1630497982676,2042
1630497982680,2043
1630497982684,2043
1630497982688,2043
1630497982692,2042
1630497982696,2041
1630497982700,2041
1630497982704,2041
1630497982708,2042
1630497982712,2044
1630497982716,2044
1630497982720,2041
1630497982724,2035
1630497982728,2032
1630497982732,2035
1630497982736,2052
1630497982740,2088
1630497982744,2139
1630497982748,2195
1630497982752,2238
1630497982756,2250
1630497982760,2223
1630497982764,2161
1630497982768,2086
1630497982772,2021
1630497982776,1982
1630497982780,1973
1630497982784,1987
1630497982788,2007
1630497982792,2024
1630497982796,2032
1630497982800,2035
1630497982804,2035
1630497982808,2034
1630497982812,2034
1630497982816,2034
1630497982820,2035
1630497982824,2036
1630497982828,2037
1630497982832,2038
1630497982836,2039
1630497982840,2040
1630497982844,2040
1630497982848,2040
1630497982852,2041
1630497982856,2041
1630497982860,2041
1630497982864,2041
1630497982868,2042
1630497982872,2043
1630497982876,2045
1630497982880,2046
1630497982884,2047
1630497982888,2047
1630497982892,2048
1630497982896,2048
1630497982900,2048
1630497982904,2049
1630497982908,2050
1630497982912,2052
1630497982916,2054
1630497982920,2056
1630497982924,2057
1630497982928,2058
1630497982932,2058
1630497982936,2059
1630497982940,2059
1630497982944,2060
1630497982948,2060
1630497982952,2060
1630497982956,2060
1630497982960,2059
1630497982964,2058
1630497982968,2056
1630497982972,2055
1630497982976,2053
1630497982980,2052
1630497982984,2051
1630497982988,2050
1630497982992,2051
1630497982996,2051
1630497983000,2051
1630497983004,2052
1630497983008,2052
1630497983012,2051
1630497983016,2050
1630497983020,2049
1630497983024,2048
1630497983028,2048
1630497983032,2048
1630497983036,2048
1630497983040,2048
1630497983044,2047
1630497983048,2046
1630497983052,2045
1630497983056,2044
1630497983060,2044
1630497983064,2044
1630497983068,2045
1630497983072,2046
1630497983076,2046
1630497983080,2046
1630497983084,2047
1630497983088,2046
1630497983092,2046
1630497983096,2046
1630497983100,2046
1630497983104,2046
1630497983108,2046
1630497983112,2046
1630497983116,2046
1630497983120,2046
1630497983124,2046
1630497983128,2046
1630497983132,2045
1630497983136,2045
1630497983140,2044
1630497983144,2044
1630497983148,2044
1630497983152,2044
1630497983156,2044
1630497983160,2044
1630497983164,2043
1630497983168,2042
1630497983172,2042
1630497983176,2041
1630497983180,2041
1630497983184,2040
1630497983188,2040
1630497983192,2040
1630497983196,2040
1630497983200,2040
1630497983204,2040
1630497983208,2039
1630497983212,2039
1630497983216,2038
1630497983220,2037
1630497983224,2036
1630497983228,2036
1630497983232,2039
1630497983236,2042
1630497983240,2045
1630497983244,2048
1630497983248,2048
1630497983252,2047
1630497983256,2044
1630497983260,2042
1630497983264,2041
1630497983268,2040
1630497983272,2041
1630497983276,2041
1630497983280,2041
1630497983284,2041
1630497983288,2040
1630497983292,2040
1630497983296,2039
1630497983300,2039
1630497983304,2039
1630497983308,2039
1630497983312,2040
1630497983316,2041
1630497983320,2042
1630497983324,2044
1630497983328,2043
1630497983332,2038
1630497983336,2032
1630497983340,2030
1630497983344,2039
1630497983348,2063
1630497983352,2107
1630497983356,2162
1630497983360,2213
1630497983364,2241
1630497983368,2232
1630497983372,2185
1630497983376,2114
1630497983380,2044
1630497983384,1992
1630497983388,1969
1630497983392,1972
1630497983396,1989
1630497983400,2008
1630497983404,2020
1630497983408,2027
1630497983412,2030
1630497983416,2032
1630497983420,2034
1630497983424,2035
1630497983428,2036
1630497983432,2037
1630497983436,2037
1630497983440,2038
1630497983444,2039
1630497983448,2039
1630497983452,2040
1630497983456,2041
1630497983460,2042
1630497983464,2042
1630497983468,2043
1630497983472,2043
1630497983476,2044
1630497983480,2045
1630497983484,2046
1630497983488,2046
1630497983492,2047
1630497983496,2048
1630497983500,2048
1630497983504,2049
1630497983508,2051
1630497983512,2053
1630497983516,2054
1630497983520,2055
1630497983524,2057
1630497983528,2058
1630497983532,2060
1630497983536,2061
1630497983540,2061
1630497983544,2062
1630497983548,2063
1630497983552,2064
1630497983556,2065
1630497983560,2066
1630497983564,2066
1630497983568,2065
1630497983572,2064
1630497983576,2063
1630497983580,2061
1630497983584,2060
1630497983588,2059
1630497983592,2058
1630497983596,2058
1630497983600,2058
1630497983604,2058
1630497983608,2058
1630497983612,2058
1630497983616,2057
1630497983620,2057
1630497983624,2056
1630497983628,2055
1630497983632,2054
1630497983636,2053
1630497983640,2052
1630497983644,2050
1630497983648,2049
1630497983652,2048
1630497983656,2047
1630497983660,2047
1630497983664,2046
1630497983668,2046
1630497983672,2046
1630497983676,2046
1630497983680,2047
1630497983684,2047
1630497983688,2048
1630497983692,2048
1630497983696,2048
1630497983700,2048
1630497983704,2048
1630497983708,2048
1630497983712,2048
1630497983716,2048
1630497983720,2049
1630497983724,2049
1630497983728,2049
1630497983732,2048
1630497983736,2048
1630497983740,2048
1630497983744,2048
1630497983748,2048
1630497983752,2048
1630497983756,2048
1630497983760,2048
1630497983764,2048
1630497983768,2048
1630497983772,2047
1630497983776,2047
1630497983780,2046
1630497983784,2045
1630497983788,2045
1630497983792,2045
1630497983796,2046
1630497983800,2046
1630497983804,2046
1630497983808,2045
1630497983812,2044
1630497983816,2043
1630497983820,2041
1630497983824,2041
1630497983828,2042
1630497983832,2045
1630497983836,2048
1630497983840,2050
1630497983844,2051
1630497983848,2050
1630497983852,2049
1630497983856,2047
1630497983860,2046
1630497983864,2045
1630497983868,2045
1630497983872,2045
1630497983876,2045
1630497983880,2045
1630497983884,2045
1630497983888,2045
1630497983892,2044
1630497983896,2044
1630497983900,2044
1630497983904,2044
1630497983908,2045
1630497983912,2046
1630497983916,2047
1630497983920,2048
1630497983924,2048
1630497983928,2045
1630497983932,2039
1630497983936,2035
1630497983940,2039
1630497983944,2056
1630497983948,2091
1630497983952,2141
1630497983956,2196
1630497983960,2238
1630497983964,2250
1630497983968,2223
1630497983972,2163
1630497983976,2088
1630497983980,2025
1630497983984,1986
1630497983988,1977
1630497983992,1990
1630497983996,2010
1630497984000,2027
1630497984004,2035
1630497984008,2038
1630497984012,2039
1630497984016,2039
1630497984020,2040
1630497984024,2041
1630497984028,2041
1630497984032,2042
1630497984036,2044
1630497984040,2045
1630497984044,2046
1630497984048,2047
1630497984052,2047
1630497984056,2047
1630497984060,2048
1630497984064,2048
1630497984068,2048
1630497984072,2049
1630497984076,2050
1630497984080,2051
1630497984084,2052
1630497984088,2053
1630497984092,2053
1630497984096,2054
1630497984100,2054
1630497984104,2056
1630497984108,2057
1630497984112,2059
1630497984116,2060
1630497984120,2062
1630497984124,2063
1630497984128,2065
1630497984132,2065
1630497984136,2066
1630497984140,2067
1630497984144,2068
1630497984148,2069
1630497984152,2070
1630497984156,2070
1630497984160,2070
1630497984164,2070
1630497984168,2068
1630497984172,2067
1630497984176,2065
1630497984180,2063
1630497984184,2061
1630497984188,2060
1630497984192,2060
1630497984196,2060
1630497984200,2060
1630497984204,2061
1630497984208,2061
1630497984212,2061
1630497984216,2060
1630497984220,2059
1630497984224,2058
1630497984228,2058
1630497984232,2057
1630497984236,2057
1630497984240,2056
1630497984244,2055
1630497984248,2053
1630497984252,2052
1630497984256,2051
1630497984260,2050
1630497984264,2050
1630497984268,2050
1630497984272,2050
1630497984276,2051
1630497984280,2051
1630497984284,2051
1630497984288,2051
1630497984292,2052
1630497984296,2051
1630497984300,2051
1630497984304,2051
1630497984308,2051
1630497984312,2052
1630497984316,2052
1630497984320,2052
1630497984324,2052
1630497984328,2052
1630497984332,2052
1630497984336,2051
1630497984340,2051
1630497984344,2051
1630497984348,2051
1630497984352,2051
1630497984356,2051
1630497984360,2051
1630497984364,2050
1630497984368,2049
1630497984372,2049
1630497984376,2048
1630497984380,2048
1630497984384,2047
1630497984388,2047
1630497984392,2047
1630497984396,2047
1630497984400,2047
1630497984404,2047
1630497984408,2046
1630497984412,2044
1630497984416,2043
1630497984420,2042
1630497984424,2043
1630497984428,2046
1630497984432,2049
1630497984436,2052
1630497984440,2053
1630497984444,2052
1630497984448,2050
1630497984452,2048
1630497984456,2047
1630497984460,2047
1630497984464,2047
1630497984468,2047
1630497984472,2047
1630497984476,2047
1630497984480,2047
1630497984484,2047
1630497984488,2047
1630497984492,2046
1630497984496,2046
1630497984500,2046
1630497984504,2046
1630497984508,2046
1630497984512,2047
1630497984516,2048
1630497984520,2048
1630497984524,2046
1630497984528,2040
1630497984532,2035
1630497984536,2037
1630497984540,2052
1630497984544,2085
1630497984548,2134
1630497984552,2192
1630497984556,2239
1630497984560,2259
1630497984564,2241
1630497984568,2185
1630497984572,2110
1630497984576,2042
1630497984580,1997
1630497984584,1984
1630497984588,1995
1630497984592,2014
1630497984596,2031
1630497984600,2039
1630497984604,2041
1630497984608,2040
1630497984612,2039
1630497984616,2038
1630497984620,2038
1630497984624,2039
1630497984628,2040
1630497984632,2041
1630497984636,2042
1630497984640,2043
1630497984644,2044
1630497984648,2044
1630497984652,2045
1630497984656,2045
1630497984660,2046
1630497984664,2046
1630497984668,2047
1630497984672,2048
1630497984676,2048
1630497984680,2049
1630497984684,2050
1630497984688,2050
1630497984692,2051
1630497984696,2051
1630497984700,2052
1630497984704,2053
1630497984708,2054
1630497984712,2056
1630497984716,2058
1630497984720,2059
1630497984724,2060
1630497984728,2061
1630497984732,2061
1630497984736,2062
1630497984740,2063
1630497984744,2063
1630497984748,2064
1630497984752,2064
1630497984756,2064
1630497984760,2063
1630497984764,2063
1630497984768,2061
1630497984772,2060
1630497984776,2057
1630497984780,2055
1630497984784,2054
1630497984788,2053
1630497984792,2053
1630497984796,2054
1630497984800,2054
1630497984804,2054
1630497984808,2054
1630497984812,2053
1630497984816,2053
1630497984820,2052
1630497984824,2052
1630497984828,2051
1630497984832,2051
1630497984836,2051
1630497984840,2050
1630497984844,2049
1630497984848,2049
1630497984852,2048
1630497984856,2048
1630497984860,2047
1630497984864,2047
1630497984868,2048
1630497984872,2048
1630497984876,2049
1630497984880,2049
1630497984884,2050
1630497984888,2050
1630497984892,2050
1630497984896,2049
1630497984900,2049
1630497984904,2049
1630497984908,2050
1630497984912,2050
1630497984916,2051
1630497984920,2051
1630497984924,2051
1630497984928,2050
1630497984932,2050
1630497984936,2049
1630497984940,2048
1630497984944,2048
1630497984948,2048
1630497984952,2048
1630497984956,2048
1630497984960,2049
1630497984964,2049
1630497984968,2048
1630497984972,2048
1630497984976,2047
1630497984980,2046
1630497984984,2045
1630497984988,2045
1630497984992,2045
1630497984996,2045
1630497985000,2045
1630497985004,2044
1630497985008,2043
1630497985012,2042
1630497985016,2042
1630497985020,2044
1630497985024,2047
1630497985028,2049
1630497985032,2051
1630497985036,2052
1630497985040,2050
1630497985044,2048
1630497985048,2047
1630497985052,2046
1630497985056,2045
1630497985060,2044
1630497985064,2044
1630497985068,2043
1630497985072,2044
1630497985076,2044
1630497985080,2044
1630497985084,2044
1630497985088,2044
1630497985092,2044
1630497985096,2043
1630497985100,2043
1630497985104,2044
1630497985108,2045
1630497985112,2046
1630497985116,2045
1630497985120,2039
1630497985124,2033
1630497985128,2031
1630497985132,2040
1630497985136,2065
1630497985140,2110
1630497985144,2167
1630497985148,2221
1630497985152,2253
1630497985156,2248
1630497985160,2204
1630497985164,2133
1630497985168,2059
1630497985172,2006
1630497985176,1982
1630497985180,1986
1630497985184,2004
1630497985188,2022
1630497985192,2033
1630497985196,2037
1630497985200,2037
1630497985204,2037
1630497985208,2037
1630497985212,2037
1630497985216,2037
1630497985220,2037
1630497985224,2038
1630497985228,2039
1630497985232,2040
1630497985236,2041
1630497985240,2042
1630497985244,2042
1630497985248,2042
1630497985252,2043
1630497985256,2043
1630497985260,2043
1630497985264,2044
1630497985268,2044
1630497985272,2045
1630497985276,2046
1630497985280,2048
1630497985284,2048
1630497985288,2049
1630497985292,2049
1630497985296,2049
1630497985300,2050
1630497985304,2052
1630497985308,2054
1630497985312,2055
1630497985316,2057
1630497985320,2059
1630497985324,2060
1630497985328,2060
1630497985332,2060
1630497985336,2060
1630497985340,2060
1630497985344,2060
1630497985348,2059
1630497985352,2059
1630497985356,2058
1630497985360,2057
1630497985364,2055
1630497985368,2053
1630497985372,2052
1630497985376,2050
1630497985380,2049
1630497985384,2048
1630497985388,2048
1630497985392,2049
1630497985396,2050
1630497985400,2051
1630497985404,2051
1630497985408,2051
1630497985412,2050
1630497985416,2049
1630497985420,2048
1630497985424,2048
1630497985428,2047
1630497985432,2046
1630497985436,2046
1630497985440,2046
1630497985444,2045
1630497985448,2045
1630497985452,2045
1630497985456,2044
1630497985460,2044
1630497985464,2044
1630497985468,2044
1630497985472,2045
1630497985476,2046
1630497985480,2047
1630497985484,2047
1630497985488,2047
1630497985492,2046
1630497985496,2046
1630497985500,2046
1630497985504,2046
1630497985508,2046
1630497985512,2047
1630497985516,2046
1630497985520,2046
1630497985524,2046
1630497985528,2046
1630497985532,2046
1630497985536,2046
1630497985540,2045
1630497985544,2044
1630497985548,2044
1630497985552,2044
1630497985556,2044
1630497985560,2044
1630497985564,2044
1630497985568,2044
1630497985572,2043
1630497985576,2042
1630497985580,2042
1630497985584,2041
1630497985588,2041
1630497985592,2041
1630497985596,2041
1630497985600,2041
1630497985604,2040
1630497985608,2039
1630497985612,2038
1630497985616,2038
1630497985620,2040
1630497985624,2043
1630497985628,2046
1630497985632,2048
1630497985636,2048
1630497985640,2047
1630497985644,2045
1630497985648,2043
1630497985652,2042
1630497985656,2041
1630497985660,2040
1630497985664,2040
1630497985668,2040
1630497985672,2040
1630497985676,2041
1630497985680,2041
1630497985684,2040
1630497985688,2040
1630497985692,2039
1630497985696,2038
1630497985700,2039
1630497985704,2040
1630497985708,2042
1630497985712,2043
1630497985716,2040
1630497985720,2034
1630497985724,2030
1630497985728,2032
1630497985732,2048
1630497985736,2081
1630497985740,2132
1630497985744,2189
1630497985748,2231
1630497985752,2244
1630497985756,2217
1630497985760,2158
1630497985764,2084
1630497985768,2020
1630497985772,1982
1630497985776,1972
1630497985780,1984
1630497985784,2003
1630497985788,2020
1630497985792,2029
1630497985796,2033
1630497985800,2035
1630497985804,2036
1630497985808,2036
1630497985812,2036
1630497985816,2036
1630497985820,2037
1630497985824,2038
1630497985828,2039
1630497985832,2040
1630497985836,2042
1630497985840,2043
1630497985844,2044
1630497985848,2044
1630497985852,2044
1630497985856,2044
1630497985860,2044
1630497985864,2045
1630497985868,2046
1630497985872,2047
1630497985876,2048
1630497985880,2048
1630497985884,2049
1630497985888,2050
1630497985892,2051
1630497985896,2052
1630497985900,2053
1630497985904,2054
1630497985908,2055
1630497985912,2057
1630497985916,2059
1630497985920,2060
1630497985924,2061
1630497985928,2062
1630497985932,2062
1630497985936,2062
1630497985940,2062
1630497985944,2062
1630497985948,2062
1630497985952,2061
1630497985956,2061
1630497985960,2061
1630497985964,2060
1630497985968,2059
1630497985972,2057
1630497985976,2056
1630497985980,2055
1630497985984,2054
1630497985988,2054
1630497985992,2055
1630497985996,2056
1630497986000,2056
1630497986004,2056
1630497986008,2055
1630497986012,2054
1630497986016,2053
1630497986020,2052
1630497986024,2050
1630497986028,2049
1630497986032,2048
1630497986036,2048
1630497986040,2047
1630497986044,2047
1630497986048,2046
1630497986052,2045
1630497986056,2045
1630497986060,2044
1630497986064,2045
1630497986068,2045
1630497986072,2045
1630497986076,2046
1630497986080,2046
1630497986084,2046
1630497986088,2046
1630497986092,2046
1630497986096,2046
1630497986100,2046
1630497986104,2046
1630497986108,2046
1630497986112,2047
1630497986116,2047
1630497986120,2047
1630497986124,2047
1630497986128,2046
1630497986132,2046
1630497986136,2045
1630497986140,2045
1630497986144,2045
1630497986148,2045
1630497986152,2045
1630497986156,2045
1630497986160,2045
1630497986164,2044
1630497986168,2044
1630497986172,2043
1630497986176,2042
1630497986180,2041
1630497986184,2041
1630497986188,2041
1630497986192,2041
1630497986196,2041
1630497986200,2040
1630497986204,2039
1630497986208,2039
1630497986212,2040
1630497986216,2042
1630497986220,2045
1630497986224,2047
1630497986228,2047
1630497986232,2047
1630497986236,2045
1630497986240,2043
1630497986244,2042
1630497986248,2042
1630497986252,2041
1630497986256,2040
1630497986260,2040
1630497986264,2039
1630497986268,2040
1630497986272,2040
1630497986276,2040
1630497986280,2041
1630497986284,2041
1630497986288,2040
1630497986292,2040
1630497986296,2040
1630497986300,2041
1630497986304,2042
1630497986308,2042
1630497986312,2039
1630497986316,2034
1630497986320,2033
1630497986324,2039
1630497986328,2058
1630497986332,2097
1630497986336,2149
1630497986340,2202
1630497986344,2237
1630497986348,2238
1630497986352,2201
1630497986356,2135
1630497986360,2061
1630497986364,2004
1630497986368,1974
1630497986372,1971
1630497986376,1986
1630497986380,2005
1630497986384,2019
1630497986388,2026
1630497986392,2031
1630497986396,2035
1630497986400,2037
1630497986404,2039
1630497986408,2039
1630497986412,2040
1630497986416,2041
1630497986420,2042
1630497986424,2043
1630497986428,2044
1630497986432,2045
1630497986436,2046
1630497986440,2047
1630497986444,2048
1630497986448,2048
1630497986452,2048
1630497986456,2048
1630497986460,2049
1630497986464,2050
1630497986468,2051
1630497986472,2052
1630497986476,2054
1630497986480,2055
1630497986484,2057
1630497986488,2057
1630497986492,2058
1630497986496,2060
1630497986500,2061
1630497986504,2062
1630497986508,2063
1630497986512,2065
1630497986516,2067
1630497986520,2069
1630497986524,2070
1630497986528,2071
1630497986532,2072
1630497986536,2072
1630497986540,2072
1630497986544,2072
1630497986548,2072
1630497986552,2071
1630497986556,2071
1630497986560,2069
1630497986564,2068
1630497986568,2066
1630497986572,2065
1630497986576,2063
1630497986580,2062
1630497986584,2062
1630497986588,2063
1630497986592,2063
1630497986596,2063
1630497986600,2064
1630497986604,2063
1630497986608,2062
1630497986612,2061
1630497986616,2059
1630497986620,2057
1630497986624,2056
1630497986628,2055
1630497986632,2054
1630497986636,2053
1630497986640,2053
1630497986644,2052
1630497986648,2052
1630497986652,2052
1630497986656,2051
1630497986660,2051
1630497986664,2051
1630497986668,2052
1630497986672,2052
1630497986676,2053
1630497986680,2053
1630497986684,2053
1630497986688,2053
1630497986692,2054
1630497986696,2054
1630497986700,2054
1630497986704,2054
1630497986708,2054
1630497986712,2054
1630497986716,2054
1630497986720,2054
1630497986724,2054
1630497986728,2054
1630497986732,2054
1630497986736,2053
1630497986740,2053
1630497986744,2052
1630497986748,2052
1630497986752,2052
1630497986756,2052
1630497986760,2052
1630497986764,2052
1630497986768,2052
1630497986772,2051
1630497986776,2050
1630497986780,2049
1630497986784,2049
1630497986788,2049
1630497986792,2049
1630497986796,2049
1630497986800,2048
1630497986804,2048
1630497986808,2047
1630497986812,2047
1630497986816,2048
1630497986820,2050
1630497986824,2053
1630497986828,2055
1630497986832,2055
1630497986836,2054
1630497986840,2053
1630497986844,2051
1630497986848,2050
1630497986852,2050
1630497986856,2049
1630497986860,2049
1630497986864,2048
1630497986868,2048
1630497986872,2048
1630497986876,2049
1630497986880,2049
1630497986884,2049
1630497986888,2048
1630497986892,2048
1630497986896,2048
1630497986900,2048
1630497986904,2050
1630497986908,2051
1630497986912,2049
1630497986916,2046
1630497986920,2040
1630497986924,2040
1630497986928,2049
1630497986932,2074
1630497986936,2116
1630497986940,2169
1630497986944,2221
1630497986948,2254
1630497986952,2254
1630497986956,2216
1630497986960,2149
1630497986964,2075
1630497986968,2018
1630497986972,1989
1630497986976,1989
1630497986980,2005
1630497986984,2025
1630497986988,2037
1630497986992,2043
1630497986996,2043
1630497987000,2043
1630497987004,2043
1630497987008,2043
1630497987012,2044
1630497987016,2044
1630497987020,2045
1630497987024,2046
1630497987028,2046
1630497987032,2048
1630497987036,2048
1630497987040,2049
1630497987044,2049
1630497987048,2050
1630497987052,2050
1630497987056,2050
1630497987060,2051
1630497987064,2051
1630497987068,2052
1630497987072,2053
1630497987076,2054
1630497987080,2055
1630497987084,2056
1630497987088,2056
1630497987092,2057
1630497987096,2057
1630497987100,2058
1630497987104,2060
1630497987108,2061
1630497987112,2063
1630497987116,2065
1630497987120,2067
1630497987124,2068
1630497987128,2069
1630497987132,2069
1630497987136,2069
1630497987140,2069
1630497987144,2069
1630497987148,2069
1630497987152,2069
1630497987156,2068
1630497987160,2067
1630497987164,2065
1630497987168,2063
1630497987172,2062
1630497987176,2060
1630497987180,2059
1630497987184,2059
1630497987188,2059
1630497987192,2059
1630497987196,2060
1630497987200,2060
1630497987204,2060
1630497987208,2059
1630497987212,2057
1630497987216,2056
1630497987220,2055
1630497987224,2054
1630497987228,2053
1630497987232,2053
1630497987236,2052
1630497987240,2052
1630497987244,2052
1630497987248,2052
1630497987252,2051
1630497987256,2051
1630497987260,2051
1630497987264,2051
1630497987268,2052
1630497987272,2053
1630497987276,2054
1630497987280,2054
1630497987284,2054
1630497987288,2054
1630497987292,2054
1630497987296,2054
1630497987300,2054
1630497987304,2054
1630497987308,2054
1630497987312,2054
1630497987316,2055
1630497987320,2055
1630497987324,2054
1630497987328,2054
1630497987332,2053
1630497987336,2052
1630497987340,2051
1630497987344,2051
1630497987348,2051
1630497987352,2051
1630497987356,2051
1630497987360,2051
1630497987364,2051
1630497987368,2050
1630497987372,2050
1630497987376,2049
1630497987380,2048
1630497987384,2048
1630497987388,2048
1630497987392,2047
1630497987396,2048
1630497987400,2048
1630497987404,2047
1630497987408,2046
1630497987412,2045
1630497987416,2044
1630497987420,2044
1630497987424,2046
1630497987428,2048
1630497987432,2051
1630497987436,2053
1630497987440,2054
1630497987444,2053
1630497987448,2050
1630497987452,2048
1630497987456,2047
1630497987460,2047
1630497987464,2046
1630497987468,2046
1630497987472,2046
1630497987476,2046
1630497987480,2046
1630497987484,2047
1630497987488,2047
1630497987492,2046
1630497987496,2046
1630497987500,2045
1630497987504,2045
1630497987508,2046
1630497987512,2047
1630497987516,2048
1630497987520,2048
1630497987524,2044
1630497987528,2038
1630497987532,2035
1630497987536,2040
1630497987540,2059
1630497987544,2098
1630497987548,2153
1630497987552,2213
1630497987556,2258
1630497987560,2270
1630497987564,2240
1630497987568,2175
1630497987572,2097
1630497987576,2031
1630497987580,1993
1630497987584,1986
1630497987588,2001
1630497987592,2021
1630497987596,2035
1630497987600,2040
1630497987604,2040
1630497987608,2040
1630497987612,2039
1630497987616,2039
1630497987620,2039
1630497987624,2039
1630497987628,2040
1630497987632,2041
1630497987636,2043
1630497987640,2044
1630497987644,2044
1630497987648,2044
1630497987652,2045
1630497987656,2045
1630497987660,2045
1630497987664,2046
1630497987668,2047
1630497987672,2048
1630497987676,2048
1630497987680,2048
1630497987684,2049
1630497987688,2050
1630497987692,2051
1630497987696,2051
1630497987700,2052
1630497987704,2053
1630497987708,2054
1630497987712,2055
1630497987716,2056
1630497987720,2058
1630497987724,2059
1630497987728,2060
1630497987732,2061
1630497987736,2062
1630497987740,2062
1630497987744,2063
1630497987748,2063
1630497987752,2064
1630497987756,2064
1630497987760,2063
1630497987764,2062
1630497987768,2060
1630497987772,2058
1630497987776,2057
1630497987780,2055
1630497987784,2054
1630497987788,2053
1630497987792,2053
1630497987796,2053
1630497987800,2053
1630497987804,2054
1630497987808,2054
1630497987812,2054
1630497987816,2053
1630497987820,2052
1630497987824,2051
1630497987828,2050
1630497987832,2049
1630497987836,2049
1630497987840,2048
1630497987844,2048
1630497987848,2047
1630497987852,2047
1630497987856,2046
1630497987860,2046
1630497987864,2046
1630497987868,2046
1630497987872,2046
1630497987876,2047
1630497987880,2048
1630497987884,2048
1630497987888,2048
1630497987892,2048
1630497987896,2048
1630497987900,2048
1630497987904,2048
1630497987908,2048
1630497987912,2048
1630497987916,2049
1630497987920,2050
1630497987924,2050
1630497987928,2049
1630497987932,2048
1630497987936,2048
1630497987940,2048
1630497987944,2048
1630497987948,2047
1630497987952,2048
1630497987956,2048
1630497987960,2048
1630497987964,2047
1630497987968,2046
1630497987972,2046
1630497987976,2045
1630497987980,2044
1630497987984,2044
1630497987988,2044
1630497987992,2044
1630497987996,2044
1630497988000,2044
1630497988004,2044
1630497988008,2043
1630497988012,2043
1630497988016,2042
1630497988020,2042
1630497988024,2042
1630497988028,2042
1630497988032,2042
1630497988036,2041
1630497988040,2041
1630497988044,2040
1630497988048,2039
1630497988052,2038
1630497988056,2038
1630497988060,2040
1630497988064,2043
1630497988068,2046
1630497988072,2048
1630497988076,2048
1630497988080,2048
1630497988084,2045
1630497988088,2043
1630497988092,2041
1630497988096,2040
1630497988100,2040
1630497988104,2040
1630497988108,2040
1630497988112,2040
1630497988116,2041
1630497988120,2041
1630497988124,2041
1630497988128,2041
1630497988132,2040
1630497988136,2040
1630497988140,2040
1630497988144,2041
1630497988148,2042
1630497988152,2044
1630497988156,2043
1630497988160,2040
1630497988164,2034
1630497988168,2032
1630497988172,2040
1630497988176,2062
1630497988180,2104
1630497988184,2159
1630497988188,2214
1630497988192,2250
1630497988196,2251
1630497988200,2211
1630497988204,2142
1630497988208,2066
1630497988212,2008
1630497988216,1978
1630497988220,1977
1630497988224,1994
1630497988228,2014
1630497988232,2028
1630497988236,2034
1630497988240,2035
1630497988244,2035
1630497988248,2035
1630497988252,2035
1630497988256,2035
1630497988260,2035
1630497988264,2036
1630497988268,2037
1630497988272,2038
1630497988276,2039
1630497988280,2040
1630497988284,2040
1630497988288,2041
1630497988292,2041
1630497988296,2041
1630497988300,2042
1630497988304,2043
1630497988308,2043
1630497988312,2045
1630497988316,2046
1630497988320,2047
1630497988324,2048
1630497988328,2048
1630497988332,2048
1630497988336,2048
1630497988340,2049
1630497988344,2051
1630497988348,2052
1630497988352,2054
1630497988356,2056
1630497988360,2057
1630497988364,2059
1630497988368,2059
1630497988372,2060
1630497988376,2060
1630497988380,2060
1630497988384,2060
1630497988388,2060
1630497988392,2060
1630497988396,2060
1630497988400,2060
1630497988404,2060
1630497988408,2058
1630497988412,2057
1630497988416,2055
1630497988420,2053
1630497988424,2052
1630497988428,2051
1630497988432,2051
1630497988436,2051
1630497988440,2052
1630497988444,2052
1630497988448,2052
1630497988452,2052
1630497988456,2051
1630497988460,2050
1630497988464,2048
1630497988468,2048
1630497988472,2048
1630497988476,2047
1630497988480,2046
1630497988484,2045
1630497988488,2044
1630497988492,2043
1630497988496,2043
1630497988500,2043
1630497988504,2043
1630497988508,2044
1630497988512,2044
1630497988516,2045
1630497988520,2046
1630497988524,2046
1630497988528,2046
1630497988532,2046
1630497988536,2045
1630497988540,2045
1630497988544,2045
1630497988548,2046
1630497988552,2047
1630497988556,2047
1630497988560,2047
1630497988564,2047
1630497988568,2046
1630497988572,2046
1630497988576,2045
1630497988580,2044
1630497988584,2044
1630497988588,2043
1630497988592,2044
1630497988596,2045
1630497988600,2044
1630497988604,2044
1630497988608,2043
1630497988612,2042
1630497988616,2042
1630497988620,2041
1630497988624,2040
1630497988628,2040
1630497988632,2040
1630497988636,2039
1630497988640,2040
1630497988644,2039
1630497988648,2039
1630497988652,2039
1630497988656,2039
1630497988660,2038
1630497988664,2038
1630497988668,2037
1630497988672,2037
1630497988676,2038
1630497988680,2038
1630497988684,2038
1630497988688,2037
1630497988692,2036
1630497988696,2035
1630497988700,2035
1630497988704,2037
1630497988708,2040
1630497988712,2044
1630497988716,2046
1630497988720,2047
1630497988724,2045
1630497988728,2043
1630497988732,2040
1630497988736,2039
1630497988740,2038
1630497988744,2038
1630497988748,2039
1630497988752,2038
1630497988756,2038
1630497988760,2038
1630497988764,2038
1630497988768,2038
1630497988772,2038
1630497988776,2038
1630497988780,2038
1630497988784,2038
1630497988788,2039
1630497988792,2040
1630497988796,2041
1630497988800,2040
1630497988804,2036
1630497988808,2031
1630497988812,2032
1630497988816,2044
1630497988820,2071
1630497988824,2117
1630497988828,2172
1630497988832,2221
1630497988836,2244
1630497988840,2229
1630497988844,2176
1630497988848,2103
1630497988852,2033
1630497988856,1985
1630497988860,1966
1630497988864,1972
1630497988868,1991
1630497988872,2009
1630497988876,2021
1630497988880,2027
1630497988884,2031
1630497988888,2033
1630497988892,2034
1630497988896,2035
1630497988900,2035
1630497988904,2036
1630497988908,2037
1630497988912,2039
1630497988916,2040
1630497988920,2041
1630497988924,2042
1630497988928,2043
1630497988932,2043
1630497988936,2043
1630497988940,2043
1630497988944,2044
1630497988948,2045
1630497988952,2047
1630497988956,2048
1630497988960,2049
1630497988964,2050
1630497988968,2051
1630497988972,2051
1630497988976,2052
1630497988980,2053
1630497988984,2054
1630497988988,2055
1630497988992,2057
1630497988996,2059
1630497989000,2061
1630497989004,2062
1630497989008,2064
1630497989012,2065
1630497989016,2066
1630497989020,2067
1630497989024,2068
1630497989028,2068
1630497989032,2069
1630497989036,2070
1630497989040,2070
1630497989044,2069
1630497989048,2068
1630497989052,2066
1630497989056,2064
1630497989060,2062
1630497989064,2061
1630497989068,2060
1630497989072,2060
1630497989076,2061
1630497989080,2061
1630497989084,2061
1630497989088,2061
1630497989092,2060
1630497989096,2058
1630497989100,2056
1630497989104,2055
1630497989108,2054
1630497989112,2054
1630497989116,2054
1630497989120,2053
1630497989124,2052
1630497989128,2050
1630497989132,2049
1630497989136,2048
1630497989140,2048
1630497989144,2048
1630497989148,2048
1630497989152,2048
1630497989156,2048
1630497989160,2049
1630497989164,2050
1630497989168,2050
1630497989172,2050
1630497989176,2049
1630497989180,2049
1630497989184,2049
1630497989188,2049
1630497989192,2051
1630497989196,2051
1630497989200,2052
1630497989204,2052
1630497989208,2052
1630497989212,2052
1630497989216,2051
1630497989220,2051
1630497989224,2051
1630497989228,2051
1630497989232,2051
1630497989236,2051
1630497989240,2051
1630497989244,2050
1630497989248,2050
1630497989252,2050
1630497989256,2049
1630497989260,2048
1630497989264,2048
1630497989268,2048
1630497989272,2048
1630497989276,2048
1630497989280,2048
1630497989284,2048
1630497989288,2048
1630497989292,2048
1630497989296,2047
1630497989300,2046
1630497989304,2046
1630497989308,2045
1630497989312,2046
1630497989316,2046
1630497989320,2045
1630497989324,2044
1630497989328,2043
1630497989332,2044
1630497989336,2045
1630497989340,2048
1630497989344,2050
1630497989348,2053
1630497989352,2053
1630497989356,2052
1630497989360,2050
1630497989364,2049
1630497989368,2048
1630497989372,2048
1630497989376,2048
1630497989380,2047
1630497989384,2047
1630497989388,2047
1630497989392,2047
1630497989396,2047
1630497989400,2047
1630497989404,2047
1630497989408,2047
1630497989412,2047
1630497989416,2047
1630497989420,2047
1630497989424,2048
1630497989428,2049
1630497989432,2048
1630497989436,2045
1630497989440,2040
1630497989444,2039
1630497989448,2048
1630497989452,2070
1630497989456,2111
1630497989460,2163
1630497989464,2216
1630497989468,2251
1630497989472,2254
1630497989476,2218
1630497989480,2153
1630497989484,2078
1630497989488,2018
1630497989492,1986
1630497989496,1983
1630497989500,1999
1630497989504,2020
1630497989508,2034
1630497989512,2040
1630497989516,2042
1630497989520,2042
1630497989524,2042
1630497989528,2042
1630497989532,2043
1630497989536,2043
1630497989540,2044
1630497989544,2045
1630497989548,2045
1630497989552,2046
1630497989556,2047
1630497989560,2048
1630497989564,2048
1630497989568,2048
1630497989572,2049
1630497989576,2049
1630497989580,2050
1630497989584,2050
1630497989588,2051
1630497989592,2052
1630497989596,2053
1630497989600,2055
1630497989604,2056
1630497989608,2056
1630497989612,2057
1630497989616,2057
1630497989620,2058
1630497989624,2059
1630497989628,2061
1630497989632,2062
1630497989636,2064
1630497989640,2065
1630497989644,2067
1630497989648,2068
1630497989652,2069
1630497989656,2069
1630497989660,2070
1630497989664,2070
1630497989668,2071
1630497989672,2071
1630497989676,2070
1630497989680,2069
1630497989684,2068
1630497989688,2066
1630497989692,2064
1630497989696,2062
1630497989700,2061
1630497989704,2060
1630497989708,2059
1630497989712,2060
1630497989716,2060
1630497989720,2061
1630497989724,2060
1630497989728,2059
1630497989732,2058
1630497989736,2056
1630497989740,2055
1630497989744,2054
1630497989748,2053
1630497989752,2053
1630497989756,2053
1630497989760,2052
1630497989764,2051
1630497989768,2050
1630497989772,2049
1630497989776,2049
1630497989780,2049
1630497989784,2049
1630497989788,2050
1630497989792,2051
1630497989796,2051
1630497989800,2051
1630497989804,2052
1630497989808,2052
1630497989812,2052
1630497989816,2051
1630497989820,2051
1630497989824,2051
1630497989828,2052
1630497989832,2052
1630497989836,2052
1630497989840,2053
1630497989844,2052
1630497989848,2052
1630497989852,2052
1630497989856,2051
1630497989860,2051
1630497989864,2051
1630497989868,2050
1630497989872,2050
1630497989876,2050
1630497989880,2050
1630497989884,2050
1630497989888,2049
1630497989892,2048
1630497989896,2048
1630497989900,2047
1630497989904,2047
1630497989908,2047
1630497989912,2047
1630497989916,2047
1630497989920,2047
1630497989924,2046
1630497989928,2046
1630497989932,2045
1630497989936,2045
1630497989940,2044
1630497989944,2044
1630497989948,2043
1630497989952,2042
1630497989956,2041
1630497989960,2042
1630497989964,2045
1630497989968,2048
1630497989972,2050
1630497989976,2051
1630497989980,2051
1630497989984,2049
1630497989988,2048
1630497989992,2047
1630497989996,2047
1630497990000,2047
1630497990004,2047
1630497990008,2046
1630497990012,2045
1630497990016,2045
1630497990020,2044
1630497990024,2044
1630497990028,2044
1630497990032,2045
1630497990036,2045
1630497990040,2045
1630497990044,2046
1630497990048,2046
1630497990052,2047
1630497990056,2047
1630497990060,2045
1630497990064,2041
1630497990068,2036
1630497990072,2035
1630497990076,2045
1630497990080,2070
1630497990084,2113
1630497990088,2169
1630497990092,2223
1630497990096,2256
1630497990100,2254
1630497990104,2213
1630497990108,2142
1630497990112,2068
1630497990116,2012
1630497990120,1985
1630497990124,1987
1630497990128,2004
1630497990132,2022
1630497990136,2033
1630497990140,2037
1630497990144,2037
1630497990148,2037
1630497990152,2038
1630497990156,2038
1630497990160,2039
1630497990164,2039
1630497990168,2040
1630497990172,2040
1630497990176,2041
1630497990180,2041
1630497990184,2042
1630497990188,2042
1630497990192,2043
1630497990196,2044
1630497990200,2045
1630497990204,2046
1630497990208,2046
1630497990212,2047
1630497990216,2046
1630497990220,2046
1630497990224,2047
1630497990228,2048
1630497990232,2048
1630497990236,2050
1630497990240,2051
1630497990244,2053
1630497990248,2054
1630497990252,2055
1630497990256,2055
1630497990260,2056
1630497990264,2057
1630497990268,2058
1630497990272,2060
1630497990276,2061
1630497990280,2063
1630497990284,2064
1630497990288,2064
1630497990292,2064
1630497990296,2063
1630497990300,2062
1630497990304,2061
1630497990308,2059
1630497990312,2058
1630497990316,2057
1630497990320,2056
1630497990324,2055
1630497990328,2054
1630497990332,2054
1630497990336,2053
1630497990340,2053
1630497990344,2052
1630497990348,2052
1630497990352,2052
1630497990356,2052
1630497990360,2051
1630497990364,2051
1630497990368,2049
1630497990372,2048
1630497990376,2047
1630497990380,2046
1630497990384,2045
1630497990388,2044
1630497990392,2044
1630497990396,2044
1630497990400,2044
1630497990404,2044
1630497990408,2043
1630497990412,2043
1630497990416,2043
1630497990420,2043
1630497990424,2043
1630497990428,2042
1630497990432,2043
1630497990436,2044
1630497990440,2045
1630497990444,2045
1630497990448,2045
1630497990452,2045
1630497990456,2044
1630497990460,2044
1630497990464,2044
1630497990468,2043
1630497990472,2044
1630497990476,2044
1630497990480,2045
1630497990484,2045
1630497990488,2044
1630497990492,2043
1630497990496,2043
1630497990500,2042
1630497990504,2041
1630497990508,2041
1630497990512,2041
1630497990516,2041
1630497990520,2041
1630497990524,2040
1630497990528,2040
1630497990532,2040
1630497990536,2039
1630497990540,2038
1630497990544,2038
1630497990548,2038
1630497990552,2038
1630497990556,2037
1630497990560,2037
1630497990564,2037
1630497990568,2037
1630497990572,2036
1630497990576,2035
1630497990580,2034
1630497990584,2034
1630497990588,2037
1630497990592,2041
1630497990596,2044
1630497990600,2046
1630497990604,2046
1630497990608,2044
1630497990612,2042
1630497990616,2040
1630497990620,2039
1630497990624,2039
1630497990628,2040
1630497990632,2040
1630497990636,2040
1630497990640,2039
1630497990644,2039
1630497990648,2038
1630497990652,2038
1630497990656,2038
1630497990660,2038
1630497990664,2038
1630497990668,2038
1630497990672,2039
1630497990676,2041
1630497990680,2041
1630497990684,2040
1630497990688,2035
1630497990692,2030
1630497990696,2030
1630497990700,2042
1630497990704,2070
1630497990708,2118
1630497990712,2175
1630497990716,2225
1630497990720,2249
1630497990724,2234
1630497990728,2182
1630497990732,2109
1630497990736,2038
1630497990740,1989
1630497990744,1970
1630497990748,1976
1630497990752,1995
1630497990756,2014
1630497990760,2026
1630497990764,2031
1630497990768,2033
1630497990772,2034
1630497990776,2034
1630497990780,2034
1630497990784,2034
1630497990788,2035
1630497990792,2037
1630497990796,2038
1630497990800,2039
1630497990804,2040
1630497990808,2040
1630497990812,2040
1630497990816,2040
1630497990820,2041
1630497990824,2042
1630497990828,2043
1630497990832,2043
1630497990836,2044
1630497990840,2046
1630497990844,2047
1630497990848,2048
1630497990852,2048
1630497990856,2049
1630497990860,2049
1630497990864,2050
1630497990868,2051
1630497990872,2052
1630497990876,2054
1630497990880,2056
1630497990884,2057
1630497990888,2058
1630497990892,2059
1630497990896,2060
1630497990900,2061
1630497990904,2062
1630497990908,2063
1630497990912,2064
1630497990916,2064
1630497990920,2064
1630497990924,2064
1630497990928,2063
1630497990932,2062
1630497990936,2060
1630497990940,2059
1630497990944,2057
1630497990948,2056
1630497990952,2055
1630497990956,2055
1630497990960,2056
1630497990964,2056
1630497990968,2056
1630497990972,2055
1630497990976,2054
1630497990980,2052
1630497990984,2051
1630497990988,2050
1630497990992,2050
1630497990996,2049
1630497991000,2048
1630497991004,2047
1630497991008,2045
1630497991012,2044
1630497991016,2043
1630497991020,2043
1630497991024,2043
1630497991028,2042
1630497991032,2043
1630497991036,2043
1630497991040,2044
1630497991044,2044
1630497991048,2044
1630497991052,2044
1630497991056,2044
1630497991060,2043
1630497991064,2043
1630497991068,2044
1630497991072,2044
1630497991076,2045
1630497991080,2045
1630497991084,2045
1630497991088,2044
1630497991092,2044
1630497991096,2043
1630497991100,2043
1630497991104,2043
1630497991108,2043
1630497991112,2044
1630497991116,2044
1630497991120,2043
1630497991124,2043
1630497991128,2042
1630497991132,2042
1630497991136,2041
1630497991140,2041
1630497991144,2040
1630497991148,2040
1630497991152,2040
1630497991156,2040
1630497991160,2040
1630497991164,2040
1630497991168,2039
1630497991172,2038
1630497991176,2037
1630497991180,2037
1630497991184,2038
1630497991188,2040
1630497991192,2043
1630497991196,2046
1630497991200,2047
1630497991204,2046
1630497991208,2044
1630497991212,2042
1630497991216,2040
1630497991220,2040
1630497991224,2040
1630497991228,2040
1630497991232,2040
1630497991236,2040
1630497991240,2040
1630497991244,2040
1630497991248,2040
1630497991252,2040
1630497991256,2039
1630497991260,2039
1630497991264,2039
1630497991268,2040
1630497991272,2041
1630497991276,2043
1630497991280,2043
1630497991284,2041
1630497991288,2036
1630497991292,2032
1630497991296,2035
1630497991300,2051
1630497991304,2085
1630497991308,2135
1630497991312,2190
1630497991316,2232
1630497991320,2243
1630497991324,2216
1630497991328,2155
1630497991332,2080
1630497991336,2016
1630497991340,1978
1630497991344,1969
1630497991348,1982
1630497991352,2001
1630497991356,2018
1630497991360,2027
1630497991364,2032
1630497991368,2035
1630497991372,2037
1630497991376,2039
1630497991380,2039
1630497991384,2040
1630497991388,2041
1630497991392,2042
1630497991396,2043
1630497991400,2044
1630497991404,2045
1630497991408,2046
1630497991412,2046
1630497991416,2046
1630497991420,2047
1630497991424,2048
1630497991428,2048
1630497991432,2049
1630497991436,2050
1630497991440,2051
1630497991444,2052
1630497991448,2053
1630497991452,2054
1630497991456,2054
1630497991460,2055
1630497991464,2056
1630497991468,2057
1630497991472,2059
1630497991476,2061
1630497991480,2063
1630497991484,2065
1630497991488,2066
1630497991492,2067
1630497991496,2068
1630497991500,2069
1630497991504,2070
1630497991508,2071
1630497991512,2072
1630497991516,2072
1630497991520,2072
1630497991524,2072
1630497991528,2071
1630497991532,2069
1630497991536,2067
1630497991540,2065
1630497991544,2064
1630497991548,2063
1630497991552,2062
1630497991556,2062
1630497991560,2063
1630497991564,2063
1630497991568,2063
1630497991572,2062
1630497991576,2061
1630497991580,2059
1630497991584,2058
1630497991588,2057
1630497991592,2056
1630497991596,2056
1630497991600,2055
1630497991604,2054
1630497991608,2053
1630497991612,2052
1630497991616,2051
1630497991620,2050
1630497991624,2050
1630497991628,2050
1630497991632,2050
1630497991636,2051
1630497991640,2051
1630497991644,2051
1630497991648,2052
1630497991652,2051
1630497991656,2051
1630497991660,2051
1630497991664,2052
1630497991668,2052
1630497991672,2052
1630497991676,2053
1630497991680,2053
1630497991684,2053
1630497991688,2053
1630497991692,2053
1630497991696,2052
1630497991700,2052
1630497991704,2052
1630497991708,2051
1630497991712,2051
1630497991716,2051
1630497991720,2051
1630497991724,2051
1630497991728,2050
1630497991732,2049
1630497991736,2048
1630497991740,2048
1630497991744,2048
1630497991748,2048
1630497991752,2048
1630497991756,2048
1630497991760,2048
1630497991764,2047
1630497991768,2046
1630497991772,2045
1630497991776,2047
1630497991780,2048
1630497991784,2051
1630497991788,2054
1630497991792,2054
1630497991796,2053
1630497991800,2051
1630497991804,2050
1630497991808,2048
1630497991812,2048
1630497991816,2048
1630497991820,2048
1630497991824,2047
1630497991828,2047
1630497991832,2047
1630497991836,2047
1630497991840,2048
1630497991844,2048
1630497991848,2048
1630497991852,2047
1630497991856,2047
1630497991860,2047
1630497991864,2048
1630497991868,2048
1630497991872,2048
1630497991876,2044
1630497991880,2039
1630497991884,2037
1630497991888,2046
1630497991892,2069
1630497991896,2110
1630497991900,2163
1630497991904,2215
1630497991908,2250
1630497991912,2253
1630497991916,2216
1630497991920,2151
1630497991924,2078
1630497991928,2020
1630497991932,1989
1630497991936,1988
1630497991940,2004
1630497991944,2024
1630497991948,2037
1630497991952,2042
1630497991956,2043
1630497991960,2043
1630497991964,2043
1630497991968,2043
1630497991972,2043
1630497991976,2043
1630497991980,2044
1630497991984,2044
1630497991988,2045
1630497991992,2046
1630497991996,2047
1630497992000,2048
1630497992004,2048
1630497992008,2048
1630497992012,2049
1630497992016,2049
1630497992020,2049
1630497992024,2050
1630497992028,2050
1630497992032,2051
1630497992036,2053
1630497992040,2054
1630497992044,2055
1630497992048,2055
1630497992052,2056
1630497992056,2056
1630497992060,2057
1630497992064,2059
1630497992068,2060
1630497992072,2062
1630497992076,2064
1630497992080,2065
1630497992084,2067
1630497992088,2068
1630497992092,2069
1630497992096,2069
1630497992100,2070
1630497992104,2070
1630497992108,2070
1630497992112,2069
1630497992116,2069
1630497992120,2067
1630497992124,2066
1630497992128,2064
1630497992132,2062
1630497992136,2061
1630497992140,2060
1630497992144,2059
1630497992148,2059
1630497992152,2060
1630497992156,2060
1630497992160,2060
1630497992164,2060
1630497992168,2059
1630497992172,2058
1630497992176,2056
1630497992180,2055
1630497992184,2054
1630497992188,2053
1630497992192,2052
1630497992196,2052
1630497992200,2051
1630497992204,2051
1630497992208,2050
1630497992212,2050
1630497992216,2049
1630497992220,2049
1630497992224,2049
1630497992228,2050
1630497992232,2051
1630497992236,2051
1630497992240,2052
1630497992244,2052
1630497992248,2052
1630497992252,2052
1630497992256,2052
1630497992260,2051
1630497992264,2051
1630497992268,2051
1630497992272,2051
1630497992276,2051
1630497992280,2052
1630497992284,2052
1630497992288,2051
1630497992292,2051
1630497992296,2050
1630497992300,2050
1630497992304,2049
1630497992308,2049
1630497992312,2049
1630497992316,2049
1630497992320,2049
1630497992324,2048
1630497992328,2048
1630497992332,2048
1630497992336,2047
1630497992340,2046
1630497992344,2045
1630497992348,2044
1630497992352,2044
1630497992356,2046
1630497992360,2048
1630497992364,2050
1630497992368,2053
1630497992372,2054
1630497992376,2052
1630497992380,2050
1630497992384,2048
1630497992388,2047
1630497992392,2046
1630497992396,2047
1630497992400,2047
1630497992404,2047
1630497992408,2046
1630497992412,2045
1630497992416,2045
1630497992420,2044
1630497992424,2044
1630497992428,2044
1630497992432,2044
1630497992436,2044
1630497992440,2045
1630497992444,2046
1630497992448,2047
1630497992452,2048
1630497992456,2045
1630497992460,2039
1630497992464,2033
1630497992468,2031
1630497992472,2042
1630497992476,2070
1630497992480,2117
1630497992484,2176
1630497992488,2230
1630497992492,2261
1630497992496,2254
1630497992500,2206
1630497992504,2133
1630497992508,2059
1630497992512,2007
1630497992516,1986
1630497992520,1992
1630497992524,2010
1630497992528,2028
1630497992532,2037
1630497992536,2039
1630497992540,2038
1630497992544,2037
1630497992548,2037
1630497992552,2038
1630497992556,2039
1630497992560,2040
1630497992564,2041
1630497992568,2041
1630497992572,2041
1630497992576,2042
1630497992580,2042
1630497992584,2043
1630497992588,2043
1630497992592,2044
1630497992596,2045
1630497992600,2046
1630497992604,2047
1630497992608,2047
1630497992612,2048
1630497992616,2048
1630497992620,2048
1630497992624,2048
1630497992628,2049
1630497992632,2051
1630497992636,2052
1630497992640,2053
1630497992644,2054
1630497992648,2055
1630497992652,2056
1630497992656,2057
1630497992660,2058
1630497992664,2059
1630497992668,2060
1630497992672,2061
1630497992676,2063
1630497992680,2063
1630497992684,2063
1630497992688,2063
1630497992692,2062
1630497992696,2060
1630497992700,2059
1630497992704,2058
1630497992708,2056
1630497992712,2055
1630497992716,2054
1630497992720,2054
1630497992724,2053
1630497992728,2053
1630497992732,2053
1630497992736,2052
1630497992740,2052
1630497992744,2052
1630497992748,2052
1630497992752,2052
1630497992756,2051
1630497992760,2051
1630497992764,2050
1630497992768,2049
1630497992772,2048
1630497992776,2047
1630497992780,2045
1630497992784,2045
1630497992788,2045
1630497992792,2045
1630497992796,2045
1630497992800,2046
1630497992804,2046
1630497992808,2046
1630497992812,2046
1630497992816,2046
1630497992820,2045
1630497992824,2045
1630497992828,2046
1630497992832,2046
1630497992836,2047
1630497992840,2048
1630497992844,2048
1630497992848,2048
1630497992852,2048
1630497992856,2047
1630497992860,2047
1630497992864,2047
1630497992868,2047
1630497992872,2047
1630497992876,2047
1630497992880,2047
1630497992884,2046
1630497992888,2046
1630497992892,2045
1630497992896,2045
1630497992900,2044
1630497992904,2043
1630497992908,2043
1630497992912,2043
1630497992916,2043
1630497992920,2043
1630497992924,2042
1630497992928,2041
1630497992932,2040
1630497992936,2039
1630497992940,2038
1630497992944,2038
1630497992948,2040
1630497992952,2043
1630497992956,2046
1630497992960,2048
1630497992964,2048
1630497992968,2046
1630497992972,2043
1630497992976,2040
1630497992980,2038
1630497992984,2038
1630497992988,2037
1630497992992,2038
1630497992996,2038
1630497993000,2038
1630497993004,2038
1630497993008,2037
1630497993012,2036
1630497993016,2036
1630497993020,2036
1630497993024,2036
1630497993028,2037
1630497993032,2038
1630497993036,2040
1630497993040,2041
1630497993044,2041
1630497993048,2037
1630497993052,2030
1630497993056,2024
1630497993060,2027
1630497993064,2045
1630497993068,2080
1630497993072,2132
1630497993076,2190
1630497993080,2234
1630497993084,2247
1630497993088,2220
1630497993092,2160
1630497993096,2085
1630497993100,2021
1630497993104,1982
1630497993108,1974
1630497993112,1988
1630497993116,2008
1630497993120,2023
1630497993124,2030
1630497993128,2031
1630497993132,2031
1630497993136,2031
1630497993140,2031
1630497993144,2032
1630497993148,2033
1630497993152,2034
1630497993156,2035
1630497993160,2036
1630497993164,2037
1630497993168,2037
1630497993172,2037
1630497993176,2037
1630497993180,2037
1630497993184,2037
1630497993188,2038
1630497993192,2040
1630497993196,2042
1630497993200,2043
1630497993204,2044
1630497993208,2044
1630497993212,2044
1630497993216,2044
1630497993220,2045
1630497993224,2046
1630497993228,2047
1630497993232,2048
1630497993236,2050
1630497993240,2052
1630497993244,2053
1630497993248,2054
1630497993252,2055
1630497993256,2055
1630497993260,2056
1630497993264,2057
1630497993268,2058
1630497993272,2059
1630497993276,2060
1630497993280,2059
1630497993284,2059
1630497993288,2057
1630497993292,2056
1630497993296,2054
1630497993300,2053
1630497993304,2052
1630497993308,2051
1630497993312,2050
1630497993316,2050
1630497993320,2050
1630497993324,2050
1630497993328,2050
1630497993332,2050
1630497993336,2050
1630497993340,2049
1630497993344,2049
1630497993348,2048
1630497993352,2048
1630497993356,2047
1630497993360,2047
1630497993364,2046
1630497993368,2045
1630497993372,2044
1630497993376,2043
1630497993380,2042
1630497993384,2042
1630497993388,2042
1630497993392,2043
1630497993396,2044
1630497993400,2044
1630497993404,2045
1630497993408,2045
1630497993412,2045
1630497993416,2045
1630497993420,2045
1630497993424,2045
1630497993428,2045
1630497993432,2045
1630497993436,2046
1630497993440,2046
1630497993444,2047
1630497993448,2047
1630497993452,2046
1630497993456,2045
1630497993460,2045
1630497993464,2044
1630497993468,2044
1630497993472,2044
1630497993476,2044
1630497993480,2045
1630497993484,2044
1630497993488,2044
1630497993492,2043
1630497993496,2043
1630497993500,2042
1630497993504,2042
1630497993508,2041
1630497993512,2041
1630497993516,2040
1630497993520,2040
1630497993524,2040
1630497993528,2040
1630497993532,2039
1630497993536,2038
1630497993540,2037
1630497993544,2036
1630497993548,2037
1630497993552,2039
1630497993556,2042
1630497993560,2045
1630497993564,2046
1630497993568,2045
1630497993572,2043
1630497993576,2040
1630497993580,2039
1630497993584,2039
1630497993588,2039
1630497993592,2039
1630497993596,2039
1630497993600,2038
1630497993604,2038
1630497993608,2038
1630497993612,2038
1630497993616,2037
1630497993620,2037
1630497993624,2037
1630497993628,2037
1630497993632,2038
1630497993636,2039
1630497993640,2040
1630497993644,2040
1630497993648,2037
1630497993652,2031
1630497993656,2027
1630497993660,2028
1630497993664,2042
1630497993668,2073
1630497993672,2122
1630497993676,2178
1630497993680,2224
1630497993684,2241
1630497993688,2219
1630497993692,2162
1630497993696,2088
1630497993700,2021
1630497993704,1979
1630497993708,1966
1630497993712,1976
1630497993716,1995
1630497993720,2012
1630497993724,2022
1630497993728,2027
1630497993732,2029
1630497993736,2030
1630497993740,2031
1630497993744,2031
1630497993748,2032
1630497993752,2033
1630497993756,2034
1630497993760,2035
1630497993764,2036
1630497993768,2037
1630497993772,2038
1630497993776,2038
1630497993780,2038
1630497993784,2039
1630497993788,2039
1630497993792,2040
1630497993796,2041
1630497993800,2043
1630497993804,2044
1630497993808,2045
1630497993812,2045
1630497993816,2045
1630497993820,2046
1630497993824,2047
1630497993828,2048
1630497993832,2049
1630497993836,2050
1630497993840,2052
1630497993844,2053
1630497993848,2055
1630497993852,2056
1630497993856,2057
1630497993860,2058
1630497993864,2059
1630497993868,2060
1630497993872,2061
1630497993876,2062
1630497993880,2062
1630497993884,2062
1630497993888,2062
1630497993892,2061
1630497993896,2059
1630497993900,2057
1630497993904,2055
1630497993908,2054
1630497993912,2054
1630497993916,2054
1630497993920,2054
1630497993924,2054
1630497993928,2053
1630497993932,2053
1630497993936,2052
1630497993940,2051
1630497993944,2050
1630497993948,2049
1630497993952,2048
1630497993956,2047
1630497993960,2046
1630497993964,2045
1630497993968,2045
1630497993972,2044
1630497993976,2043
1630497993980,2042
1630497993984,2041
1630497993988,2040
1630497993992,2040
1630497993996,2040
1630497994000,2041
1630497994004,2041
1630497994008,2042
1630497994012,2042
1630497994016,2042
1630497994020,2042
1630497994024,2042
1630497994028,2042
1630497994032,2042
1630497994036,2043
1630497994040,2043
1630497994044,2044
1630497994048,2044
1630497994052,2044
1630497994056,2044
1630497994060,2044
1630497994064,2044
1630497994068,2044
1630497994072,2043
1630497994076,2043
1630497994080,2043
1630497994084,2042
1630497994088,2042
1630497994092,2042
1630497994096,2041
1630497994100,2040
1630497994104,2039
1630497994108,2038
1630497994112,2039
1630497994116,2040
1630497994120,2041
1630497994124,2041
1630497994128,2041
1630497994132,2039
1630497994136,2037
1630497994140,2035
1630497994144,2035
1630497994148,2036
1630497994152,2038
1630497994156,2042
1630497994160,2044
1630497994164,2045
1630497994168,2045
1630497994172,2042
1630497994176,2039
1630497994180,2038
1630497994184,2037
1630497994188,2038
1630497994192,2039
1630497994196,2039
1630497994200,2038
1630497994204,2038
1630497994208,2037
1630497994212,2037
1630497994216,2036
1630497994220,2036
1630497994224,2036
1630497994228,2036
1630497994232,2037
1630497994236,2038
1630497994240,2040
1630497994244,2041
1630497994248,2039
1630497994252,2034
1630497994256,2029
1630497994260,2030
1630497994264,2044
1630497994268,2073
1630497994272,2122
1630497994276,2179
1630497994280,2228
1630497994284,2248
1630497994288,2229
1630497994292,2173
1630497994296,2096
1630497994300,2025
1630497994304,1979
1630497994308,1963
1630497994312,1972
1630497994316,1991
1630497994320,2010
1630497994324,2020
1630497994328,2026
1630497994332,2029
1630497994336,2032
1630497994340,2033
1630497994344,2034
1630497994348,2036
1630497994352,2037
1630497994356,2038
1630497994360,2039
1630497994364,2040
1630497994368,2041
1630497994372,2041
1630497994376,2042
1630497994380,2043
1630497994384,2043
1630497994388,2043
1630497994392,2044
1630497994396,2045
1630497994400,2046
1630497994404,2048
1630497994408,2048
1630497994412,2048
1630497994416,2049
1630497994420,2050
1630497994424,2051
1630497994428,2052
1630497994432,2054
1630497994436,2056
1630497994440,2058
1630497994444,2060
1630497994448,2061
1630497994452,2062
1630497994456,2063
1630497994460,2065
1630497994464,2066
1630497994468,2068
1630497994472,2069
1630497994476,2070
1630497994480,2071
1630497994484,2070
1630497994488,2069
1630497994492,2068
1630497994496,2067
1630497994500,2065
1630497994504,2064
1630497994508,2062
1630497994512,2061
1630497994516,2060
1630497994520,2060
1630497994524,2060
1630497994528,2060
1630497994532,2059
1630497994536,2057
1630497994540,2055
1630497994544,2054
1630497994548,2053
1630497994552,2052
1630497994556,2052
1630497994560,2050
1630497994564,2049
1630497994568,2048
1630497994572,2047
1630497994576,2046
1630497994580,2045
1630497994584,2044
1630497994588,2044
1630497994592,2045
1630497994596,2046
1630497994600,2046
1630497994604,2046
1630497994608,2046
1630497994612,2046
1630497994616,2045
1630497994620,2045
1630497994624,2046
1630497994628,2047
1630497994632,2048
1630497994636,2048
1630497994640,2048
1630497994644,2048
1630497994648,2048
1630497994652,2048
1630497994656,2048
1630497994660,2048
1630497994664,2048
1630497994668,2048
1630497994672,2048
1630497994676,2048
1630497994680,2048
1630497994684,2048
1630497994688,2048
1630497994692,2048
1630497994696,2047
1630497994700,2047
1630497994704,2046
1630497994708,2046
1630497994712,2046
1630497994716,2046
1630497994720,2046
1630497994724,2046
1630497994728,2045
1630497994732,2044
1630497994736,2043
1630497994740,2042
1630497994744,2042
1630497994748,2044
1630497994752,2047
1630497994756,2049
1630497994760,2051
1630497994764,2051
1630497994768,2050
1630497994772,2048
1630497994776,2047
1630497994780,2046
1630497994784,2046
1630497994788,2046
1630497994792,2046
1630497994796,2046
1630497994800,2046
1630497994804,2046
1630497994808,2046
1630497994812,2045
1630497994816,2045
1630497994820,2044
1630497994824,2044
1630497994828,2045
1630497994832,2046
1630497994836,2047
1630497994840,2048
1630497994844,2048
1630497994848,2044
1630497994852,2038
1630497994856,2036
1630497994860,2043
1630497994864,2064
1630497994868,2102
1630497994872,2154
1630497994876,2207
1630497994880,2245
1630497994884,2251
1630497994888,2219
1630497994892,2156
1630497994896,2081
1630497994900,2019
1630497994904,1984
1630497994908,1980
1630497994912,1996
1630497994916,2016
1630497994920,2031
1630497994924,2038
1630497994928,2040
1630497994932,2040
1630497994936,2041
1630497994940,2042
1630497994944,2043
1630497994948,2043
1630497994952,2045
1630497994956,2046
1630497994960,2047
1630497994964,2048
1630497994968,2048
1630497994972,2049
1630497994976,2049
1630497994980,2050
1630497994984,2050
1630497994988,2051
1630497994992,2052
1630497994996,2053
1630497995000,2054
1630497995004,2055
1630497995008,2056
1630497995012,2056
1630497995016,2057
1630497995020,2058
1630497995024,2059
1630497995028,2060
1630497995032,2061
1630497995036,2063
1630497995040,2065
1630497995044,2066
1630497995048,2068
1630497995052,2069
1630497995056,2071
1630497995060,2072
1630497995064,2073
1630497995068,2074
1630497995072,2075
1630497995076,2076
1630497995080,2077
1630497995084,2076
1630497995088,2075
1630497995092,2074
1630497995096,2071
1630497995100,2069
1630497995104,2067
1630497995108,2066
1630497995112,2066
1630497995116,2066
1630497995120,2066
1630497995124,2065
1630497995128,2065
1630497995132,2063
1630497995136,2062
1630497995140,2061
1630497995144,2060
1630497995148,2059
1630497995152,2058
1630497995156,2057
1630497995160,2056
1630497995164,2056
1630497995168,2054
1630497995172,2053
1630497995176,2052
1630497995180,2051
1630497995184,2051
1630497995188,2051
1630497995192,2052
1630497995196,2052
1630497995200,2053
1630497995204,2053
1630497995208,2053
1630497995212,2053
1630497995216,2053
1630497995220,2053
1630497995224,2054
1630497995228,2054
1630497995232,2055
1630497995236,2055
1630497995240,2056
1630497995244,2056
1630497995248,2055
1630497995252,2055
1630497995256,2055
1630497995260,2054
1630497995264,2054
1630497995268,2054
1630497995272,2055
1630497995276,2054
1630497995280,2054
1630497995284,2054
1630497995288,2053
1630497995292,2053
1630497995296,2052
1630497995300,2052
1630497995304,2052
1630497995308,2051
1630497995312,2051
1630497995316,2051
1630497995320,2051
1630497995324,2051
1630497995328,2051
1630497995332,2050
1630497995336,2048
1630497995340,2047
1630497995344,2047
1630497995348,2048
1630497995352,2051
1630497995356,2054
1630497995360,2057
1630497995364,2058
1630497995368,2056
1630497995372,2054
1630497995376,2051
1630497995380,2050
1630497995384,2049
1630497995388,2049
1630497995392,2049
1630497995396,2049
1630497995400,2049
1630497995404,2049
1630497995408,2048
1630497995412,2048
1630497995416,2048
1630497995420,2048
1630497995424,2048
1630497995428,2048
1630497995432,2049
1630497995436,2050
1630497995440,2052
1630497995444,2052
1630497995448,2050
1630497995452,2045
1630497995456,2040
1630497995460,2039
1630497995464,2051
1630497995468,2078
1630497995472,2124
1630497995476,2181
1630497995480,2235
1630497995484,2268
1630497995488,2263
1630497995492,2218
1630497995496,2145
1630497995500,2068
1630497995504,2013
1630497995508,1988
1630497995512,1993
1630497995516,2013
1630497995520,2033
1630497995524,2044
1630497995528,2046
1630497995532,2045
1630497995536,2043
1630497995540,2042
1630497995544,2043
1630497995548,2043
1630497995552,2045
1630497995556,2046
1630497995560,2047
1630497995564,2048
1630497995568,2048
1630497995572,2048
1630497995576,2048
1630497995580,2048
1630497995584,2049
1630497995588,2050
1630497995592,2051
1630497995596,2052
1630497995600,2052
1630497995604,2053
1630497995608,2054
1630497995612,2054
1630497995616,2055
1630497995620,2055
1630497995624,2056
1630497995628,2056
1630497995632,2058
1630497995636,2060
1630497995640,2061
1630497995644,2063
1630497995648,2064
1630497995652,2065
1630497995656,2065
1630497995660,2066
1630497995664,2067
1630497995668,2068
1630497995672,2070
1630497995676,2071
1630497995680,2071
1630497995684,2071
1630497995688,2070
1630497995692,2068
1630497995696,2067
1630497995700,2066
1630497995704,2064
1630497995708,2063
1630497995712,2062
1630497995716,2062
1630497995720,2062
1630497995724,2061
1630497995728,2061
1630497995732,2060
1630497995736,2059
1630497995740,2058
1630497995744,2057
1630497995748,2056
1630497995752,2056
1630497995756,2055
1630497995760,2055
1630497995764,2054
1630497995768,2053
1630497995772,2052
1630497995776,2051
1630497995780,2050
1630497995784,2050
1630497995788,2050
1630497995792,2050
1630497995796,2051
1630497995800,2051
1630497995804,2051
1630497995808,2051
1630497995812,2051
1630497995816,2051
1630497995820,2051
1630497995824,2052
1630497995828,2052
1630497995832,2053
1630497995836,2053
1630497995840,2054
1630497995844,2054
1630497995848,2054
1630497995852,2054
1630497995856,2053
1630497995860,2053
1630497995864,2053
1630497995868,2053
1630497995872,2053
1630497995876,2053
1630497995880,2053
1630497995884,2053
1630497995888,2052
1630497995892,2052
1630497995896,2051
1630497995900,2051
1630497995904,2050
1630497995908,2050
1630497995912,2050
1630497995916,2050
1630497995920,2050
1630497995924,2050
1630497995928,2049
1630497995932,2049
1630497995936,2048
1630497995940,2048
1630497995944,2048
1630497995948,2047
1630497995952,2047
1630497995956,2047
1630497995960,2047
1630497995964,2047
1630497995968,2047
1630497995972,2046
1630497995976,2044
1630497995980,2043
1630497995984,2044
1630497995988,2046
1630497995992,2049
1630497995996,2052
1630497996000,2055
1630497996004,2055
1630497996008,2053
1630497996012,2051
1630497996016,2049
1630497996020,2048
1630497996024,2048
1630497996028,2048
1630497996032,2048
1630497996036,2048
1630497996040,2048
1630497996044,2048
1630497996048,2048
1630497996052,2048
1630497996056,2047
1630497996060,2047
1630497996064,2047
1630497996068,2047
1630497996072,2048
1630497996076,2048
1630497996080,2050
1630497996084,2050
1630497996088,2048
1630497996092,2042
1630497996096,2038
1630497996100,2041
1630497996104,2057
1630497996108,2090
1630497996112,2140
1630497996116,2199
1630497996120,2247
1630497996124,2267
1630497996128,2246
1630497996132,2187
1630497996136,2109
1630497996140,2039
1630497996144,1996
1630497996148,1985
1630497996152,1999
1630497996156,2020
1630497996160,2036
1630497996164,2043
1630497996168,2044
1630497996172,2042
1630497996176,2041
1630497996180,2041
1630497996184,2041
1630497996188,2042
1630497996192,2043
1630497996196,2044
1630497996200,2045
1630497996204,2046
1630497996208,2046
1630497996212,2046
1630497996216,2046
1630497996220,2046
1630497996224,2047
1630497996228,2048
1630497996232,2048
1630497996236,2049
1630497996240,2049
1630497996244,2050
1630497996248,2051
1630497996252,2051
1630497996256,2052
1630497996260,2052
1630497996264,2053
1630497996268,2054
1630497996272,2056
1630497996276,2057
1630497996280,2058
1630497996284,2060
1630497996288,2061
1630497996292,2062
1630497996296,2062
1630497996300,2063
1630497996304,2064
1630497996308,2065
1630497996312,2065
1630497996316,2066
1630497996320,2066
1630497996324,2066
1630497996328,2065
1630497996332,2063
1630497996336,2062
1630497996340,2060
1630497996344,2059
1630497996348,2057
1630497996352,2057
1630497996356,2056
1630497996360,2056
1630497996364,2056
1630497996368,2056
1630497996372,2055
1630497996376,2055
1630497996380,2054
1630497996384,2053
1630497996388,2052
1630497996392,2052
1630497996396,2052
1630497996400,2051
1630497996404,2051
1630497996408,2049
1630497996412,2048
1630497996416,2048
1630497996420,2047
1630497996424,2047
1630497996428,2047
1630497996432,2047
1630497996436,2048
1630497996440,2048
1630497996444,2048
1630497996448,2048
1630497996452,2048
1630497996456,2048
1630497996460,2048
1630497996464,2048
1630497996468,2048
1630497996472,2049
1630497996476,2049
1630497996480,2049
1630497996484,2049
1630497996488,2049
1630497996492,2049
1630497996496,2048
1630497996500,2048
1630497996504,2048
1630497996508,2048
1630497996512,2048
1630497996516,2048
1630497996520,2048
1630497996524,2048
1630497996528,2047
1630497996532,2046
1630497996536,2046
1630497996540,2045
1630497996544,2044
1630497996548,2044
1630497996552,2044
1630497996556,2044
1630497996560,2044
1630497996564,2044
1630497996568,2044
1630497996572,2043
1630497996576,2043
1630497996580,2042
1630497996584,2042
1630497996588,2042
1630497996592,2043
1630497996596,2043
1630497996600,2043
1630497996604,2043
1630497996608,2042
1630497996612,2042
1630497996616,2041
1630497996620,2041
1630497996624,2041
1630497996628,2041
1630497996632,2041
1630497996636,2041
1630497996640,2041
1630497996644,2041
1630497996648,2040
1630497996652,2040
1630497996656,2039
1630497996660,2038
1630497996664,2039
1630497996668,2041
1630497996672,2044
1630497996676,2048
1630497996680,2049
1630497996684,2050
1630497996688,2048
1630497996692,2047
1630497996696,2045
1630497996700,2043
1630497996704,2043
1630497996708,2043
1630497996712,2043
1630497996716,2043
1630497996720,2043
1630497996724,2042
1630497996728,2042
1630497996732,2042
1630497996736,2042
1630497996740,2042
1630497996744,2042
1630497996748,2042
1630497996752,2043
1630497996756,2045
1630497996760,2046
1630497996764,2044
1630497996768,2040
1630497996772,2034
1630497996776,2032
1630497996780,2040
1630497996784,2062
1630497996788,2103
1630497996792,2156
1630497996796,2209
1630497996800,2242
1630497996804,2242
1630497996808,2203
1630497996812,2135
1630497996816,2061
1630497996820,2004
1630497996824,1975
1630497996828,1975
1630497996832,1993
1630497996836,2014
1630497996840,2028
1630497996844,2034
1630497996848,2035
1630497996852,2035
1630497996856,2034
1630497996860,2034
1630497996864,2034
1630497996868,2035
1630497996872,2036
1630497996876,2037
1630497996880,2038
1630497996884,2039
1630497996888,2040
1630497996892,2040
1630497996896,2040
1630497996900,2041
1630497996904,2041
1630497996908,2041
1630497996912,2043
1630497996916,2044
1630497996920,2045
1630497996924,2046
1630497996928,2046
1630497996932,2046
1630497996936,2047
1630497996940,2048
1630497996944,2048
1630497996948,2049
1630497996952,2051
1630497996956,2052
1630497996960,2054
1630497996964,2055
1630497996968,2056
1630497996972,2056
1630497996976,2057
1630497996980,2058
1630497996984,2059
1630497996988,2060
1630497996992,2061
1630497996996,2062
1630497997000,2062
1630497997004,2061
1630497997008,2060
1630497997012,2059
1630497997016,2057
1630497997020,2055
1630497997024,2054
1630497997028,2053
1630497997032,2052
1630497997036,2052
1630497997040,2052
1630497997044,2053
1630497997048,2052
1630497997052,2052
1630497997056,2051
1630497997060,2051
1630497997064,2050
1630497997068,2050
1630497997072,2050
1630497997076,2049
1630497997080,2048
1630497997084,2048
1630497997088,2047
1630497997092,2045
1630497997096,2044
1630497997100,2044
1630497997104,2043
1630497997108,2043
1630497997112,2044
1630497997116,2045
1630497997120,2045
1630497997124,2045
1630497997128,2045
1630497997132,2045
1630497997136,2045
1630497997140,2046
1630497997144,2046
1630497997148,2046
1630497997152,2047
1630497997156,2047
1630497997160,2047
1630497997164,2047
1630497997168,2047
1630497997172,2046
1630497997176,2046
1630497997180,2045
1630497997184,2045
1630497997188,2044
1630497997192,2045
1630497997196,2045
1630497997200,2044
1630497997204,2044
1630497997208,2043
1630497997212,2043
1630497997216,2042
1630497997220,2041
1630497997224,2040
1630497997228,2040
1630497997232,2040
1630497997236,2041
1630497997240,2041
1630497997244,2041
1630497997248,2040
1630497997252,2040
1630497997256,2039
1630497997260,2038
1630497997264,2038
1630497997268,2038
1630497997272,2038
1630497997276,2039
1630497997280,2039
1630497997284,2039
1630497997288,2038
1630497997292,2038
1630497997296,2037
1630497997300,2037
1630497997304,2037
1630497997308,2037
1630497997312,2037
1630497997316,2036
1630497997320,2036
1630497997324,2037
1630497997328,2039
1630497997332,2041
1630497997336,2044
1630497997340,2046
1630497997344,2046
1630497997348,2046
1630497997352,2044
1630497997356,2042
1630497997360,2042
1630497997364,2041
1630497997368,2041
1630497997372,2040
1630497997376,2040
1630497997380,2040
1630497997384,2040
1630497997388,2040
1630497997392,2040
1630497997396,2040
1630497997400,2040
1630497997404,2040
1630497997408,2040
1630497997412,2041
1630497997416,2042
1630497997420,2043
1630497997424,2043
1630497997428,2039
1630497997432,2034
1630497997436,2033
1630497997440,2041
1630497997444,2064
1630497997448,2106
1630497997452,2160
1630497997456,2211
1630497997460,2241
1630497997464,2235
1630497997468,2191
1630497997472,2122
1630497997476,2049
1630497997480,1996
1630497997484,1971
1630497997488,1971
1630497997492,1988
1630497997496,2007
1630497997500,2020
1630497997504,2028
1630497997508,2032
1630497997512,2034
1630497997516,2036
1630497997520,2037
1630497997524,2038
1630497997528,2039
1630497997532,2040
1630497997536,2041
1630497997540,2041
1630497997544,2041
1630497997548,2041
1630497997552,2042
1630497997556,2044
1630497997560,2045
1630497997564,2045
1630497997568,2045
1630497997572,2046
1630497997576,2046
1630497997580,2047
1630497997584,2048
1630497997588,2048
1630497997592,2050
1630497997596,2051
1630497997600,2052
1630497997604,2054
1630497997608,2054
1630497997612,2055
1630497997616,2056
1630497997620,2057
1630497997624,2059
1630497997628,2060
1630497997632,2062
1630497997636,2064
1630497997640,2065
1630497997644,2067
1630497997648,2068
1630497997652,2068
1630497997656,2069
1630497997660,2069
1630497997664,2069
1630497997668,2068
1630497997672,2067
1630497997676,2067
1630497997680,2066
1630497997684,2064
1630497997688,2063
1630497997692,2062
1630497997696,2060
1630497997700,2060
1630497997704,2059
1630497997708,2059
1630497997712,2060
1630497997716,2060
1630497997720,2060
1630497997724,2059
1630497997728,2058
1630497997732,2056
1630497997736,2054
1630497997740,2053
1630497997744,2051
1630497997748,2050
1630497997752,2050
1630497997756,2049
1630497997760,2049
1630497997764,2048
1630497997768,2048
1630497997772,2048
1630497997776,2048
1630497997780,2048
1630497997784,2048
1630497997788,2048
1630497997792,2048
1630497997796,2049
1630497997800,2049
1630497997804,2050
1630497997808,2049
1630497997812,2049
1630497997816,2049
1630497997820,2049
1630497997824,2049
1630497997828,2049
1630497997832,2050
1630497997836,2050
1630497997840,2050
1630497997844,2050
1630497997848,2049
1630497997852,2049
1630497997856,2048
1630497997860,2048
1630497997864,2048
1630497997868,2048
1630497997872,2048
1630497997876,2048
1630497997880,2048
1630497997884,2048
1630497997888,2047
1630497997892,2046
1630497997896,2046
1630497997900,2046
1630497997904,2045
1630497997908,2045
1630497997912,2045
1630497997916,2045
1630497997920,2046
1630497997924,2046
1630497997928,2045
1630497997932,2044
1630497997936,2044
1630497997940,2043
1630497997944,2042
1630497997948,2042
1630497997952,2042
1630497997956,2042
1630497997960,2043
1630497997964,2045
1630497997968,2048
1630497997972,2050
1630497997976,2051
1630497997980,2051
1630497997984,2049
1630497997988,2048
1630497997992,2047
1630497997996,2047
1630497998000,2047
1630497998004,2047
1630497998008,2047
1630497998012,2046
1630497998016,2046
1630497998020,2045
1630497998024,2045
1630497998028,2045
1630497998032,2046
1630497998036,2046
1630497998040,2046
1630497998044,2046
1630497998048,2047
1630497998052,2048
1630497998056,2048
1630497998060,2047
1630497998064,2043
1630497998068,2038
1630497998072,2038
1630497998076,2048
1630497998080,2072
1630497998084,2114
1630497998088,2167
1630497998092,2219
1630497998096,2250
1630497998100,2248
1630497998104,2208
1630497998108,2140
1630497998112,2066
1630497998116,2010
1630497998120,1981
1630497998124,1981
1630497998128,1998
1630497998132,2018
1630497998136,2031
1630497998140,2038
1630497998144,2040
1630497998148,2041
1630497998152,2042
1630497998156,2043
1630497998160,2044
1630497998164,2045
1630497998168,2045
1630497998172,2046
1630497998176,2046
1630497998180,2046
1630497998184,2047
1630497998188,2048
1630497998192,2048
1630497998196,2049
1630497998200,2050
1630497998204,2051
1630497998208,2051
1630497998212,2052
1630497998216,2052
1630497998220,2052
1630497998224,2053
1630497998228,2054
1630497998232,2055
1630497998236,2056
1630497998240,2058
1630497998244,2059
1630497998248,2061
1630497998252,2062
1630497998256,2062
1630497998260,2063
1630497998264,2065
1630497998268,2066
1630497998272,2068
1630497998276,2069
1630497998280,2071
1630497998284,2072
1630497998288,2073
1630497998292,2073
1630497998296,2073
1630497998300,2072
1630497998304,2071
1630497998308,2070
1630497998312,2069
1630497998316,2068
1630497998320,2067
1630497998324,2065
1630497998328,2064
1630497998332,2063
1630497998336,2062
1630497998340,2061
1630497998344,2061
1630497998348,2061
1630497998352,2061
1630497998356,2061
1630497998360,2060
1630497998364,2059
1630497998368,2058
1630497998372,2057
1630497998376,2055
1630497998380,2054
1630497998384,2053
1630497998388,2052
1630497998392,2052
1630497998396,2051
1630497998400,2051
1630497998404,2051
1630497998408,2051
1630497998412,2051
1630497998416,2051
1630497998420,2051
1630497998424,2051
1630497998428,2051
1630497998432,2051
1630497998436,2051
1630497998440,2052
1630497998444,2052
1630497998448,2052
1630497998452,2052
1630497998456,2052
1630497998460,2051
1630497998464,2051
1630497998468,2050
1630497998472,2050
1630497998476,2050
1630497998480,2050
1630497998484,2050
1630497998488,2050
1630497998492,2050
1630497998496,2049
1630497998500,2048
1630497998504,2048
1630497998508,2048
1630497998512,2048
1630497998516,2048
1630497998520,2048
1630497998524,2048
1630497998528,2048
1630497998532,2048
1630497998536,2047
1630497998540,2047
1630497998544,2046
1630497998548,2046
1630497998552,2045
1630497998556,2045
1630497998560,2046
1630497998564,2046
1630497998568,2045
1630497998572,2045
1630497998576,2043
1630497998580,2042
1630497998584,2043
1630497998588,2046
1630497998592,2049
1630497998596,2052
1630497998600,2054
1630497998604,2053
1630497998608,2051
1630497998612,2049
1630497998616,2048
1630497998620,2047
1630497998624,2046
1630497998628,2046
1630497998632,2046
1630497998636,2046
1630497998640,2047
1630497998644,2047
1630497998648,2046
1630497998652,2046
1630497998656,2045
1630497998660,2045
1630497998664,2045
1630497998668,2046
1630497998672,2047
1630497998676,2048
1630497998680,2048
1630497998684,2046
1630497998688,2041
1630497998692,2036
1630497998696,2037
1630497998700,2050
1630497998704,2080
1630497998708,2127
1630497998712,2183
1630497998716,2232
1630497998720,2257
1630497998724,2244
1630497998728,2194
1630497998732,2121
1630497998736,2049
1630497998740,1999
1630497998744,1980
1630497998748,1988
1630497998752,2007
1630497998756,2026
1630497998760,2037
1630497998764,2040
1630497998768,2040
1630497998772,2039
1630497998776,2038
1630497998780,2038
1630497998784,2039
1630497998788,2040
1630497998792,2041
1630497998796,2042
1630497998800,2043
1630497998804,2044
1630497998808,2044
1630497998812,2045
1630497998816,2045
1630497998820,2045
1630497998824,2046
1630497998828,2046
1630497998832,2047
1630497998836,2048
1630497998840,2048
1630497998844,2049
1630497998848,2050
1630497998852,2051
1630497998856,2051
1630497998860,2052
1630497998864,2053
1630497998868,2054
1630497998872,2056
1630497998876,2057
1630497998880,2059
1630497998884,2060
1630497998888,2061
1630497998892,2062
1630497998896,2063
1630497998900,2064
1630497998904,2064
1630497998908,2065
1630497998912,2066
1630497998916,2066
1630497998920,2066
1630497998924,2066
1630497998928,2064
1630497998932,2063
1630497998936,2061
1630497998940,2059
1630497998944,2058
1630497998948,2057
1630497998952,2056
1630497998956,2056
1630497998960,2056
1630497998964,2056
1630497998968,2056
1630497998972,2056
1630497998976,2055
1630497998980,2054
1630497998984,2053
1630497998988,2052
1630497998992,2052
1630497998996,2051
1630497999000,2050
1630497999004,2049
1630497999008,2048
1630497999012,2048
1630497999016,2047
1630497999020,2046
1630497999024,2046
1630497999028,2046
1630497999032,2047
1630497999036,2048
1630497999040,2048
1630497999044,2048
1630497999048,2048
1630497999052,2048
1630497999056,2048
1630497999060,2048
1630497999064,2048
1630497999068,2048
1630497999072,2048
1630497999076,2048
1630497999080,2049
1630497999084,2049
1630497999088,2049
1630497999092,2048
1630497999096,2048
1630497999100,2048
1630497999104,2047
1630497999108,2047
1630497999112,2047
1630497999116,2048
1630497999120,2047
1630497999124,2047
1630497999128,2046
1630497999132,2045
1630497999136,2045
1630497999140,2044
1630497999144,2044
1630497999148,2044
1630497999152,2043
1630497999156,2043
1630497999160,2043
1630497999164,2043
1630497999168,2043
1630497999172,2042
1630497999176,2040
1630497999180,2039
1630497999184,2040
1630497999188,2042
1630497999192,2045
1630497999196,2048
1630497999200,2050
1630497999204,2050
1630497999208,2048
1630497999212,2047
1630497999216,2044
1630497999220,2043
1630497999224,2043
1630497999228,2043
1630497999232,2043
1630497999236,2043
1630497999240,2043
1630497999244,2043
1630497999248,2043
1630497999252,2042
1630497999256,2042
1630497999260,2041
1630497999264,2041
1630497999268,2041
1630497999272,2042
1630497999276,2044
1630497999280,2045
1630497999284,2045
1630497999288,2041
1630497999292,2035
1630497999296,2030
1630497999300,2033
1630497999304,2051
1630497999308,2088
1630497999312,2141
1630497999316,2198
1630497999320,2241
1630497999324,2252
1630497999328,2224
1630497999332,2162
1630497999336,2086
1630497999340,2023
1630497999344,1985
1630497999348,1978
1630497999352,1992
1630497999356,2012
1630497999360,2028
1630497999364,2035
1630497999368,2036
1630497999372,2036
1630497999376,2035
1630497999380,2035
1630497999384,2036
1630497999388,2037
1630497999392,2038
1630497999396,2039
1630497999400,2039
1630497999404,2040
1630497999408,2040
1630497999412,2041
1630497999416,2041
1630497999420,2041
1630497999424,2041
1630497999428,2042
1630497999432,2043
1630497999436,2044
1630497999440,2045
1630497999444,2046
1630497999448,2047
1630497999452,2047
1630497999456,2047
1630497999460,2048
1630497999464,2048
1630497999468,2048
1630497999472,2050
1630497999476,2051
1630497999480,2053
1630497999484,2054
1630497999488,2055
1630497999492,2056
1630497999496,2057
1630497999500,2057
1630497999504,2058
1630497999508,2058
1630497999512,2059
1630497999516,2060
1630497999520,2060
1630497999524,2060
1630497999528,2059
1630497999532,2058
1630497999536,2056
1630497999540,2054
1630497999544,2052
1630497999548,2051
1630497999552,2051
1630497999556,2050
1630497999560,2051
1630497999564,2051
1630497999568,2051
1630497999572,2050
1630497999576,2050
1630497999580,2049
1630497999584,2048
1630497999588,2048
1630497999592,2048
1630497999596,2047
1630497999600,2046
1630497999604,2046
1630497999608,2044
1630497999612,2043
1630497999616,2042
1630497999620,2042
1630497999624,2041
1630497999628,2041
1630497999632,2042
1630497999636,2042
1630497999640,2043
1630497999644,2043
1630497999648,2043
1630497999652,2043
1630497999656,2043
1630497999660,2043
1630497999664,2043
1630497999668,2043
1630497999672,2044
1630497999676,2044
1630497999680,2044
1630497999684,2044
1630497999688,2044
1630497999692,2043
1630497999696,2043
1630497999700,2042
1630497999704,2042
1630497999708,2042
1630497999712,2042
1630497999716,2042
1630497999720,2042
1630497999724,2042
1630497999728,2042
1630497999732,2041
1630497999736,2040
1630497999740,2039
1630497999744,2039
1630497999748,2039
1630497999752,2039
1630497999756,2039
1630497999760,2038
1630497999764,2037
1630497999768,2036
1630497999772,2036
1630497999776,2037
1630497999780,2039
1630497999784,2042
1630497999788,2045
1630497999792,2046
1630497999796,2045
1630497999800,2044
1630497999804,2042
1630497999808,2040
1630497999812,2039
1630497999816,2038
1630497999820,2038
1630497999824,2037
1630497999828,2037
1630497999832,2037
1630497999836,2038
1630497999840,2038
1630497999844,2037
1630497999848,2037
1630497999852,2037
1630497999856,2037
1630497999860,2037
1630497999864,2038
1630497999868,2039
1630497999872,2040
1630497999876,2038
1630497999880,2032
1630497999884,2027
1630497999888,2027
1630497999892,2041
1630497999896,2072
1630497999900,2121
1630497999904,2177
1630497999908,2221
1630497999912,2236
1630497999916,2214
1630497999920,2157
1630497999924,2085
1630497999928,2022
1630497999932,1981
1630497999936,1969
1630497999940,1978
1630497999944,1997
1630497999948,2014
1630497999952,2024
1630497999956,2030
1630497999960,2032
1630497999964,2033
1630497999968,2034
1630497999972,2034
1630497999976,2034
1630497999980,2034
1630497999984,2035
1630497999988,2036
1630497999992,2037
1630497999996,2039
1630498000000,2039
1630498000004,2040
1630498000008,2040
1630498000012,2040
1630498000016,2040
1630498000020,2040
1630498000024,2042
1630498000028,2043
1630498000032,2045
1630498000036,2046
1630498000040,2047
1630498000044,2048
1630498000048,2048
1630498000052,2048
1630498000056,2049
1630498000060,2050
1630498000064,2051
1630498000068,2053
1630498000072,2054
1630498000076,2056
1630498000080,2058
1630498000084,2060
1630498000088,2060
1630498000092,2061
1630498000096,2061
1630498000100,2061
1630498000104,2061
1630498000108,2061
1630498000112,2062
1630498000116,2062
1630498000120,2062
1630498000124,2061
1630498000128,2059
1630498000132,2057
1630498000136,2056
1630498000140,2055
1630498000144,2054
1630498000148,2054
1630498000152,2055
1630498000156,2056
1630498000160,2056
1630498000164,2055
1630498000168,2054
1630498000172,2053
1630498000176,2051
1630498000180,2050
1630498000184,2048
1630498000188,2048
1630498000192,2047
1630498000196,2046
1630498000200,2045
1630498000204,2045
1630498000208,2044
1630498000212,2043
1630498000216,2043
1630498000220,2042
1630498000224,2042
1630498000228,2043
1630498000232,2044
1630498000236,2044
1630498000240,2045
1630498000244,2045
1630498000248,2045
1630498000252,2045
1630498000256,2044
1630498000260,2044
1630498000264,2045
1630498000268,2045
1630498000272,2046
1630498000276,2046
1630498000280,2046
1630498000284,2046
1630498000288,2046
1630498000292,2045
1630498000296,2045
1630498000300,2045
1630498000304,2044
1630498000308,2044
1630498000312,2044
1630498000316,2044
1630498000320,2044
1630498000324,2044
1630498000328,2044
1630498000332,2043
1630498000336,2042
1630498000340,2041
1630498000344,2040
1630498000348,2040
1630498000352,2041
1630498000356,2043
1630498000360,2046
1630498000364,2048
1630498000368,2049
1630498000372,2049
1630498000376,2048
1630498000380,2045
1630498000384,2044
1630498000388,2043
1630498000392,2043
1630498000396,2043
1630498000400,2043
1630498000404,2043
1630498000408,2043
1630498000412,2042
1630498000416,2041
1630498000420,2041
1630498000424,2040
1630498000428,2040
1630498000432,2040
1630498000436,2041
1630498000440,2042
1630498000444,2044
1630498000448,2045
1630498000452,2044
1630498000456,2039
1630498000460,2033
1630498000464,2029
1630498000468,2036
1630498000472,2057
1630498000476,2098
1630498000480,2151
1630498000484,2202
1630498000488,2233
1630498000492,2230
1630498000496,2190
1630498000500,2125
1630498000504,2055
1630498000508,2002
1630498000512,1976
1630498000516,1976
1630498000520,1992
1630498000524,2011
1630498000528,2024
1630498000532,2031
1630498000536,2034
1630498000540,2036
1630498000544,2037
1630498000548,2038
1630498000552,2039
1630498000556,2040
1630498000560,2042
1630498000564,2043
1630498000568,2044
1630498000572,2045
1630498000576,2045
1630498000580,2046
1630498000584,2046
1630498000588,2047
1630498000592,2048
1630498000596,2048
1630498000600,2049
1630498000604,2050
1630498000608,2051
1630498000612,2051
1630498000616,2052
1630498000620,2053
1630498000624,2055
1630498000628,2056
1630498000632,2057
1630498000636,2058
1630498000640,2059
1630498000644,2060
1630498000648,2061
1630498000652,2063
1630498000656,2064
1630498000660,2065
1630498000664,2066
1630498000668,2067
1630498000672,2069
1630498000676,2070
1630498000680,2071
1630498000684,2071
1630498000688,2071
1630498000692,2070
1630498000696,2069
1630498000700,2068
1630498000704,2066
1630498000708,2065
1630498000712,2064
1630498000716,2063
1630498000720,2063
1630498000724,2063
1630498000728,2063
1630498000732,2063
1630498000736,2062
1630498000740,2062
1630498000744,2061
1630498000748,2060
1630498000752,2060
1630498000756,2060
1630498000760,2059
1630498000764,2058
1630498000768,2056
1630498000772,2055
1630498000776,2053
1630498000780,2052
1630498000784,2051
1630498000788,2051
1630498000792,2051
1630498000796,2052
1630498000800,2052
1630498000804,2052
1630498000808,2052
1630498000812,2052
1630498000816,2052
1630498000820,2052
1630498000824,2052
1630498000828,2052
1630498000832,2053
1630498000836,2053
1630498000840,2054
1630498000844,2054
1630498000848,2054
1630498000852,2054
1630498000856,2053
1630498000860,2052
1630498000864,2052
1630498000868,2052
1630498000872,2052
1630498000876,2053
1630498000880,2053
1630498000884,2052
1630498000888,2051
1630498000892,2051
1630498000896,2050
1630498000900,2049
1630498000904,2049
1630498000908,2049
1630498000912,2049
1630498000916,2049
1630498000920,2048
1630498000924,2048
1630498000928,2047
1630498000932,2046
1630498000936,2047
1630498000940,2048
1630498000944,2051
1630498000948,2054
1630498000952,2055
1630498000956,2054
1630498000960,2053
1630498000964,2051
1630498000968,2049
1630498000972,2049
1630498000976,2048
1630498000980,2048
1630498000984,2048
1630498000988,2047
1630498000992,2048
1630498000996,2048
1630498001000,2048
1630498001004,2048
1630498001008,2048
1630498001012,2048
1630498001016,2047
1630498001020,2048
1630498001024,2048
1630498001028,2049
1630498001032,2049
1630498001036,2047
1630498001040,2041
1630498001044,2037
1630498001048,2040
1630498001052,2055
1630498001056,2089
1630498001060,2138
1630498001064,2195
1630498001068,2242
1630498001072,2260
1630498001076,2240
1630498001080,2185
1630498001084,2110
1630498001088,2044
1630498001092,2001
1630498001096,1988
1630498001100,1999
1630498001104,2019
1630498001108,2034
1630498001112,2042
1630498001116,2044
1630498001120,2043
1630498001124,2043
1630498001128,2043
1630498001132,2043
1630498001136,2043
1630498001140,2043
1630498001144,2044
1630498001148,2045
1630498001152,2046
1630498001156,2047
1630498001160,2048
1630498001164,2048
1630498001168,2048
1630498001172,2048
1630498001176,2048
1630498001180,2049
1630498001184,2049
1630498001188,2049
1630498001192,2051
1630498001196,2052
1630498001200,2053
1630498001204,2054
1630498001208,2055
1630498001212,2056
1630498001216,2056
1630498001220,2057
1630498001224,2058
1630498001228,2059
1630498001232,2061
1630498001236,2062
1630498001240,2064
1630498001244,2065
1630498001248,2065
1630498001252,2065
1630498001256,2065
1630498001260,2066
1630498001264,2066
1630498001268,2066
1630498001272,2065
1630498001276,2065
1630498001280,2064
1630498001284,2062
1630498001288,2060
1630498001292,2059
1630498001296,2057
1630498001300,2056
1630498001304,2056
1630498001308,2056
1630498001312,2056
1630498001316,2057
1630498001320,2057
1630498001324,2057
1630498001328,2057
1630498001332,2056
1630498001336,2054
1630498001340,2053
1630498001344,2052
1630498001348,2052
1630498001352,2051
1630498001356,2051
1630498001360,2051
1630498001364,2050
1630498001368,2049
1630498001372,2049
1630498001376,2048
1630498001380,2048
1630498001384,2049
1630498001388,2049
1630498001392,2050
1630498001396,2050
1630498001400,2051
1630498001404,2051
1630498001408,2051
1630498001412,2051
1630498001416,2051
1630498001420,2051
1630498001424,2051
1630498001428,2051
1630498001432,2051
1630498001436,2051
1630498001440,2052
1630498001444,2052
1630498001448,2051
1630498001452,2050
1630498001456,2050
1630498001460,2049
1630498001464,2049
1630498001468,2049
1630498001472,2050
1630498001476,2050
1630498001480,2049
1630498001484,2049
1630498001488,2048
1630498001492,2048
1630498001496,2047
1630498001500,2045
1630498001504,2044
1630498001508,2043
1630498001512,2044
1630498001516,2046
1630498001520,2049
1630498001524,2052
1630498001528,2054
1630498001532,2054
1630498001536,2052
1630498001540,2050
1630498001544,2048
1630498001548,2047
1630498001552,2047
1630498001556,2047
1630498001560,2047
1630498001564,2046
1630498001568,2046
1630498001572,2045
1630498001576,2045
1630498001580,2044
1630498001584,2044
1630498001588,2044
1630498001592,2044
1630498001596,2045
1630498001600,2045
1630498001604,2047
1630498001608,2048
1630498001612,2047
1630498001616,2044
1630498001620,2037
1630498001624,2030
1630498001628,2030
1630498001632,2044
1630498001636,2075
1630498001640,2125
1630498001644,2185
1630498001648,2237
1630498001652,2261
1630498001656,2245
1630498001660,2191
1630498001664,2115
1630498001668,2045
1630498001672,1999
1630498001676,1984
1630498001680,1994
1630498001684,2013
1630498001688,2029
1630498001692,2036
1630498001696,2037
1630498001700,2037
1630498001704,2036
1630498001708,2036
1630498001712,2037
1630498001716,2037
1630498001720,2039
1630498001724,2040
1630498001728,2040
1630498001732,2041
1630498001736,2041
1630498001740,2041
1630498001744,2041
1630498001748,2041
1630498001752,2042
1630498001756,2043
1630498001760,2045
1630498001764,2046
1630498001768,2046
1630498001772,2046
1630498001776,2047
1630498001780,2047
1630498001784,2048
1630498001788,2048
1630498001792,2049
1630498001796,2050
1630498001800,2052
1630498001804,2053
1630498001808,2054
1630498001812,2055
1630498001816,2056
1630498001820,2056
1630498001824,2057
1630498001828,2058
1630498001832,2060
1630498001836,2061
1630498001840,2061
1630498001844,2061
1630498001848,2061
1630498001852,2060
1630498001856,2058
1630498001860,2056
1630498001864,2055
1630498001868,2053
1630498001872,2053
1630498001876,2052
1630498001880,2051
1630498001884,2051
1630498001888,2050
1630498001892,2050
1630498001896,2050
1630498001900,2050
1630498001904,2050
1630498001908,2050
1630498001912,2050
1630498001916,2049
1630498001920,2049
1630498001924,2048
1630498001928,2047
1630498001932,2046
1630498001936,2045
1630498001940,2044
1630498001944,2043
1630498001948,2042
1630498001952,2042
1630498001956,2042
1630498001960,2043
1630498001964,2044
1630498001968,2044
1630498001972,2043
1630498001976,2043
1630498001980,2042
1630498001984,2042
1630498001988,2042
1630498001992,2042
1630498001996,2043
1630498002000,2044
1630498002004,2044
1630498002008,2044
1630498002012,2044
1630498002016,2044
1630498002020,2043
1630498002024,2043
1630498002028,2042
1630498002032,2043
1630498002036,2043
1630498002040,2043
1630498002044,2043
1630498002048,2043
1630498002052,2042
1630498002056,2041
1630498002060,2040
1630498002064,2040
1630498002068,2040
1630498002072,2039
1630498002076,2039
1630498002080,2039
1630498002084,2039
1630498002088,2039
1630498002092,2039
1630498002096,2038
1630498002100,2036
1630498002104,2035
1630498002108,2035
1630498002112,2036
1630498002116,2039
1630498002120,2042
1630498002124,2044
1630498002128,2045
1630498002132,2044
1630498002136,2042
1630498002140,2040
1630498002144,2039
1630498002148,2038
1630498002152,2038
1630498002156,2038
1630498002160,2038
1630498002164,2038
1630498002168,2038
1630498002172,2037
1630498002176,2036
1630498002180,2036
1630498002184,2036
1630498002188,2036
1630498002192,2037
1630498002196,2037
1630498002200,2038
1630498002204,2040
1630498002208,2041
1630498002212,2039
1630498002216,2034
1630498002220,2027
1630498002224,2024
1630498002228,2033
1630498002232,2058
1630498002236,2103
1630498002240,2160
1630498002244,2212
1630498002248,2242
1630498002252,2234
1630498002256,2189
1630498002260,2119
1630498002264,2048
1630498002268,1996
1630498002272,1973
1630498002276,1976
1630498002280,1994
1630498002284,2012
1630498002288,2024
1630498002292,2029
1630498002296,2031
1630498002300,2031
1630498002304,2031
1630498002308,2031
1630498002312,2032
1630498002316,2034
1630498002320,2035
1630498002324,2036
1630498002328,2037
1630498002332,2037
1630498002336,2038
1630498002340,2038
1630498002344,2039
1630498002348,2039
1630498002352,2041
1630498002356,2042
1630498002360,2043
1630498002364,2044
1630498002368,2044
1630498002372,2045
1630498002376,2045
1630498002380,2046
1630498002384,2047
1630498002388,2048
1630498002392,2048
1630498002396,2050
1630498002400,2051
1630498002404,2053
1630498002408,2054
1630498002412,2055
1630498002416,2056
1630498002420,2057
1630498002424,2058
1630498002428,2059
1630498002432,2060
1630498002436,2061
1630498002440,2062
1630498002444,2063
1630498002448,2063
1630498002452,2062
1630498002456,2060
1630498002460,2058
1630498002464,2056
1630498002468,2055
1630498002472,2054
1630498002476,2054
1630498002480,2054
1630498002484,2054
1630498002488,2054
1630498002492,2054
1630498002496,2054
1630498002500,2053
1630498002504,2053
1630498002508,2052
1630498002512,2051
1630498002516,2050
1630498002520,2050
1630498002524,2049
1630498002528,2048
1630498002532,2046
1630498002536,2044
1630498002540,2043
1630498002544,2043
1630498002548,2043
1630498002552,2043
1630498002556,2043
1630498002560,2043
1630498002564,2043
1630498002568,2043
1630498002572,2044
1630498002576,2044
1630498002580,2045
1630498002584,2045
1630498002588,2045
1630498002592,2045
1630498002596,2045
1630498002600,2045
1630498002604,2046
1630498002608,2046
1630498002612,2046
1630498002616,2046
1630498002620,2045
1630498002624,2045
1630498002628,2045
1630498002632,2044
1630498002636,2044
1630498002640,2044
1630498002644,2044
1630498002648,2044
1630498002652,2043
1630498002656,2042
1630498002660,2042
1630498002664,2041
1630498002668,2041
1630498002672,2041
1630498002676,2041
1630498002680,2041
1630498002684,2041
1630498002688,2041
1630498002692,2040
1630498002696,2038
1630498002700,2036
1630498002704,2036
1630498002708,2037
1630498002712,2040
1630498002716,2043
1630498002720,2046
1630498002724,2048
1630498002728,2047
1630498002732,2045
1630498002736,2042
1630498002740,2040
1630498002744,2039
1630498002748,2039
1630498002752,2039
1630498002756,2039
1630498002760,2039
1630498002764,2039
1630498002768,2039
1630498002772,2039
1630498002776,2039
1630498002780,2038
1630498002784,2038
1630498002788,2038
1630498002792,2039
1630498002796,2040
1630498002800,2041
1630498002804,2042
1630498002808,2041
1630498002812,2036
1630498002816,2031
1630498002820,2030
1630498002824,2041
1630498002828,2067
1630498002832,2113
1630498002836,2170
1630498002840,2220
1630498002844,2245
1630498002848,2231
1630498002852,2179
1630498002856,2105
1630498002860,2034
1630498002864,1985
1630498002868,1966
1630498002872,1973
1630498002876,1991
1630498002880,2010
1630498002884,2021
1630498002888,2028
1630498002892,2031
1630498002896,2033
1630498002900,2034
1630498002904,2036
1630498002908,2037
1630498002912,2039
1630498002916,2040
1630498002920,2042
1630498002924,2043
1630498002928,2043
1630498002932,2044
1630498002936,2044
1630498002940,2045
1630498002944,2046
1630498002948,2047
1630498002952,2048
1630498002956,2049
1630498002960,2050
1630498002964,2051
1630498002968,2052
1630498002972,2052
1630498002976,2053
1630498002980,2054
1630498002984,2055
1630498002988,2057
1630498002992,2059
1630498002996,2060
1630498003000,2062
1630498003004,2063
1630498003008,2064
1630498003012,2065
1630498003016,2066
1630498003020,2068
1630498003024,2070
1630498003028,2071
1630498003032,2072
1630498003036,2073
1630498003040,2074
1630498003044,2074
1630498003048,2073
1630498003052,2072
1630498003056,2070
1630498003060,2069
1630498003064,2067
1630498003068,2066
1630498003072,2065
1630498003076,2065
1630498003080,2065
1630498003084,2065
1630498003088,2065
1630498003092,2064
1630498003096,2064
1630498003100,2063
1630498003104,2062
1630498003108,2061
1630498003112,2060
1630498003116,2059
1630498003120,2058
1630498003124,2056
1630498003128,2054
1630498003132,2053
1630498003136,2051
1630498003140,2050
1630498003144,2050
1630498003148,2050
1630498003152,2050
1630498003156,2050
1630498003160,2051
1630498003164,2051
1630498003168,2051
1630498003172,2051
1630498003176,2050
1630498003180,2050
1630498003184,2051
1630498003188,2052
1630498003192,2052
1630498003196,2053
1630498003200,2053
1630498003204,2054
1630498003208,2053
1630498003212,2053
1630498003216,2053
1630498003220,2053
1630498003224,2053
1630498003228,2053
1630498003232,2054
1630498003236,2054
1630498003240,2054
1630498003244,2053
1630498003248,2053
1630498003252,2052
