timestamp,green,ir,red
1630497978004,90188,334781,430732
1630497978014,90211,334819,430736
1630497978024,90230,334822,430720
1630497978034,90254,334858,430679
1630497978044,90258,334817,430704
1630497978054,90266,334832,430737
1630497978064,90287,334818,430743
1630497978074,90282,334888,430729
1630497978084,90287,334855,430699
1630497978094,90295,334830,430658
1630497978104,90295,334865,430660
1630497978114,90270,334801,430663
1630497978124,90256,334727,430707
1630497978134,90259,334719,430646
1630497978144,90223,334707,430592
1630497978154,90197,334664,430627
1630497978164,90175,334660,430589
1630497978174,90136,334645,430611
1630497978184,90098,334585,430594
1630497978194,90085,334567,430571
1630497978204,90067,334620,430590
1630497978214,90054,334572,430546
1630497978224,90016,334561,430558
1630497978234,90018,334576,430607
1630497978244,89995,334574,430583
1630497978254,89974,334531,430567
1630497978264,89950,334530,430565
1630497978274,89954,334553,430579
1630497978284,89968,334570,430578
1630497978294,89966,334620,430593
1630497978304,89988,334566,430596
1630497978314,89998,334601,430575
1630497978324,90000,334611,430580
1630497978334,89993,334673,430576
1630497978344,89994,334625,430644
1630497978354,90002,334606,430644
1630497978364,90003,334625,430612
1630497978374,90008,334603,430654
1630497978384,89993,334659,430629
1630497978394,90003,334606,430620
1630497978404,90003,334618,430617
1630497978414,90001,334659,430640
1630497978424,90007,334685,430617
1630497978434,90022,334686,430596
1630497978444,90018,334714,430668
1630497978454,90040,334656,430677
1630497978464,90024,334702,430691
1630497978474,90070,334687,430651
1630497978484,90085,334713,430685
1630497978494,90084,334753,430651
1630497978504,90120,334768,430682
1630497978514,90102,334823,430686
1630497978524,90115,334819,430688
1630497978534,90123,334862,430719
1630497978544,90156,334867,430757
1630497978554,90179,334846,430721
1630497978564,90201,334861,430725
1630497978574,90206,334842,430743
1630497978584,90218,334901,430723
1630497978594,90234,334913,430728
1630497978604,90256,334948,430757
1630497978614,90273,334927,430779
1630497978624,90296,334960,430780
1630497978634,90330,335000,430811
1630497978644,90360,334988,430840
1630497978654,90355,335004,430745
1630497978664,90369,335002,430798
1630497978674,90375,334966,430779
1630497978684,90378,334961,430747
1630497978694,90355,334924,430791
1630497978704,90315,334865,430751
1630497978714,90300,334869,430724
1630497978724,90279,334879,430689
1630497978734,90254,334826,430700
1630497978744,90235,334841,430671
1630497978754,90218,334821,430679
1630497978764,90201,334791,430661
1630497978774,90185,334779,430618
1630497978784,90168,334805,430645
1630497978794,90188,334804,430675
1630497978804,90159,334798,430628
1630497978814,90163,334779,430646
1630497978824,90152,334803,430658
1630497978834,90134,334820,430658
1630497978844,90154,334792,430683
1630497978854,90145,334836,430645
1630497978864,90136,334857,430677
1630497978874,90157,334826,430674
1630497978884,90149,334808,430644
1630497978894,90166,334807,430633
1630497978904,90165,334805,430609
1630497978914,90177,334862,430632
1630497978924,90176,334855,430610
1630497978934,90164,334829,430666
1630497978944,90175,334836,430633
1630497978954,90176,334865,430637
1630497978964,90201,334856,430636
1630497978974,90216,334895,430594
1630497978984,90204,334832,430613
1630497978994,90227,334892,430604
1630497979004,90225,334862,430575
1630497979014,90242,334850,430579
1630497979024,90230,334908,430589
1630497979034,90253,334907,430631
1630497979044,90273,334895,430622
1630497979054,90286,334890,430624
1630497979064,90311,334895,430621
1630497979074,90314,334927,430659
1630497979084,90340,334951,430587
1630497979094,90355,334992,430591
1630497979104,90372,334988,430604
1630497979114,90416,334979,430602
1630497979124,90445,335018,430654
1630497979134,90456,335054,430665
1630497979144,90462,335028,430603
1630497979154,90494,335055,430603
1630497979164,90512,335081,430578
1630497979174,90524,335073,430671
1630497979184,90525,335077,430610
1630497979194,90546,335114,430597
1630497979204,90547,335100,430615
1630497979214,90566,335083,430605
1630497979224,90572,335061,430599
1630497979234,90574,335054,430537
1630497979244,90551,335009,430517
1630497979254,90538,334987,430502
1630497979264,90527,334937,430493
1630497979274,90493,334920,430463
1630497979284,90497,334907,430462
1630497979294,90459,334845,430446
1630497979304,90453,334857,430443
1630497979314,90444,334815,430442
1630497979324,90412,334841,430412
1630497979334,90399,334869,430389
1630497979344,90389,334835,430360
1630497979354,90364,334770,430365
1630497979364,90364,334761,430327
1630497979374,90330,334771,430352
1630497979384,90321,334755,430280
1630497979394,90309,334790,430315
1630497979404,90307,334738,430328
1630497979414,90302,334804,430313
1630497979424,90316,334785,430326
1630497979434,90319,334770,430289
1630497979444,90323,334770,430329
1630497979454,90290,334796,430262
1630497979464,90316,334767,430257
1630497979474,90315,334817,430263
1630497979484,90317,334782,430296
1630497979494,90323,334780,430232
1630497979504,90316,334805,430212
1630497979514,90314,334767,430216
1630497979524,90317,334733,430210
1630497979534,90323,334772,430240
1630497979544,90314,334777,430220
1630497979554,90328,334824,430186
1630497979564,90337,334780,430209
1630497979574,90340,334807,430213
1630497979584,90352,334775,430230
1630497979594,90364,334810,430166
1630497979604,90384,334802,430223
1630497979614,90392,334810,430183
1630497979624,90409,334871,430196
1630497979634,90416,334882,430233
1630497979644,90441,334907,430213
1630497979654,90462,334885,430202
1630497979664,90475,334915,430224
1630497979674,90463,334950,430258
1630497979684,90506,334939,430226
1630497979694,90522,334962,430229
1630497979704,90550,334982,430245
1630497979714,90568,334937,430220
1630497979724,90596,334981,430240
1630497979734,90628,334996,430196
1630497979744,90655,335002,430171
1630497979754,90672,335005,430257
1630497979764,90683,335029,430222
1630497979774,90693,335005,430200
1630497979784,90689,335022,430168
1630497979794,90682,334925,430102
1630497979804,90671,334829,430169
1630497979814,90640,334845,430115
1630497979824,90616,334817,430112
1630497979834,90591,334788,430038
1630497979844,90565,334764,430091
1630497979854,90522,334728,429999
1630497979864,90490,334698,430048
1630497979874,90465,334717,430055
1630497979884,90414,334650,430077
1630497979894,90386,334684,430004
1630497979904,90349,334591,429950
1630497979914,90324,334572,429926
1630497979924,90312,334566,429887
1630497979934,90273,334544,429901
1630497979944,90264,334515,429862
1630497979954,90239,334508,429857
1630497979964,90232,334482,429839
1630497979974,90196,334490,429874
1630497979984,90210,334540,429835
1630497979994,90206,334497,429845
1630497980004,90199,334516,429849
1630497980014,90186,334463,429799
1630497980024,90188,334445,429814
1630497980034,90182,334451,429804
1630497980044,90160,334439,429797
1630497980054,90140,334428,429750
1630497980064,90106,334380,429707
1630497980074,90093,334445,429683
1630497980084,90069,334399,429652
1630497980094,90056,334387,429635
1630497980104,90025,334349,429629
1630497980114,90029,334362,429629
1630497980124,90029,334370,429594
1630497980134,90021,334364,429642
1630497980144,90013,334350,429626
1630497980154,90035,334352,429569
1630497980164,90034,334381,429570
1630497980174,90054,334314,429589
1630497980184,90067,334357,429596
1630497980194,90087,334359,429493
1630497980204,90098,334380,429550
1630497980214,90116,334390,429551
1630497980224,90153,334382,429537
1630497980234,90152,334478,429522
1630497980244,90159,334405,429559
1630497980254,90181,334403,429588
1630497980264,90185,334431,429616
1630497980274,90194,334434,429650
1630497980284,90239,334466,429643
1630497980294,90255,334482,429637
1630497980304,90282,334499,429655
1630497980314,90294,334564,429696
1630497980324,90297,334518,429642
1630497980334,90311,334524,429668
1630497980344,90292,334497,429648
1630497980354,90259,334406,429620
1630497980364,90243,334350,429620
1630497980374,90188,334308,429588
1630497980384,90147,334301,429531
1630497980394,90110,334275,429545
1630497980404,90073,334236,429523
1630497980414,90043,334183,429455
1630497980424,90018,334177,429438
1630497980434,89973,334151,429420
1630497980444,89932,334082,429504
1630497980454,89911,334105,429427
1630497980464,89877,334062,429446
1630497980474,89840,333981,429449
1630497980484,89802,333963,429396
1630497980494,89755,333944,429376
1630497980504,89724,333981,429343
1630497980514,89720,333942,429425
1630497980524,89680,333899,429366
1630497980534,89660,333940,429417
1630497980544,89653,333922,429408
1630497980554,89649,333977,429453
1630497980564,89616,333995,429451
1630497980574,89633,333960,429477
1630497980584,89635,333937,429538
1630497980594,89627,333969,429495
1630497980604,89593,333960,429516
1630497980614,89594,333951,429480
1630497980624,89594,333944,429499
1630497980634,89572,333941,429457
1630497980644,89566,333932,429510
1630497980654,89540,333925,429517
1630497980664,89530,333955,429502
1630497980674,89519,333880,429484
1630497980684,89523,333930,429462
1630497980694,89510,333961,429462
1630497980704,89516,333937,429468
1630497980714,89532,333951,429498
1630497980724,89538,333968,429494
1630497980734,89571,333941,429535
1630497980744,89568,333913,429519
1630497980754,89578,333972,429548
1630497980764,89579,334000,429489
1630497980774,89589,334006,429543
1630497980784,89593,334018,429579
1630497980794,89610,333984,429561
1630497980804,89621,334059,429543
1630497980814,89641,334153,429564
1630497980824,89644,334116,429613
1630497980834,89650,334129,429604
1630497980844,89672,334137,429624
1630497980854,89693,334156,429680
1630497980864,89703,334109,429636
1630497980874,89731,334159,429651
1630497980884,89735,334196,429686
1630497980894,89750,334172,429681
1630497980904,89777,334148,429655
1630497980914,89758,334097,429610
1630497980924,89693,334052,429662
1630497980934,89678,334034,429616
1630497980944,89637,333976,429549
1630497980954,89603,333912,429552
1630497980964,89574,333888,429515
1630497980974,89549,333868,429535
1630497980984,89506,333821,429525
1630497980994,89478,333887,429514
1630497981004,89455,333813,429494
1630497981014,89427,333815,429485
1630497981024,89395,333790,429489
1630497981034,89387,333754,429483
1630497981044,89360,333739,429509
1630497981054,89347,333702,429513
1630497981064,89332,333689,429485
1630497981074,89307,333674,429478
1630497981084,89291,333744,429473
1630497981094,89278,333721,429507
1630497981104,89290,333653,429494
1630497981114,89282,333695,429440
1630497981124,89280,333712,429486
1630497981134,89287,333704,429483
1630497981144,89273,333701,429519
1630497981154,89267,333686,429487
1630497981164,89266,333709,429495
1630497981174,89273,333697,429511
1630497981184,89270,333668,429502
1630497981194,89262,333679,429485
1630497981204,89256,333697,429493
1630497981214,89263,333686,429464
1630497981224,89278,333647,429508
1630497981234,89281,333726,429505
1630497981244,89270,333721,429521
1630497981254,89268,333758,429544
1630497981264,89283,333672,429530
1630497981274,89282,333720,429545
1630497981284,89304,333742,429553
1630497981294,89299,333718,429548
1630497981304,89317,333737,429550
1630497981314,89326,333724,429574
1630497981324,89328,333783,429582
1630497981334,89343,333776,429570
1630497981344,89350,333814,429605
1630497981354,89367,333769,429630
1630497981364,89379,333801,429588
1630497981374,89404,333824,429613
1630497981384,89430,333871,429613
1630497981394,89446,333841,429618
1630497981404,89447,333883,429611
1630497981414,89500,333905,429609
1630497981424,89488,333901,429663
1630497981434,89528,333918,429652
1630497981444,89549,333931,429645
1630497981454,89569,333967,429651
1630497981464,89578,333989,429662
1630497981474,89585,333952,429715
1630497981484,89588,334004,429673
1630497981494,89598,333904,429665
1630497981504,89584,333926,429636
1630497981514,89565,333884,429604
1630497981524,89532,333829,429636
1630497981534,89506,333747,429565
1630497981544,89485,333706,429550
1630497981554,89449,333721,429565
1630497981564,89420,333720,429606
1630497981574,89412,333629,429554
1630497981584,89384,333617,429513
1630497981594,89373,333603,429484
1630497981604,89358,333614,429497
1630497981614,89308,333593,429449
1630497981624,89303,333564,429474
1630497981634,89285,333577,429496
1630497981644,89273,333539,429493
1630497981654,89267,333507,429469
1630497981664,89259,333577,429508
1630497981674,89252,333459,429499
1630497981684,89251,333575,429516
1630497981694,89253,333576,429529
1630497981704,89273,333578,429563
1630497981714,89252,333583,429568
1630497981724,89249,333533,429574
1630497981734,89275,333529,429561
1630497981744,89289,333599,429523
1630497981754,89258,333555,429593
1630497981764,89283,333566,429551
1630497981774,89299,333540,429550
1630497981784,89310,333560,429589
1630497981794,89286,333549,429573
1630497981804,89303,333593,429550
1630497981814,89291,333536,429560
1630497981824,89304,333567,429556
1630497981834,89317,333573,429565
1630497981844,89310,333602,429560
1630497981854,89316,333586,429585
1630497981864,89337,333572,429605
1630497981874,89329,333550,429574
1630497981884,89358,333625,429564
1630497981894,89370,333607,429589
1630497981904,89385,333593,429576
1630497981914,89398,333620,429545
1630497981924,89417,333649,429546
1630497981934,89411,333675,429643
1630497981944,89434,333695,429597
1630497981954,89432,333740,429633
1630497981964,89446,333695,429603
1630497981974,89473,333699,429657
1630497981984,89490,333715,429636
1630497981994,89508,333703,429692
1630497982004,89533,333747,429620
1630497982014,89545,333729,429590
1630497982024,89564,333770,429597
1630497982034,89598,333750,429667
1630497982044,89619,333800,429646
1630497982054,89639,333787,429619
1630497982064,89655,333773,429659
1630497982074,89643,333756,429620
1630497982084,89638,333700,429633
1630497982094,89601,333716,429567
1630497982104,89590,333684,429596
1630497982114,89572,333610,429600
1630497982124,89541,333593,429535
1630497982134,89503,333558,429521
1630497982144,89483,333561,429503
1630497982154,89455,333547,429507
1630497982164,89430,333565,429507
1630497982174,89410,333492,429548
1630497982184,89400,333455,429499
1630497982194,89394,333456,429538
1630497982204,89347,333481,429511
1630497982214,89352,333476,429495
1630497982224,89349,333427,429521
1630497982234,89334,333433,429494
1630497982244,89311,333437,429493
1630497982254,89321,333484,429522
1630497982264,89304,333413,429512
1630497982274,89314,333448,429491
1630497982284,89323,333419,429539
1630497982294,89323,333459,429505
1630497982304,89316,333462,429513
1630497982314,89319,333473,429515
1630497982324,89328,333412,429533
1630497982334,89342,333469,429566
1630497982344,89341,333471,429495
1630497982354,89346,333456,429599
1630497982364,89349,333492,429571
1630497982374,89358,333469,429515
1630497982384,89365,333440,429528
1630497982394,89351,333468,429577
1630497982404,89375,333502,429536
1630497982414,89385,333514,429539
1630497982424,89388,333490,429542
1630497982434,89391,333471,429580
1630497982444,89398,333475,429543
1630497982454,89412,333541,429533
1630497982464,89428,333492,429557
1630497982474,89439,333551,429586
1630497982484,89461,333576,429598
1630497982494,89485,333617,429582
1630497982504,89502,333576,429585
1630497982514,89530,333645,429613
1630497982524,89563,333656,429609
1630497982534,89579,333625,429592
1630497982544,89594,333666,429624
1630497982554,89618,333676,429606
1630497982564,89634,333659,429600
1630497982574,89646,333688,429672
1630497982584,89690,333713,429636
1630497982594,89683,333733,429670
1630497982604,89709,333757,429689
1630497982614,89734,333739,429654
1630497982624,89757,333783,429681
1630497982634,89789,333834,429684
1630497982644,89805,333812,429706
1630497982654,89820,333794,429694
1630497982664,89836,333839,429632
1630497982674,89823,333730,429624
1630497982684,89830,333707,429622
1630497982694,89785,333702,429602
1630497982704,89796,333640,429613
1630497982714,89763,333631,429564
1630497982724,89731,333607,429585
1630497982734,89731,333548,429569
1630497982744,89721,333550,429561
1630497982754,89671,333516,429520
1630497982764,89659,333504,429478
1630497982774,89629,333518,429458
1630497982784,89612,333443,429472
1630497982794,89609,333465,429453
1630497982804,89598,333442,429486
1630497982814,89575,333400,429436
1630497982824,89568,333433,429425
1630497982834,89584,333377,429422
1630497982844,89572,333405,429426
1630497982854,89580,333402,429433
1630497982864,89555,333418,429430
1630497982874,89585,333398,429473
1630497982884,89582,333431,429441
1630497982894,89586,333419,429472
1630497982904,89594,333368,429446
1630497982914,89613,333418,429461
1630497982924,89627,333449,429442
1630497982934,89625,333399,429462
1630497982944,89645,333445,429444
1630497982954,89648,333429,429481
1630497982964,89653,333418,429463
1630497982974,89658,333451,429472
1630497982984,89667,333471,429427
1630497982994,89679,333435,429441
1630497983004,89676,333433,429421
1630497983014,89693,333417,429481
1630497983024,89694,333494,429461
1630497983034,89717,333468,429478
1630497983044,89737,333440,429456
1630497983054,89755,333505,429429
1630497983064,89760,333521,429441
1630497983074,89783,333556,429510
1630497983084,89788,333515,429454
1630497983094,89796,333576,429486
1630497983104,89819,333549,429496
1630497983114,89837,333600,429487
1630497983124,89851,333631,429502
1630497983134,89876,333611,429500
1630497983144,89898,333647,429546
1630497983154,89930,333653,429510
1630497983164,89944,333665,429521
1630497983174,89956,333682,429526
1630497983184,89993,333708,429590
1630497983194,90001,333753,429535
1630497983204,90030,333758,429580
1630497983214,90057,333758,429556
1630497983224,90061,333749,429542
1630497983234,90105,333775,429562
1630497983244,90113,333808,429550
1630497983254,90120,333854,429579
1630497983264,90166,333812,429625
1630497983274,90181,333821,429571
1630497983284,90198,333876,429575
1630497983294,90216,333787,429524
1630497983304,90214,333769,429533
1630497983314,90189,333740,429511
1630497983324,90194,333702,429510
1630497983334,90155,333651,429515
1630497983344,90153,333628,429442
1630497983354,90146,333667,429464
1630497983364,90128,333590,429456
1630497983374,90105,333566,429447
1630497983384,90091,333543,429439
1630497983394,90081,333586,429405
1630497983404,90062,333559,429381
1630497983414,90059,333542,429414
1630497983424,90037,333529,429395
1630497983434,90036,333500,429369
1630497983444,90024,333483,429385
1630497983454,90004,333490,429345
1630497983464,90006,333496,429364
1630497983474,89998,333466,429326
1630497983484,90002,333438,429328
1630497983494,89984,333493,429350
1630497983504,89999,333555,429317
1630497983514,90003,333485,429375
1630497983524,90002,333508,429377
1630497983534,90013,333526,429363
1630497983544,90012,333503,429350
1630497983554,90032,333496,429339
1630497983564,90029,333501,429356
1630497983574,90033,333514,429327
1630497983584,90047,333564,429323
1630497983594,90055,333519,429343
1630497983604,90065,333541,429369
1630497983614,90067,333546,429298
1630497983624,90074,333525,429340
1630497983634,90093,333550,429352
1630497983644,90112,333542,429368
1630497983654,90130,333583,429339
1630497983664,90165,333556,429304
1630497983674,90158,333617,429336
1630497983684,90191,333533,429309
1630497983694,90182,333600,429358
1630497983704,90200,333624,429343
1630497983714,90231,333639,429361
1630497983724,90255,333699,429369
1630497983734,90270,333661,429355
1630497983744,90274,333641,429349
1630497983754,90306,333704,429293
1630497983764,90325,333705,429394
1630497983774,90354,333735,429374
1630497983784,90356,333781,429377
1630497983794,90411,333769,429394
1630497983804,90423,333836,429378
1630497983814,90421,333816,429412
1630497983824,90448,333850,429449
1630497983834,90489,333913,429442
1630497983844,90513,333876,429441
1630497983854,90539,333887,429467
1630497983864,90553,333928,429443
1630497983874,90582,333937,429461
1630497983884,90602,333949,429474
1630497983894,90605,334004,429470
1630497983904,90641,334006,429466
1630497983914,90658,333987,429430
1630497983924,90681,334007,429483
1630497983934,90701,333998,429461
1630497983944,90695,333986,429426
1630497983954,90720,333958,429440
1630497983964,90724,333888,429385
1630497983974,90716,333949,429368
1630497983984,90665,333892,429341
1630497983994,90698,333840,429359
1630497984004,90691,333886,429363
1630497984014,90672,333794,429340
1630497984024,90654,333775,429312
1630497984034,90642,333752,429359
1630497984044,90622,333776,429345
1630497984054,90621,333761,429327
1630497984064,90602,333755,429315
1630497984074,90604,333765,429265
1630497984084,90586,333745,429261
1630497984094,90589,333730,429274
1630497984104,90584,333715,429259
1630497984114,90573,333751,429250
1630497984124,90549,333713,429255
1630497984134,90576,333753,429250
1630497984144,90586,333708,429216
1630497984154,90584,333731,429220
1630497984164,90590,333709,429250
1630497984174,90592,333712,429260
1630497984184,90578,333745,429195
1630497984194,90593,333766,429214
1630497984204,90627,333716,429210
1630497984214,90596,333735,429211
1630497984224,90598,333745,429221
1630497984234,90640,333764,429216
1630497984244,90616,333720,429226
1630497984254,90617,333746,429226
1630497984264,90628,333779,429228
1630497984274,90628,333749,429176
1630497984284,90661,333776,429233
1630497984294,90657,333772,429181
1630497984304,90684,333805,429207
1630497984314,90678,333761,429161
1630497984324,90706,333801,429165
1630497984334,90715,333835,429200
1630497984344,90722,333814,429228
1630497984354,90720,333889,429188
1630497984364,90760,333828,429195
1630497984374,90751,333892,429205
1630497984384,90772,333896,429221
1630497984394,90793,333942,429206
1630497984404,90814,333925,429253
1630497984414,90819,333950,429256
1630497984424,90855,333970,429222
1630497984434,90863,333996,429279
1630497984444,90879,333976,429270
1630497984454,90929,333966,429283
1630497984464,90925,334025,429244
1630497984474,90950,333995,429228
1630497984484,90976,334082,429310
1630497984494,91016,334069,429301
1630497984504,91006,334115,429318
1630497984514,91038,334135,429297
1630497984524,91061,334156,429302
1630497984534,91073,334105,429317
1630497984544,91091,334135,429331
1630497984554,91117,334214,429327
1630497984564,91126,334173,429305
1630497984574,91142,334226,429318
1630497984584,91165,334194,429297
1630497984594,91189,334180,429326
1630497984604,91194,334226,429291
1630497984614,91216,334142,429295
1630497984624,91212,334106,429290
1630497984634,91202,334106,429283
1630497984644,91199,334103,429231
1630497984654,91154,334055,429232
1630497984664,91157,334040,429183
1630497984674,91139,334028,429234
1630497984684,91106,334005,429232
1630497984694,91086,334020,429205
1630497984704,91081,333986,429153
1630497984714,91060,333986,429153
1630497984724,91042,333978,429168
1630497984734,91034,333939,429165
1630497984744,91029,333953,429148
1630497984754,91014,333942,429131
1630497984764,91002,333962,429143
1630497984774,91007,333976,429150
1630497984784,90999,333975,429084
1630497984794,91013,333948,429158
1630497984804,91012,333932,429119
1630497984814,91006,333986,429149
1630497984824,91010,333968,429133
1630497984834,90992,333954,429150
1630497984844,91020,333993,429110
1630497984854,91016,333933,429122
1630497984864,90991,333975,429131
1630497984874,91009,333993,429042
1630497984884,91009,333957,429093
1630497984894,91005,333939,429085
1630497984904,91006,333942,429132
1630497984914,90999,333951,429126
1630497984924,91011,333978,429047
1630497984934,91025,333991,429030
1630497984944,91023,333958,429036
1630497984954,91039,333985,429056
1630497984964,91047,334031,429088
1630497984974,91051,334028,429017
1630497984984,91062,334014,429061
1630497984994,91078,334044,429066
1630497985004,91052,334050,429079
1630497985014,91104,334061,429089
1630497985024,91094,334030,429055
1630497985034,91100,334112,429059
1630497985044,91121,334125,429074
1630497985054,91112,334121,429061
1630497985064,91133,334123,429034
1630497985074,91141,334171,429041
1630497985084,91160,334142,429109
1630497985094,91186,334158,429061
1630497985104,91204,334184,429056
1630497985114,91193,334171,429081
1630497985124,91215,334248,429079
1630497985134,91251,334170,429095
1630497985144,91249,334205,429101
1630497985154,91249,334246,429052
1630497985164,91296,334241,429082
1630497985174,91308,334287,429121
1630497985184,91308,334300,429107
1630497985194,91323,334338,429069
1630497985204,91350,334294,429067
1630497985214,91363,334347,429077
1630497985224,91379,334349,429068
1630497985234,91380,334348,429059
1630497985244,91391,334328,429044
1630497985254,91383,334312,429022
1630497985264,91404,334261,428990
1630497985274,91357,334171,428978
1630497985284,91339,334158,428932
1630497985294,91327,334174,428925
1630497985304,91293,334163,428929
1630497985314,91266,334061,428892
1630497985324,91222,334053,428898
1630497985334,91218,334020,428840
1630497985344,91201,334029,428826
1630497985354,91152,334019,428756
1630497985364,91125,334036,428785
1630497985374,91094,333988,428830
1630497985384,91078,333938,428753
1630497985394,91066,333962,428788
1630497985404,91037,333926,428758
1630497985414,91026,333942,428804
1630497985424,91034,333930,428820
1630497985434,91041,333970,428795
1630497985444,91024,333917,428791
1630497985454,91028,333956,428788
1630497985464,91015,333956,428814
1630497985474,91002,333935,428774
1630497985484,90999,333962,428771
1630497985494,90987,333958,428730
1630497985504,90961,333970,428731
1630497985514,90974,333975,428758
1630497985524,90979,333988,428705
1630497985534,90986,333953,428773
1630497985544,90981,333974,428738
1630497985554,90944,333975,428728
1630497985564,90949,333972,428761
1630497985574,90970,333969,428734
1630497985584,90953,333982,428696
1630497985594,90954,334001,428749
1630497985604,90979,333992,428754
1630497985614,90996,334011,428720
1630497985624,90973,333998,428731
1630497985634,91004,334028,428740
1630497985644,90984,334026,428726
1630497985654,91001,334033,428741
1630497985664,91010,334045,428720
1630497985674,90992,334030,428745
1630497985684,90994,334038,428718
1630497985694,91003,334062,428763
1630497985704,91037,334041,428749
1630497985714,91035,334091,428736
1630497985724,91053,334136,428789
1630497985734,91064,334199,428762
1630497985744,91110,334183,428763
1630497985754,91094,334192,428819
1630497985764,91096,334233,428825
1630497985774,91117,334233,428823
1630497985784,91139,334241,428816
1630497985794,91151,334254,428801
1630497985804,91152,334297,428807
1630497985814,91168,334207,428796
1630497985824,91178,334330,428752
1630497985834,91211,334337,428785
1630497985844,91212,334360,428787
1630497985854,91219,334367,428796
1630497985864,91228,334341,428788
1630497985874,91249,334279,428782
1630497985884,91229,334313,428789
1630497985894,91228,334328,428766
1630497985904,91208,334234,428766
1630497985914,91186,334269,428745
1630497985924,91148,334131,428688
1630497985934,91137,334136,428740
1630497985944,91099,334071,428685
1630497985954,91047,334090,428675
1630497985964,91036,334053,428625
1630497985974,90964,334041,428619
1630497985984,90946,333952,428601
1630497985994,90919,333984,428589
1630497986004,90867,334029,428657
1630497986014,90850,333971,428634
1630497986024,90842,333950,428614
1630497986034,90822,333977,428615
1630497986044,90815,333957,428600
1630497986054,90802,333932,428588
1630497986064,90791,333958,428585
1630497986074,90764,333951,428639
1630497986084,90762,333969,428629
1630497986094,90742,333944,428599
1630497986104,90725,333965,428582
1630497986114,90720,333924,428608
1630497986124,90689,333945,428630
1630497986134,90703,333942,428600
1630497986144,90703,333988,428614
1630497986154,90692,333980,428613
1630497986164,90669,334005,428607
1630497986174,90671,333961,428615
1630497986184,90660,333978,428575
1630497986194,90653,334001,428595
1630497986204,90649,334001,428600
1630497986214,90647,334017,428592
1630497986224,90642,333981,428626
1630497986234,90666,333977,428577
1630497986244,90629,334006,428649
1630497986254,90663,334039,428646
1630497986264,90661,333986,428617
1630497986274,90665,334076,428629
1630497986284,90678,334044,428680
1630497986294,90687,334083,428642
1630497986304,90687,334057,428627
1630497986314,90688,334088,428657
1630497986324,90677,334146,428684
1630497986334,90681,334135,428690
1630497986344,90701,334147,428663
1630497986354,90712,334187,428700
1630497986364,90724,334203,428700
1630497986374,90730,334210,428662
1630497986384,90742,334252,428695
1630497986394,90751,334242,428732
1630497986404,90786,334251,428714
1630497986414,90786,334250,428755
1630497986424,90810,334313,428721
1630497986434,90823,334295,428695
1630497986444,90833,334317,428764
1630497986454,90853,334354,428755
1630497986464,90871,334336,428779
1630497986474,90880,334340,428779
1630497986484,90883,334399,428750
1630497986494,90884,334382,428790
1630497986504,90910,334417,428809
1630497986514,90891,334359,428727
1630497986524,90883,334373,428711
1630497986534,90860,334289,428698
1630497986544,90833,334236,428680
1630497986554,90773,334171,428632
1630497986564,90747,334202,428616
1630497986574,90699,334124,428609
1630497986584,90654,334123,428561
1630497986594,90617,334078,428563
1630497986604,90589,334069,428539
1630497986614,90559,334030,428565
1630497986624,90518,334036,428534
1630497986634,90501,334042,428552
1630497986644,90474,334025,428596
1630497986654,90452,334022,428581
1630497986664,90418,334009,428579
1630497986674,90392,334014,428605
1630497986684,90384,334016,428562
1630497986694,90359,334035,428582
1630497986704,90361,334065,428580
1630497986714,90355,334029,428612
1630497986724,90353,334056,428647
1630497986734,90369,334061,428603
1630497986744,90369,334095,428647
1630497986754,90362,334039,428643
1630497986764,90364,334057,428635
1630497986774,90331,334065,428604
1630497986784,90341,334078,428693
1630497986794,90335,334061,428639
1630497986804,90333,334072,428627
1630497986814,90309,334059,428632
1630497986824,90321,334033,428656
1630497986834,90302,334083,428663
1630497986844,90304,334094,428637
1630497986854,90296,334070,428648
1630497986864,90298,334119,428640
1630497986874,90306,334134,428636
1630497986884,90316,334087,428640
1630497986894,90283,334159,428670
1630497986904,90307,334130,428706
1630497986914,90314,334144,428709
1630497986924,90345,334187,428736
1630497986934,90339,334180,428726
1630497986944,90351,334202,428753
1630497986954,90364,334248,428757
1630497986964,90369,334283,428744
1630497986974,90368,334248,428784
1630497986984,90378,334306,428781
1630497986994,90388,334273,428805
1630497987004,90394,334294,428774
1630497987014,90401,334332,428790
1630497987024,90452,334329,428815
1630497987034,90453,334366,428855
1630497987044,90478,334384,428844
1630497987054,90491,334374,428805
1630497987064,90480,334425,428844
1630497987074,90516,334447,428868
1630497987084,90535,334513,428848
1630497987094,90552,334468,428854
1630497987104,90535,334478,428841
1630497987114,90568,334507,428891
1630497987124,90557,334437,428851
1630497987134,90552,334425,428799
1630497987144,90536,334422,428791
1630497987154,90481,334326,428799
1630497987164,90445,334317,428736
1630497987174,90401,334235,428749
1630497987184,90377,334209,428731
1630497987194,90339,334213,428705
1630497987204,90295,334234,428711
1630497987214,90276,334189,428720
1630497987224,90271,334197,428713
1630497987234,90206,334119,428730
1630497987244,90201,334149,428820
1630497987254,90197,334166,428718
1630497987264,90164,334125,428717
1630497987274,90146,334176,428774
1630497987284,90151,334116,428766
1630497987294,90139,334115,428704
1630497987304,90134,334125,428731
1630497987314,90103,334181,428759
1630497987324,90105,334113,428720
1630497987334,90097,334124,428756
1630497987344,90100,334144,428750
1630497987354,90106,334157,428712
1630497987364,90098,334136,428751
1630497987374,90088,334113,428766
1630497987384,90092,334179,428741
1630497987394,90106,334151,428747
1630497987404,90096,334137,428747
1630497987414,90073,334147,428756
1630497987424,90074,334132,428782
1630497987434,90081,334180,428791
1630497987444,90082,334168,428708
1630497987454,90065,334183,428765
1630497987464,90039,334147,428757
1630497987474,90071,334199,428788
1630497987484,90070,334224,428746
1630497987494,90075,334208,428796
1630497987504,90086,334156,428815
1630497987514,90086,334244,428825
1630497987524,90126,334211,428808
1630497987534,90137,334218,428834
1630497987544,90165,334297,428849
1630497987554,90197,334286,428858
1630497987564,90215,334291,428868
1630497987574,90218,334297,428918
1630497987584,90250,334353,428882
1630497987594,90260,334358,428918
1630497987604,90304,334361,428942
1630497987614,90313,334389,428922
1630497987624,90322,334421,428926
1630497987634,90349,334450,428978
1630497987644,90374,334402,428978
1630497987654,90398,334455,428988
1630497987664,90412,334529,428991
1630497987674,90429,334511,428976
1630497987684,90451,334506,429030
1630497987694,90495,334530,429003
1630497987704,90499,334532,429038
1630497987714,90499,334506,428955
1630497987724,90465,334487,428974
1630497987734,90451,334436,428936
1630497987744,90419,334355,428931
1630497987754,90388,334365,428895
1630497987764,90336,334302,428906
1630497987774,90299,334288,428858
1630497987784,90257,334240,428901
1630497987794,90222,334289,428863
1630497987804,90168,334177,428885
1630497987814,90147,334221,428847
1630497987824,90141,334164,428820
1630497987834,90118,334197,428857
1630497987844,90085,334160,428808
1630497987854,90058,334143,428872
1630497987864,90026,334112,428852
1630497987874,90030,334137,428895
1630497987884,90025,334134,428869
1630497987894,90004,334185,428853
1630497987904,90011,334128,428906
1630497987914,89996,334151,428864
1630497987924,89997,334151,428893
1630497987934,89982,334188,428848
1630497987944,89978,334196,428941
1630497987954,89966,334141,428906
1630497987964,89961,334124,428912
1630497987974,89961,334123,428922
1630497987984,89954,334147,428953
1630497987994,89957,334144,428912
1630497988004,89944,334171,428940
1630497988014,89951,334155,428960
1630497988024,89955,334157,428931
1630497988034,89957,334218,428982
1630497988044,89952,334164,428970
1630497988054,89957,334153,428986
1630497988064,89923,334200,428990
1630497988074,89948,334215,428981
1630497988084,89951,334196,429001
1630497988094,89950,334196,428975
1630497988104,89972,334249,428992
1630497988114,89974,334265,428984
1630497988124,89960,334208,428989
1630497988134,89974,334287,429018
1630497988144,89987,334296,429086
1630497988154,89990,334309,429051
1630497988164,90012,334330,429099
1630497988174,90026,334313,429104
1630497988184,90063,334322,429086
1630497988194,90076,334310,429083
1630497988204,90101,334380,429086
1630497988214,90103,334356,429116
1630497988224,90107,334417,429100
1630497988234,90154,334399,429109
1630497988244,90183,334428,429083
1630497988254,90205,334428,429111
1630497988264,90211,334469,429103
1630497988274,90221,334470,429040
1630497988284,90253,334475,429066
1630497988294,90270,334435,429054
1630497988304,90269,334463,429045
1630497988314,90234,334430,429037
1630497988324,90218,334331,429037
1630497988334,90188,334280,429002
1630497988344,90129,334254,428959
1630497988354,90128,334170,428943
1630497988364,90082,334124,428961
1630497988374,90054,334155,428953
1630497988384,90021,334108,428935
1630497988394,89984,334092,428920
1630497988404,89946,334049,428935
1630497988414,89900,334068,428903
1630497988424,89877,334000,428908
1630497988434,89849,334071,428910
1630497988444,89830,334022,428916
1630497988454,89812,333996,428912
1630497988464,89789,333968,428940
1630497988474,89767,333972,428904
1630497988484,89763,333954,428977
1630497988494,89747,333955,428954
1630497988504,89749,333951,428937
1630497988514,89754,333998,428921
1630497988524,89744,333994,428991
1630497988534,89753,334000,428975
1630497988544,89737,334034,428947
1630497988554,89737,333974,428983
1630497988564,89739,333965,429007
1630497988574,89739,333979,429008
1630497988584,89718,333946,429016
1630497988594,89717,334009,428942
1630497988604,89706,334015,428978
1630497988614,89708,333945,428989
1630497988624,89698,333950,428958
1630497988634,89721,333979,428960
1630497988644,89712,333995,428962
1630497988654,89717,333970,429009
1630497988664,89721,333958,428995
1630497988674,89741,333964,429027
1630497988684,89748,333965,429038
1630497988694,89744,334038,429031
1630497988704,89741,334061,429068
1630497988714,89764,334011,429059
1630497988724,89757,334068,429106
1630497988734,89788,334104,429058
1630497988744,89800,334041,429095
1630497988754,89786,334063,429097
1630497988764,89813,334125,429113
1630497988774,89815,334144,429116
1630497988784,89855,334098,429160
1630497988794,89871,334175,429143
1630497988804,89863,334180,429152
1630497988814,89898,334191,429157
1630497988824,89913,334187,429121
1630497988834,89938,334253,429161
1630497988844,89952,334222,429173
1630497988854,89971,334248,429185
1630497988864,89999,334305,429242
1630497988874,89991,334255,429166
1630497988884,89991,334236,429170
1630497988894,90012,334191,429184
1630497988904,90022,334259,429183
1630497988914,90011,334127,429156
1630497988924,89953,334102,429087
1630497988934,89940,334087,429115
1630497988944,89893,333974,429074
1630497988954,89870,334017,429049
1630497988964,89830,333977,429070
1630497988974,89794,333955,429074
1630497988984,89777,333907,429058
1630497988994,89738,333932,429081
1630497989004,89753,333887,429057
1630497989014,89715,333899,429057
1630497989024,89706,333835,429085
1630497989034,89678,333857,429042
1630497989044,89662,333809,429040
1630497989054,89653,333804,429017
1630497989064,89632,333824,429037
1630497989074,89608,333783,429037
1630497989084,89602,333776,429064
1630497989094,89589,333815,429069
1630497989104,89589,333837,429112
1630497989114,89587,333785,429062
1630497989124,89597,333833,429037
1630497989134,89593,333816,429077
1630497989144,89616,333827,429072
1630497989154,89615,333833,429052
1630497989164,89625,333840,429073
1630497989174,89600,333837,429080
1630497989184,89599,333813,429035
1630497989194,89601,333805,429059
1630497989204,89586,333786,429038
1630497989214,89572,333811,429034
1630497989224,89598,333804,429065
1630497989234,89583,333829,429034
1630497989244,89589,333801,429076
1630497989254,89594,333789,429105
1630497989264,89605,333804,429088
1630497989274,89606,333825,429042
1630497989284,89641,333846,429114
1630497989294,89645,333815,429058
1630497989304,89647,333812,429114
1630497989314,89681,333889,429108
1630497989324,89703,333863,429087
1630497989334,89677,333902,429115
1630497989344,89705,333893,429104
1630497989354,89737,333916,429147
1630497989364,89750,333918,429187
1630497989374,89735,333970,429192
1630497989384,89766,333976,429194
1630497989394,89785,333951,429195
1630497989404,89800,333974,429164
1630497989414,89827,334001,429155
1630497989424,89859,333985,429180
1630497989434,89884,333990,429216
1630497989444,89880,334048,429157
1630497989454,89894,334048,429208
1630497989464,89920,334044,429165
1630497989474,89937,334131,429151
1630497989484,89961,334120,429187
1630497989494,89960,334059,429200
1630497989504,89967,334033,429175
1630497989514,89950,333951,429127
1630497989524,89938,333956,429155
1630497989534,89905,333889,429133
1630497989544,89880,333825,429083
1630497989554,89839,333807,429039
1630497989564,89807,333815,429069
1630497989574,89794,333794,429054
1630497989584,89765,333756,429042
1630497989594,89747,333715,429050
1630497989604,89724,333701,428995
1630497989614,89715,333695,429032
1630497989624,89709,333689,429023
1630497989634,89691,333678,429049
1630497989644,89695,333680,428996
1630497989654,89695,333699,429055
1630497989664,89675,333695,428989
1630497989674,89673,333686,429052
1630497989684,89662,333696,429020
1630497989694,89657,333675,429065
1630497989704,89665,333683,429055
1630497989714,89662,333683,429059
1630497989724,89692,333635,429077
1630497989734,89676,333656,429046
1630497989744,89675,333676,429037
1630497989754,89677,333737,429058
1630497989764,89687,333668,429061
1630497989774,89678,333682,429087
1630497989784,89709,333664,429035
1630497989794,89697,333674,429041
1630497989804,89688,333700,429038
1630497989814,89715,333713,429110
1630497989824,89717,333660,429070
1630497989834,89719,333683,429076
1630497989844,89734,333728,429076
1630497989854,89757,333723,429092
1630497989864,89761,333718,429088
1630497989874,89781,333723,429118
1630497989884,89770,333742,429099
1630497989894,89783,333761,429125
1630497989904,89795,333774,429091
1630497989914,89809,333754,429108
1630497989924,89813,333764,429121
1630497989934,89833,333779,429123
1630497989944,89851,333824,429118
1630497989954,89876,333815,429142
1630497989964,89897,333823,429123
1630497989974,89914,333871,429177
1630497989984,89923,333859,429139
1630497989994,89952,333851,429164
1630497990004,89964,333881,429218
1630497990014,89997,333873,429206
1630497990024,89997,333951,429185
1630497990034,90026,333970,429181
1630497990044,90011,333973,429217
1630497990054,90052,333978,429196
1630497990064,90075,333996,429233
1630497990074,90088,333939,429208
1630497990084,90108,333997,429179
1630497990094,90112,333967,429225
1630497990104,90106,333914,429191
1630497990114,90097,333833,429169
1630497990124,90097,333781,429131
1630497990134,90054,333846,429138
1630497990144,90035,333714,429122
1630497990154,90003,333774,429118
1630497990164,89983,333727,429074
1630497990174,89958,333729,429088
1630497990184,89938,333704,429067
1630497990194,89946,333689,429100
1630497990204,89902,333690,429074
1630497990214,89891,333655,429040
1630497990224,89890,333654,429111
1630497990234,89891,333631,429017
1630497990244,89879,333623,429048
1630497990254,89872,333634,429101
1630497990264,89857,333619,429031
1630497990274,89875,333596,429100
1630497990284,89870,333657,429109
1630497990294,89883,333614,429106
1630497990304,89893,333649,429086
1630497990314,89898,333627,429121
1630497990324,89892,333675,429062
1630497990334,89907,333666,429092
1630497990344,89906,333665,429110
1630497990354,89921,333631,429094
1630497990364,89926,333623,429076
1630497990374,89927,333645,429093
1630497990384,89929,333656,429085
1630497990394,89944,333699,429095
1630497990404,89950,333670,429110
1630497990414,89926,333671,429090
1630497990424,89953,333702,429106
1630497990434,89950,333699,429107
1630497990444,89987,333682,429153
1630497990454,89982,333681,429100
1630497990464,89985,333722,429130
1630497990474,90009,333737,429199
1630497990484,90014,333779,429199
1630497990494,90029,333749,429150
1630497990504,90063,333750,429175
1630497990514,90080,333785,429129
1630497990524,90099,333783,429195
1630497990534,90097,333834,429209
1630497990544,90119,333814,429228
1630497990554,90133,333829,429232
1630497990564,90162,333849,429189
1630497990574,90176,333873,429185
1630497990584,90190,333909,429238
1630497990594,90213,333943,429217
1630497990604,90258,333909,429217
1630497990614,90251,333994,429250
1630497990624,90288,333994,429283
1630497990634,90325,333955,429292
1630497990644,90338,334004,429268
1630497990654,90351,334024,429249
1630497990664,90383,334012,429283
1630497990674,90383,334001,429303
1630497990684,90380,334000,429283
1630497990694,90386,333967,429277
1630497990704,90379,333937,429221
1630497990714,90365,333877,429203
1630497990724,90341,333839,429159
1630497990734,90324,333754,429155
1630497990744,90299,333759,429143
1630497990754,90278,333766,429090
1630497990764,90245,333758,429081
1630497990774,90249,333724,429103
1630497990784,90225,333666,429089
1630497990794,90215,333635,429116
1630497990804,90184,333648,429096
1630497990814,90170,333623,429071
1630497990824,90162,333623,429044
1630497990834,90133,333616,429094
1630497990844,90119,333628,429045
1630497990854,90111,333585,429060
1630497990864,90122,333618,429100
1630497990874,90124,333569,429079
1630497990884,90101,333580,429077
1630497990894,90095,333588,429127
1630497990904,90103,333552,429055
1630497990914,90098,333600,429063
1630497990924,90113,333601,429061
1630497990934,90106,333618,429100
1630497990944,90108,333582,429102
1630497990954,90110,333607,429095
1630497990964,90124,333581,429145
1630497990974,90121,333645,429099
1630497990984,90127,333572,429115
1630497990994,90132,333559,429117
1630497991004,90125,333601,429100
1630497991014,90138,333567,429102
1630497991024,90155,333636,429120
1630497991034,90159,333641,429116
1630497991044,90150,333684,429145
1630497991054,90155,333707,429130
1630497991064,90168,333671,429165
1630497991074,90177,333689,429165
1630497991084,90224,333666,429216
1630497991094,90220,333716,429194
1630497991104,90245,333718,429201
1630497991114,90227,333744,429242
1630497991124,90267,333716,429190
1630497991134,90287,333750,429238
1630497991144,90331,333803,429228
1630497991154,90325,333800,429284
1630497991164,90349,333826,429223
1630497991174,90355,333836,429229
1630497991184,90368,333846,429296
1630497991194,90393,333870,429291
1630497991204,90396,333839,429281
1630497991214,90415,333892,429287
1630497991224,90444,333889,429287
1630497991234,90458,333948,429287
1630497991244,90482,333978,429332
1630497991254,90525,334012,429273
1630497991264,90545,333959,429368
1630497991274,90575,334002,429301
1630497991284,90593,334012,429355
1630497991294,90596,333979,429329
1630497991304,90599,333957,429299
1630497991314,90587,333910,429314
1630497991324,90570,333884,429265
1630497991334,90555,333850,429254
1630497991344,90532,333807,429241
1630497991354,90503,333779,429258
1630497991364,90484,333777,429238
1630497991374,90457,333750,429216
1630497991384,90425,333730,429211
1630497991394,90398,333743,429206
1630497991404,90391,333671,429166
1630497991414,90390,333707,429187
1630497991424,90376,333626,429224
1630497991434,90371,333656,429194
1630497991444,90342,333646,429184
1630497991454,90328,333705,429149
1630497991464,90320,333659,429170
1630497991474,90316,333645,429197
1630497991484,90301,333620,429175
1630497991494,90288,333675,429159
1630497991504,90297,333625,429134
1630497991514,90283,333675,429199
1630497991524,90300,333689,429241
1630497991534,90315,333652,429174
1630497991544,90313,333670,429253
1630497991554,90306,333666,429185
1630497991564,90316,333662,429205
1630497991574,90311,333659,429233
1630497991584,90327,333690,429203
1630497991594,90325,333708,429164
1630497991604,90322,333646,429240
1630497991614,90344,333691,429211
1630497991624,90333,333679,429204
1630497991634,90356,333696,429205
1630497991644,90348,333670,429267
1630497991654,90360,333700,429262
1630497991664,90362,333699,429204
1630497991674,90369,333684,429271
1630497991684,90381,333735,429289
1630497991694,90402,333749,429242
1630497991704,90412,333754,429262
1630497991714,90439,333765,429277
1630497991724,90439,333802,429284
1630497991734,90458,333780,429254
1630497991744,90473,333828,429314
1630497991754,90487,333895,429332
1630497991764,90492,333866,429328
1630497991774,90524,333869,429355
1630497991784,90554,333863,429329
1630497991794,90560,333957,429362
1630497991804,90584,333963,429332
1630497991814,90606,333923,429366
1630497991824,90627,333944,429355
1630497991834,90653,333989,429370
1630497991844,90673,334012,429369
1630497991854,90696,334055,429370
1630497991864,90707,334015,429425
1630497991874,90730,334067,429389
1630497991884,90754,334066,429403
1630497991894,90790,334099,429402
1630497991904,90800,334158,429457
1630497991914,90830,334128,429441
1630497991924,90826,334086,429443
1630497991934,90847,334101,429423
1630497991944,90838,334053,429404
1630497991954,90818,334034,429359
1630497991964,90810,333992,429312
1630497991974,90792,333954,429334
1630497991984,90767,333906,429335
1630497991994,90760,333927,429320
1630497992004,90741,333899,429321
1630497992014,90724,333876,429318
1630497992024,90705,333892,429336
1630497992034,90683,333849,429340
1630497992044,90678,333863,429280
1630497992054,90659,333870,429329
1630497992064,90657,333879,429306
1630497992074,90648,333877,429303
1630497992084,90644,333818,429306
1630497992094,90627,333843,429267
1630497992104,90630,333834,429300
1630497992114,90627,333817,429280
1630497992124,90626,333803,429316
1630497992134,90607,333831,429374
1630497992144,90619,333856,429296
1630497992154,90625,333869,429306
1630497992164,90632,333879,429344
1630497992174,90640,333842,429317
1630497992184,90644,333901,429292
1630497992194,90642,333858,429349
1630497992204,90652,333871,429329
1630497992214,90642,333869,429370
1630497992224,90661,333922,429338
1630497992234,90645,333906,429338
1630497992244,90676,333933,429386
1630497992254,90677,333909,429392
1630497992264,90681,333907,429358
1630497992274,90688,333917,429398
1630497992284,90695,333986,429392
1630497992294,90711,333962,429385
1630497992304,90727,333972,429397
1630497992314,90724,333987,429398
1630497992324,90739,333972,429396
1630497992334,90767,334006,429456
1630497992344,90785,333994,429434
1630497992354,90787,334041,429475
1630497992364,90789,334029,429468
1630497992374,90818,334092,429496
1630497992384,90834,334080,429483
1630497992394,90854,334082,429473
1630497992404,90873,334127,429505
1630497992414,90883,334162,429500
1630497992424,90914,334144,429522
1630497992434,90928,334191,429543
1630497992444,90943,334172,429558
1630497992454,90965,334216,429527
1630497992464,90981,334216,429579
1630497992474,90998,334236,429563
1630497992484,91017,334277,429563
1630497992494,91044,334275,429583
1630497992504,91060,334311,429636
1630497992514,91083,334335,429607
1630497992524,91111,334356,429582
1630497992534,91131,334346,429587
1630497992544,91137,334408,429618
1630497992554,91168,334363,429622
1630497992564,91183,334371,429639
1630497992574,91195,334368,429605
1630497992584,91225,334348,429586
1630497992594,91188,334332,429590
1630497992604,91202,334285,429556
1630497992614,91180,334285,429557
1630497992624,91168,334230,429532
1630497992634,91140,334213,429513
1630497992644,91130,334146,429512
1630497992654,91105,334165,429493
1630497992664,91095,334192,429480
1630497992674,91074,334156,429497
1630497992684,91055,334127,429462
1630497992694,91047,334143,429434
1630497992704,91035,334163,429470
1630497992714,91033,334177,429487
1630497992724,91024,334103,429451
1630497992734,91004,334110,429435
1630497992744,91000,334102,429421
1630497992754,90998,334085,429472
1630497992764,90997,334165,429443
1630497992774,91000,334108,429449
1630497992784,90981,334112,429454
1630497992794,91004,334151,429473
1630497992804,91002,334157,429452
1630497992814,90991,334136,429462
1630497992824,91004,334150,429466
1630497992834,91013,334183,429495
1630497992844,91024,334126,429449
1630497992854,91002,334177,429450
1630497992864,91019,334157,429442
1630497992874,91032,334142,429481
1630497992884,91022,334149,429464
1630497992894,91035,334144,429471
1630497992904,91049,334215,429471
1630497992914,91043,334179,429477
1630497992924,91065,334155,429465
1630497992934,91070,334202,429462
1630497992944,91089,334210,429483
1630497992954,91096,334224,429455
1630497992964,91101,334264,429455
1630497992974,91121,334282,429478
1630497992984,91132,334253,429419
1630497992994,91143,334280,429497
1630497993004,91163,334287,429471
1630497993014,91177,334275,429490
1630497993024,91179,334317,429435
1630497993034,91213,334316,429454
1630497993044,91220,334350,429503
1630497993054,91246,334326,429453
1630497993064,91252,334360,429451
1630497993074,91276,334445,429527
1630497993084,91292,334393,429509
1630497993094,91308,334443,429485
1630497993104,91310,334425,429492
1630497993114,91338,334489,429501
1630497993124,91358,334473,429477
1630497993134,91382,334491,429469
1630497993144,91381,334482,429531
1630497993154,91419,334513,429509
1630497993164,91428,334540,429518
1630497993174,91427,334594,429525
1630497993184,91445,334598,429554
1630497993194,91473,334596,429549
1630497993204,91479,334550,429500
1630497993214,91485,334546,429487
1630497993224,91443,334520,429467
1630497993234,91460,334462,429415
1630497993244,91421,334470,429423
1630497993254,91407,334444,429420
1630497993264,91388,334362,429445
1630497993274,91358,334380,429443
1630497993284,91343,334342,429383
1630497993294,91314,334321,429400
1630497993304,91280,334261,429373
1630497993314,91262,334251,429343
1630497993324,91233,334279,429364
1630497993334,91222,334265,429312
1630497993344,91207,334265,429292
1630497993354,91197,334284,429313
1630497993364,91168,334276,429319
1630497993374,91190,334227,429268
1630497993384,91151,334200,429316
1630497993394,91168,334253,429294
1630497993404,91161,334233,429290
1630497993414,91147,334228,429312
1630497993424,91139,334241,429318
1630497993434,91134,334237,429314
1630497993444,91140,334267,429308
1630497993454,91121,334265,429285
1630497993464,91120,334281,429288
1630497993474,91125,334237,429329
1630497993484,91126,334252,429311
1630497993494,91125,334217,429277
1630497993504,91123,334287,429310
1630497993514,91142,334266,429314
1630497993524,91136,334227,429322
1630497993534,91151,334268,429314
1630497993544,91130,334269,429281
1630497993554,91139,334272,429267
1630497993564,91149,334292,429292
1630497993574,91173,334328,429345
1630497993584,91167,334314,429335
1630497993594,91145,334337,429322
1630497993604,91185,334355,429333
1630497993614,91174,334352,429295
1630497993624,91184,334332,429306
1630497993634,91197,334381,429309
1630497993644,91215,334390,429309
1630497993654,91220,334395,429285
1630497993664,91229,334407,429299
1630497993674,91236,334436,429336
1630497993684,91290,334439,429320
1630497993694,91287,334501,429314
1630497993704,91294,334487,429349
1630497993714,91320,334526,429342
1630497993724,91344,334501,429344
1630497993734,91323,334548,429430
1630497993744,91374,334551,429355
1630497993754,91381,334586,429368
1630497993764,91384,334545,429432
1630497993774,91421,334592,429393
1630497993784,91421,334619,429365
1630497993794,91437,334653,429422
1630497993804,91443,334632,429414
1630497993814,91464,334682,429391
1630497993824,91475,334651,429421
1630497993834,91502,334649,429408
1630497993844,91468,334621,429357
1630497993854,91501,334587,429341
1630497993864,91466,334494,429358
1630497993874,91426,334552,429329
1630497993884,91415,334471,429252
1630497993894,91390,334459,429317
1630497993904,91365,334388,429271
1630497993914,91330,334430,429231
1630497993924,91301,334380,429208
1630497993934,91285,334345,429185
1630497993944,91260,334322,429226
1630497993954,91231,334337,429224
1630497993964,91208,334312,429247
1630497993974,91200,334355,429163
1630497993984,91191,334273,429223
1630497993994,91168,334341,429198
1630497994004,91154,334277,429176
1630497994014,91143,334279,429173
1630497994024,91152,334315,429205
1630497994034,91125,334270,429217
1630497994044,91126,334282,429185
1630497994054,91131,334329,429207
1630497994064,91127,334306,429190
1630497994074,91112,334292,429174
1630497994084,91108,334297,429208
1630497994094,91125,334285,429194
1630497994104,91128,334306,429193
1630497994114,91105,334322,429182
1630497994124,91103,334300,429221
1630497994134,91108,334320,429210
1630497994144,91108,334327,429232
1630497994154,91103,334302,429187
1630497994164,91105,334345,429201
1630497994174,91107,334292,429197
1630497994184,91135,334309,429240
1630497994194,91135,334391,429167
1630497994204,91144,334389,429159
1630497994214,91149,334346,429196
1630497994224,91155,334387,429242
1630497994234,91160,334397,429151
1630497994244,91187,334391,429227
1630497994254,91168,334373,429239
1630497994264,91178,334403,429173
1630497994274,91205,334446,429231
1630497994284,91224,334432,429219
1630497994294,91213,334439,429231
1630497994304,91228,334478,429253
1630497994314,91238,334515,429242
1630497994324,91282,334546,429258
1630497994334,91290,334533,429256
1630497994344,91301,334568,429267
1630497994354,91303,334570,429273
1630497994364,91340,334549,429283
1630497994374,91345,334585,429275
1630497994384,91356,334627,429313
1630497994394,91383,334671,429285
1630497994404,91381,334690,429341
1630497994414,91409,334652,429308
1630497994424,91410,334713,429314
1630497994434,91439,334720,429281
1630497994444,91466,334683,429314
1630497994454,91481,334685,429322
1630497994464,91481,334683,429245
1630497994474,91464,334656,429271
1630497994484,91455,334564,429256
1630497994494,91430,334558,429273
1630497994504,91404,334539,429223
1630497994514,91372,334495,429224
1630497994524,91358,334461,429185
1630497994534,91332,334484,429168
1630497994544,91295,334417,429138
1630497994554,91276,334442,429165
1630497994564,91266,334368,429138
1630497994574,91257,334431,429141
1630497994584,91231,334410,429166
1630497994594,91199,334399,429118
1630497994604,91178,334345,429125
1630497994614,91186,334381,429118
1630497994624,91201,334368,429091
1630497994634,91184,334395,429154
1630497994644,91169,334330,429150
1630497994654,91171,334422,429150
1630497994664,91161,334391,429181
1630497994674,91188,334413,429098
1630497994684,91149,334356,429121
1630497994694,91179,334399,429145
1630497994704,91163,334425,429149
1630497994714,91178,334403,429187
1630497994724,91158,334439,429153
1630497994734,91171,334442,429160
1630497994744,91160,334412,429120
1630497994754,91147,334430,429129
1630497994764,91149,334399,429116
1630497994774,91167,334428,429137
1630497994784,91170,334428,429136
1630497994794,91161,334419,429191
1630497994804,91158,334400,429143
1630497994814,91185,334504,429183
1630497994824,91166,334455,429101
1630497994834,91194,334445,429163
1630497994844,91190,334481,429145
1630497994854,91217,334446,429144
1630497994864,91202,334483,429162
1630497994874,91217,334489,429176
1630497994884,91224,334512,429143
1630497994894,91252,334512,429174
1630497994904,91252,334495,429180
1630497994914,91297,334557,429196
1630497994924,91264,334570,429163
1630497994934,91288,334554,429214
1630497994944,91293,334593,429226
1630497994954,91305,334649,429207
1630497994964,91330,334609,429183
1630497994974,91325,334656,429252
1630497994984,91359,334656,429153
1630497994994,91382,334661,429266
1630497995004,91413,334699,429173
1630497995014,91411,334756,429213
1630497995024,91433,334695,429210
1630497995034,91451,334694,429221
1630497995044,91463,334736,429220
1630497995054,91461,334723,429201
1630497995064,91465,334707,429183
1630497995074,91450,334669,429159
1630497995084,91434,334645,429119
1630497995094,91406,334595,429162
1630497995104,91376,334566,429149
1630497995114,91352,334497,429132
1630497995124,91325,334507,429090
1630497995134,91298,334479,429086
1630497995144,91279,334450,429084
1630497995154,91252,334421,429047
1630497995164,91244,334439,429068
1630497995174,91219,334455,429082
1630497995184,91206,334395,429037
1630497995194,91185,334367,429096
1630497995204,91152,334378,429079
1630497995214,91161,334368,429091
1630497995224,91141,334419,429096
1630497995234,91122,334448,429056
1630497995244,91131,334416,429071
1630497995254,91115,334443,429088
1630497995264,91125,334444,429086
1630497995274,91139,334443,429092
1630497995284,91117,334454,429064
1630497995294,91141,334445,429082
1630497995304,91128,334421,429078
1630497995314,91129,334446,429025
1630497995324,91134,334411,429037
1630497995334,91110,334398,429058
1630497995344,91119,334416,429023
1630497995354,91115,334391,429029
1630497995364,91112,334407,429057
1630497995374,91109,334427,429123
1630497995384,91103,334393,429097
1630497995394,91120,334403,429077
1630497995404,91113,334442,429076
1630497995414,91100,334431,429055
1630497995424,91108,334432,429058
1630497995434,91132,334451,429108
1630497995444,91119,334447,429079
1630497995454,91145,334454,429069
1630497995464,91154,334507,429047
1630497995474,91165,334468,429076
1630497995484,91184,334505,429069
1630497995494,91187,334514,429033
1630497995504,91198,334477,429074
1630497995514,91217,334491,429103
1630497995524,91230,334540,429134
1630497995534,91241,334567,429114
1630497995544,91241,334542,429114
1630497995554,91251,334570,429124
1630497995564,91271,334561,429105
1630497995574,91274,334633,429090
1630497995584,91292,334637,429127
1630497995594,91306,334663,429141
1630497995604,91330,334700,429127
1630497995614,91342,334658,429141
1630497995624,91377,334680,429134
1630497995634,91397,334674,429141
1630497995644,91387,334663,429079
1630497995654,91348,334626,429073
1630497995664,91349,334559,429031
1630497995674,91307,334492,429016
1630497995684,91279,334467,428960
1630497995694,91228,334403,428996
1630497995704,91227,334417,428959
1630497995714,91170,334382,428978
1630497995724,91127,334364,428938
1630497995734,91108,334296,428874
1630497995744,91071,334325,428915
1630497995754,91063,334338,428906
1630497995764,91035,334269,428932
1630497995774,91022,334259,428862
1630497995784,90970,334289,428873
1630497995794,90977,334238,428857
1630497995804,90942,334258,428910
1630497995814,90948,334232,428877
1630497995824,90939,334227,428932
1630497995834,90918,334222,428877
1630497995844,90906,334216,428865
1630497995854,90913,334213,428873
1630497995864,90892,334262,428928
1630497995874,90883,334274,428904
1630497995884,90858,334213,428887
1630497995894,90863,334215,428886
1630497995904,90865,334241,428930
1630497995914,90856,334184,428869
1630497995924,90855,334270,428901
1630497995934,90857,334212,428904
1630497995944,90866,334205,428930
1630497995954,90850,334238,428913
1630497995964,90864,334211,428884
1630497995974,90870,334248,428927
1630497995984,90869,334237,428933
1630497995994,90856,334224,428913
1630497996004,90867,334231,428898
1630497996014,90867,334253,428951
1630497996024,90873,334261,428963
1630497996034,90869,334258,428977
1630497996044,90868,334316,428935
1630497996054,90886,334308,428992
1630497996064,90889,334297,428988
1630497996074,90905,334369,428975
1630497996084,90919,334321,428980
1630497996094,90910,334352,429024
1630497996104,90940,334357,429004
1630497996114,90951,334338,429024
1630497996124,90981,334385,429013
1630497996134,90987,334415,429038
1630497996144,91006,334437,429017
1630497996154,91019,334420,429006
1630497996164,91023,334400,429031
1630497996174,91041,334442,429019
1630497996184,91045,334504,429050
1630497996194,91074,334514,429020
1630497996204,91077,334494,429069
1630497996214,91085,334463,429067
1630497996224,91118,334458,429028
1630497996234,91078,334382,428992
1630497996244,91055,334348,428984
1630497996254,91026,334368,428985
1630497996264,90984,334278,428986
1630497996274,90960,334228,428937
1630497996284,90932,334235,428880
1630497996294,90881,334193,428899
1630497996304,90854,334159,428911
1630497996314,90826,334142,428885
1630497996324,90801,334150,428852
1630497996334,90783,334113,428859
1630497996344,90736,334097,428828
1630497996354,90702,334048,428847
1630497996364,90668,334106,428840
1630497996374,90657,334086,428844
1630497996384,90625,334057,428838
1630497996394,90603,334045,428864
1630497996404,90584,334018,428903
1630497996414,90584,333998,428847
1630497996424,90590,334004,428821
1630497996434,90585,334042,428775
1630497996444,90579,334062,428884
1630497996454,90575,334014,428883
1630497996464,90581,334024,428878
1630497996474,90562,334042,428880
1630497996484,90551,334042,428835
1630497996494,90573,334060,428894
1630497996504,90550,334037,428869
1630497996514,90561,334021,428892
1630497996524,90540,334053,428871
1630497996534,90531,333980,428917
1630497996544,90522,334052,428908
1630497996554,90522,334083,428897
1630497996564,90525,334049,428910
1630497996574,90530,334061,428918
1630497996584,90537,334063,428868
1630497996594,90553,334067,428890
1630497996604,90562,334041,428897
1630497996614,90569,334131,428949
1630497996624,90571,334076,428881
1630497996634,90581,334069,428911
1630497996644,90594,334105,429005
1630497996654,90601,334140,428933
1630497996664,90599,334122,428973
1630497996674,90634,334148,428989
1630497996684,90621,334175,428959
1630497996694,90639,334184,428985
1630497996704,90650,334190,428994
1630497996714,90685,334194,428995
1630497996724,90713,334264,429038
1630497996734,90729,334262,429008
1630497996744,90727,334258,428967
1630497996754,90750,334265,429017
1630497996764,90758,334336,429018
1630497996774,90776,334335,429064
1630497996784,90799,334339,429029
1630497996794,90804,334337,429031
1630497996804,90827,334342,429025
1630497996814,90826,334283,429020
1630497996824,90799,334298,428985
1630497996834,90805,334245,428946
1630497996844,90751,334191,428987
1630497996854,90719,334187,428947
1630497996864,90706,334107,428910
1630497996874,90652,334102,428920
1630497996884,90647,334054,428953
1630497996894,90596,334015,428883
1630497996904,90579,334054,428871
1630497996914,90573,334055,428842
1630497996924,90539,334043,428891
1630497996934,90519,334001,428888
1630497996944,90499,334011,428937
1630497996954,90491,333991,428868
1630497996964,90458,333951,428907
1630497996974,90447,333975,428874
1630497996984,90452,333990,428926
1630497996994,90422,334013,428922
1630497997004,90418,333995,428963
1630497997014,90422,333965,428892
1630497997024,90406,333982,428882
1630497997034,90409,333964,428932
1630497997044,90389,333970,428912
1630497997054,90397,333970,428912
1630497997064,90404,334009,428963
1630497997074,90416,334016,428941
1630497997084,90413,333983,428934
1630497997094,90376,333990,428925
1630497997104,90400,333973,428960
1630497997114,90397,334036,428891
1630497997124,90397,333965,428963
1630497997134,90397,334034,428961
1630497997144,90419,334011,428968
1630497997154,90421,334019,428935
1630497997164,90392,334042,428958
1630497997174,90406,334001,429044
1630497997184,90421,334064,429031
1630497997194,90421,334075,429030
1630497997204,90428,334052,429003
1630497997214,90433,334049,429023
1630497997224,90446,334083,429029
1630497997234,90463,334105,429074
1630497997244,90461,334089,429021
1630497997254,90505,334148,429115
1630497997264,90523,334113,429044
1630497997274,90525,334178,429057
1630497997284,90546,334161,429065
1630497997294,90561,334181,429071
1630497997304,90548,334165,429072
1630497997314,90575,334214,429095
1630497997324,90576,334248,429103
1630497997334,90590,334215,429170
1630497997344,90611,334271,429122
1630497997354,90633,334290,429117
1630497997364,90649,334305,429143
1630497997374,90659,334316,429138
1630497997384,90691,334337,429151
1630497997394,90713,334344,429141
1630497997404,90729,334341,429155
1630497997414,90735,334374,429149
1630497997424,90704,334298,429148
1630497997434,90708,334287,429171
1630497997444,90681,334240,429169
1630497997454,90663,334251,429098
1630497997464,90628,334224,429097
1630497997474,90593,334156,429141
1630497997484,90582,334154,429107
1630497997494,90535,334117,429068
1630497997504,90513,334134,429079
1630497997514,90493,334083,429033
1630497997524,90472,334071,429076
1630497997534,90439,334065,429070
1630497997544,90418,334056,429032
1630497997554,90389,334039,429068
1630497997564,90390,334065,429091
1630497997574,90375,334033,429073
1630497997584,90334,334038,429025
1630497997594,90347,334004,429072
1630497997604,90335,334016,429092
1630497997614,90323,334092,429131
1630497997624,90300,334054,429118
1630497997634,90309,334088,429100
1630497997644,90311,334100,429089
1630497997654,90276,334072,429110
1630497997664,90279,334092,429111
1630497997674,90265,334103,429104
1630497997684,90269,334116,429157
1630497997694,90250,334065,429088
1630497997704,90238,334071,429117
1630497997714,90210,334085,429103
1630497997724,90245,334101,429083
1630497997734,90202,334077,429115
1630497997744,90191,334122,429128
1630497997754,90212,334089,429135
1630497997764,90198,334127,429131
1630497997774,90176,334129,429179
1630497997784,90171,334160,429141
1630497997794,90148,334163,429129
1630497997804,90155,334159,429156
1630497997814,90149,334170,429119
1630497997824,90133,334191,429149
1630497997834,90136,334166,429147
1630497997844,90138,334193,429225
1630497997854,90127,334225,429197
1630497997864,90129,334212,429212
1630497997874,90132,334208,429166
1630497997884,90139,334268,429160
1630497997894,90122,334263,429174
1630497997904,90132,334306,429213
1630497997914,90141,334314,429255
1630497997924,90135,334311,429200
1630497997934,90133,334316,429233
1630497997944,90144,334355,429177
1630497997954,90158,334363,429212
1630497997964,90147,334398,429240
1630497997974,90147,334455,429254
1630497997984,90138,334436,429231
1630497997994,90132,334404,429256
1630497998004,90134,334432,429242
1630497998014,90130,334442,429232
1630497998024,90094,334464,429220
1630497998034,90041,334400,429199
1630497998044,90016,334396,429247
1630497998054,89966,334372,429245
1630497998064,89904,334382,429210
1630497998074,89879,334324,429226
1630497998084,89839,334351,429200
1630497998094,89796,334307,429222
1630497998104,89762,334305,429181
1630497998114,89732,334284,429197
1630497998124,89719,334290,429182
1630497998134,89690,334304,429166
1630497998144,89646,334269,429188
1630497998154,89631,334281,429144
1630497998164,89611,334247,429160
1630497998174,89600,334269,429197
1630497998184,89593,334280,429240
1630497998194,89596,334268,429188
1630497998204,89592,334202,429207
1630497998214,89597,334299,429188
1630497998224,89587,334288,429223
1630497998234,89596,334293,429173
1630497998244,89606,334277,429180
1630497998254,89610,334308,429209
1630497998264,89617,334283,429169
1630497998274,89621,334315,429234
1630497998284,89631,334329,429247
1630497998294,89626,334318,429195
1630497998304,89630,334332,429199
1630497998314,89633,334360,429248
1630497998324,89638,334339,429241
1630497998334,89650,334371,429240
1630497998344,89662,334350,429255
1630497998354,89654,334371,429263
1630497998364,89684,334391,429257
1630497998374,89697,334346,429262
1630497998384,89715,334398,429224
1630497998394,89730,334377,429267
1630497998404,89730,334421,429241
1630497998414,89759,334421,429264
1630497998424,89777,334477,429253
1630497998434,89782,334443,429286
1630497998444,89787,334476,429286
1630497998454,89824,334500,429319
1630497998464,89843,334526,429365
1630497998474,89868,334539,429358
1630497998484,89891,334582,429358
1630497998494,89905,334578,429370
1630497998504,89935,334589,429356
1630497998514,89957,334611,429386
1630497998524,89986,334612,429406
1630497998534,90006,334646,429418
1630497998544,90010,334683,429411
1630497998554,90040,334696,429427
1630497998564,90073,334734,429432
1630497998574,90063,334691,429462
1630497998584,90089,334769,429422
1630497998594,90102,334751,429434
1630497998604,90129,334712,429415
1630497998614,90137,334725,429426
1630497998624,90136,334666,429437
1630497998634,90130,334683,429440
1630497998644,90099,334656,429434
1630497998654,90074,334620,429430
1630497998664,90051,334644,429363
1630497998674,90042,334599,429388
1630497998684,90033,334543,429410
1630497998694,90023,334523,429350
1630497998704,90009,334498,429380
1630497998714,89990,334466,429367
1630497998724,89936,334506,429369
1630497998734,89936,334455,429362
1630497998744,89928,334458,429297
1630497998754,89929,334446,429337
1630497998764,89913,334450,429315
1630497998774,89904,334384,429318
1630497998784,89896,334452,429362
1630497998794,89857,334413,429336
1630497998804,89870,334394,429308
1630497998814,89867,334395,429378
1630497998824,89854,334437,429313
1630497998834,89858,334458,429312
1630497998844,89872,334409,429328
1630497998854,89898,334410,429346
1630497998864,89903,334434,429310
1630497998874,89899,334405,429324
1630497998884,89902,334450,429371
1630497998894,89911,334418,429342
1630497998904,89913,334409,429314
1630497998914,89921,334427,429347
1630497998924,89903,334414,429308
1630497998934,89928,334415,429337
1630497998944,89937,334449,429371
1630497998954,89944,334435,429382
1630497998964,89952,334488,429426
1630497998974,89967,334472,429369
1630497998984,89976,334466,429353
1630497998994,89994,334477,429380
1630497999004,90033,334453,429408
1630497999014,90041,334510,429373
1630497999024,90060,334510,429406
1630497999034,90068,334519,429383
1630497999044,90091,334531,429367
1630497999054,90085,334534,429392
1630497999064,90121,334606,429397
1630497999074,90158,334554,429425
1630497999084,90166,334594,429400
1630497999094,90190,334656,429428
1630497999104,90208,334612,429397
1630497999114,90213,334622,429427
1630497999124,90241,334648,429412
1630497999134,90268,334636,429423
1630497999144,90292,334699,429428
1630497999154,90312,334706,429442
1630497999164,90336,334712,429434
1630497999174,90388,334697,429467
1630497999184,90410,334717,429492
1630497999194,90432,334777,429477
1630497999204,90456,334754,429459
1630497999214,90443,334708,429417
1630497999224,90415,334698,429425
1630497999234,90428,334618,429409
1630497999244,90411,334638,429332
1630497999254,90371,334567,429365
1630497999264,90365,334521,429388
1630497999274,90337,334510,429345
1630497999284,90322,334474,429306
1630497999294,90293,334439,429305
1630497999304,90266,334431,429288
1630497999314,90251,334418,429263
1630497999324,90230,334393,429266
1630497999334,90239,334359,429259
1630497999344,90208,334362,429302
1630497999354,90215,334379,429279
1630497999364,90180,334346,429261
1630497999374,90169,334347,429208
1630497999384,90161,334319,429234
1630497999394,90144,334319,429224
1630497999404,90121,334285,429203
1630497999414,90128,334272,429216
1630497999424,90138,334253,429225
1630497999434,90126,334279,429225
1630497999444,90123,334287,429235
1630497999454,90129,334301,429229
1630497999464,90124,334250,429214
1630497999474,90119,334301,429193
1630497999484,90120,334288,429191
1630497999494,90122,334252,429217
1630497999504,90120,334291,429222
1630497999514,90127,334262,429246
1630497999524,90134,334284,429227
1630497999534,90123,334322,429236
1630497999544,90131,334306,429244
1630497999554,90133,334292,429249
1630497999564,90143,334341,429240
1630497999574,90130,334345,429234
1630497999584,90144,334272,429235
1630497999594,90139,334299,429221
1630497999604,90156,334332,429236
1630497999614,90159,334338,429214
1630497999624,90183,334328,429255
1630497999634,90198,334371,429309
1630497999644,90197,334431,429308
1630497999654,90212,334429,429254
1630497999664,90241,334476,429236
1630497999674,90251,334468,429230
1630497999684,90271,334470,429265
1630497999694,90272,334476,429334
1630497999704,90295,334475,429338
1630497999714,90295,334500,429317
1630497999724,90343,334537,429298
1630497999734,90383,334544,429332
1630497999744,90372,334544,429348
1630497999754,90365,334572,429350
1630497999764,90401,334590,429363
1630497999774,90436,334613,429309
1630497999784,90439,334649,429380
1630497999794,90448,334619,429390
1630497999804,90480,334703,429416
1630497999814,90495,334672,429408
1630497999824,90522,334712,429390
1630497999834,90548,334710,429394
1630497999844,90554,334730,429379
1630497999854,90541,334678,429346
1630497999864,90529,334605,429343
1630497999874,90509,334535,429313
1630497999884,90490,334537,429314
1630497999894,90433,334507,429298
1630497999904,90428,334473,429270
1630497999914,90412,334473,429327
1630497999924,90359,334472,429289
1630497999934,90348,334444,429269
1630497999944,90321,334431,429234
1630497999954,90295,334347,429232
1630497999964,90264,334371,429236
1630497999974,90260,334369,429219
1630497999984,90223,334363,429227
1630497999994,90243,334362,429225
1630498000004,90208,334324,429215
1630498000014,90194,334364,429185
1630498000024,90181,334332,429212
1630498000034,90181,334287,429214
1630498000044,90152,334365,429203
1630498000054,90167,334269,429238
1630498000064,90148,334298,429225
1630498000074,90149,334313,429249
1630498000084,90158,334303,429230
1630498000094,90159,334335,429253
1630498000104,90140,334300,429221
1630498000114,90150,334344,429227
1630498000124,90141,334341,429248
1630498000134,90141,334293,429209
1630498000144,90138,334359,429250
1630498000154,90145,334387,429233
1630498000164,90159,334335,429250
1630498000174,90170,334350,429262
1630498000184,90150,334323,429248
1630498000194,90170,334379,429271
1630498000204,90184,334368,429267
1630498000214,90204,334405,429276
1630498000224,90213,334413,429270
1630498000234,90204,334400,429328
1630498000244,90232,334417,429312
1630498000254,90239,334433,429309
1630498000264,90252,334513,429299
1630498000274,90246,334484,429337
1630498000284,90269,334505,429346
1630498000294,90290,334480,429334
1630498000304,90309,334488,429322
1630498000314,90339,334546,429373
1630498000324,90335,334549,429369
1630498000334,90370,334575,429408
1630498000344,90399,334591,429399
1630498000354,90408,334593,429408
1630498000364,90440,334630,429422
1630498000374,90457,334676,429438
1630498000384,90453,334700,429454
1630498000394,90499,334667,429470
1630498000404,90507,334742,429459
1630498000414,90529,334727,429463
1630498000424,90533,334724,429480
1630498000434,90557,334760,429487
1630498000444,90580,334797,429536
1630498000454,90601,334820,429509
1630498000464,90618,334807,429504
1630498000474,90648,334801,429496
1630498000484,90679,334894,429510
1630498000494,90705,334823,429546
1630498000504,90723,334870,429559
1630498000514,90729,334916,429516
1630498000524,90740,334848,429512
1630498000534,90710,334821,429519
1630498000544,90728,334782,429502
1630498000554,90708,334790,429472
1630498000564,90699,334711,429504
1630498000574,90653,334684,429465
1630498000584,90621,334664,429431
1630498000594,90615,334676,429417
1630498000604,90587,334648,429424
1630498000614,90549,334619,429434
1630498000624,90539,334628,429402
1630498000634,90544,334612,429409
1630498000644,90506,334562,429368
1630498000654,90495,334578,429395
1630498000664,90495,334578,429402
1630498000674,90467,334590,429393
1630498000684,90457,334570,429339
1630498000694,90462,334562,429369
1630498000704,90424,334585,429369
1630498000714,90432,334565,429385
1630498000724,90430,334592,429409
1630498000734,90433,334640,429423
1630498000744,90439,334592,429410
1630498000754,90444,334627,429404
1630498000764,90456,334670,429368
1630498000774,90447,334640,429421
1630498000784,90437,334574,429374
1630498000794,90457,334649,429422
1630498000804,90459,334590,429443
1630498000814,90475,334609,429447
1630498000824,90457,334636,429431
1630498000834,90465,334585,429455
1630498000844,90482,334619,429425
1630498000854,90486,334678,429466
1630498000864,90476,334685,429439
1630498000874,90482,334671,429435
1630498000884,90501,334687,429403
1630498000894,90505,334679,429423
1630498000904,90531,334644,429458
1630498000914,90526,334727,429428
1630498000924,90534,334720,429465
1630498000934,90544,334726,429467
1630498000944,90577,334744,429511
1630498000954,90577,334789,429512
1630498000964,90587,334786,429528
1630498000974,90602,334828,429542
1630498000984,90655,334851,429533
1630498000994,90656,334839,429512
1630498001004,90668,334848,429520
1630498001014,90691,334899,429575
1630498001024,90695,334909,429548
1630498001034,90732,334931,429555
1630498001044,90750,334974,429542
1630498001054,90751,334950,429624
1630498001064,90780,334941,429594
1630498001074,90793,334983,429594
1630498001084,90837,335003,429659
1630498001094,90838,335014,429627
1630498001104,90859,335066,429686
1630498001114,90874,335051,429659
1630498001124,90921,335072,429589
1630498001134,90945,335091,429661
1630498001144,90954,335108,429664
1630498001154,90966,335121,429660
1630498001164,91002,335213,429645
1630498001174,91011,335198,429636
1630498001184,91009,335130,429658
1630498001194,91016,335134,429660
1630498001204,91027,335118,429658
1630498001214,91005,335066,429626
1630498001224,90995,335057,429612
1630498001234,90971,335045,429608
1630498001244,90948,335027,429601
1630498001254,90942,334991,429605
1630498001264,90931,335014,429548
1630498001274,90912,335018,429581
1630498001284,90879,335021,429571
1630498001294,90882,334958,429552
1630498001304,90861,334969,429541
1630498001314,90842,334899,429524
1630498001324,90851,334974,429560
1630498001334,90832,334971,429571
1630498001344,90829,334937,429545
1630498001354,90811,334927,429538
1630498001364,90791,334947,429581
1630498001374,90790,334907,429531
1630498001384,90788,334975,429532
1630498001394,90805,334950,429565
1630498001404,90822,334982,429565
1630498001414,90826,335001,429602
1630498001424,90835,334984,429571
1630498001434,90834,334991,429541
1630498001444,90835,335010,429580
1630498001454,90851,335012,429587
1630498001464,90845,335022,429533
1630498001474,90823,335045,429543
1630498001484,90825,335033,429541
1630498001494,90836,335016,429606
1630498001504,90839,335061,429554
1630498001514,90847,335047,429548
1630498001524,90844,335052,429578
1630498001534,90867,335072,429564
1630498001544,90854,335021,429560
1630498001554,90852,335082,429587
1630498001564,90871,335097,429583
1630498001574,90891,335102,429601
1630498001584,90908,335148,429604
1630498001594,90930,335133,429583
1630498001604,90934,335169,429625
1630498001614,90950,335139,429649
1630498001624,90962,335191,429588
1630498001634,90980,335198,429645
1630498001644,91002,335209,429629
1630498001654,90987,335240,429674
1630498001664,91003,335242,429634
1630498001674,91020,335246,429595
1630498001684,91029,335281,429656
1630498001694,91066,335275,429659
1630498001704,91083,335368,429637
1630498001714,91096,335359,429699
1630498001724,91130,335345,429670
1630498001734,91153,335367,429617
1630498001744,91171,335409,429656
1630498001754,91171,335419,429709
1630498001764,91196,335431,429715
1630498001774,91212,335499,429693
1630498001784,91242,335480,429725
1630498001794,91257,335455,429708
1630498001804,91262,335502,429678
1630498001814,91274,335481,429704
1630498001824,91261,335498,429648
1630498001834,91285,335479,429658
1630498001844,91263,335393,429643
1630498001854,91249,335406,429668
1630498001864,91211,335373,429654
1630498001874,91204,335348,429624
1630498001884,91163,335351,429560
1630498001894,91137,335311,429610
1630498001904,91116,335325,429606
1630498001914,91098,335307,429557
1630498001924,91074,335250,429594
1630498001934,91065,335233,429535
1630498001944,91059,335234,429551
1630498001954,91035,335234,429537
1630498001964,91025,335242,429514
1630498001974,91031,335204,429537
1630498001984,91013,335213,429572
1630498001994,91008,335239,429540
1630498002004,90988,335244,429483
1630498002014,90983,335243,429521
1630498002024,90984,335246,429513
1630498002034,90988,335279,429514
1630498002044,91010,335264,429548
1630498002054,90991,335265,429535
1630498002064,90991,335214,429529
1630498002074,90992,335278,429513
1630498002084,90987,335260,429505
1630498002094,90988,335254,429491
1630498002104,90995,335276,429543
1630498002114,90998,335305,429506
1630498002124,90984,335279,429593
1630498002134,91006,335272,429524
1630498002144,91008,335297,429498
1630498002154,91005,335319,429527
1630498002164,91006,335278,429527
1630498002174,91007,335325,429554
1630498002184,91008,335341,429549
1630498002194,91021,335359,429529
1630498002204,91029,335377,429560
1630498002214,91042,335404,429540
1630498002224,91049,335416,429543
1630498002234,91064,335358,429526
1630498002244,91077,335390,429577
1630498002254,91088,335432,429544
1630498002264,91087,335455,429570
1630498002274,91110,335457,429546
1630498002284,91133,335484,429575
1630498002294,91147,335471,429580
1630498002304,91160,335536,429586
1630498002314,91174,335504,429585
1630498002324,91160,335543,429600
1630498002334,91207,335547,429625
1630498002344,91191,335618,429600
1630498002354,91207,335597,429646
1630498002364,91226,335602,429625
1630498002374,91255,335659,429627
1630498002384,91264,335645,429606
1630498002394,91276,335700,429604
1630498002404,91304,335695,429631
1630498002414,91344,335732,429671
1630498002424,91352,335726,429655
1630498002434,91346,335716,429667
1630498002444,91345,335624,429664
1630498002454,91350,335649,429586
1630498002464,91331,335653,429600
1630498002474,91326,335561,429575
1630498002484,91311,335551,429580
1630498002494,91271,335546,429553
1630498002504,91241,335516,429565
1630498002514,91222,335510,429529
1630498002524,91198,335501,429514
1630498002534,91158,335470,429482
1630498002544,91127,335454,429461
1630498002554,91124,335404,429452
1630498002564,91099,335411,429472
1630498002574,91067,335414,429483
1630498002584,91041,335416,429454
1630498002594,91056,335361,429491
1630498002604,91016,335421,429481
1630498002614,91007,335376,429461
1630498002624,90995,335333,429451
1630498002634,91005,335408,429457
1630498002644,90996,335377,429451
1630498002654,90998,335393,429469
1630498002664,90998,335350,429468
1630498002674,90976,335392,429451
1630498002684,90969,335396,429416
1630498002694,90964,335370,429469
1630498002704,90962,335389,429491
1630498002714,90974,335426,429424
1630498002724,90967,335377,429424
1630498002734,90962,335421,429479
1630498002744,90966,335394,429425
1630498002754,90973,335361,429450
1630498002764,90983,335395,429426
1630498002774,90970,335374,429448
1630498002784,90954,335434,429472
1630498002794,90965,335416,429423
1630498002804,90966,335450,429412
1630498002814,90985,335411,429404
1630498002824,90991,335455,429437
1630498002834,90997,335467,429494
1630498002844,90999,335433,429486
1630498002854,90994,335431,429485
1630498002864,91006,335487,429477
1630498002874,91027,335504,429489
1630498002884,91036,335519,429459
1630498002894,91045,335569,429500
1630498002904,91074,335560,429502
1630498002914,91088,335542,429487
1630498002924,91100,335577,429498
1630498002934,91089,335622,429530
1630498002944,91115,335587,429530
1630498002954,91155,335575,429480
1630498002964,91168,335668,429527
1630498002974,91173,335678,429545
1630498002984,91205,335665,429541
1630498002994,91207,335678,429583
1630498003004,91231,335675,429583
1630498003014,91238,335731,429522
1630498003024,91225,335662,429577
1630498003034,91260,335718,429523
1630498003044,91256,335703,429531
1630498003054,91248,335670,429527
1630498003064,91242,335595,429542
1630498003074,91217,335596,429442
1630498003084,91203,335573,429484
1630498003094,91170,335564,429488
1630498003104,91104,335511,429436
1630498003114,91108,335475,429413
1630498003124,91080,335440,429446
1630498003134,91034,335444,429430
1630498003144,91026,335410,429387
1630498003154,91002,335437,429405
1630498003164,90951,335418,429432
1630498003174,90932,335392,429410
1630498003184,90909,335358,429387
1630498003194,90895,335360,429395
1630498003204,90882,335369,429387
1630498003214,90867,335347,429388
1630498003224,90862,335366,429404
1630498003234,90861,335375,429374
1630498003244,90848,335361,429400
1630498003254,90840,335348,429397
1630498003264,90866,335374,429366
1630498003274,90850,335370,429408
1630498003284,90833,335350,429395
1630498003294,90833,335371,429368
1630498003304,90835,335360,429374
1630498003314,90828,335349,429412
1630498003324,90830,335386,429344
1630498003334,90813,335330,429404
1630498003344,90798,335293,429374
1630498003354,90803,335398,429394
1630498003364,90787,335331,429414
1630498003374,90801,335348,429417
1630498003384,90829,335354,429431
1630498003394,90814,335351,429358
1630498003404,90826,335351,429370
1630498003414,90825,335398,429396
1630498003424,90824,335411,429373
1630498003434,90839,335391,429385
1630498003444,90852,335370,429420
1630498003454,90867,335391,429392
1630498003464,90864,335378,429402
1630498003474,90865,335405,429378
1630498003484,90869,335434,429390
1630498003494,90896,335440,429455
1630498003504,90911,335432,429432
1630498003514,90918,335492,429445
1630498003524,90921,335502,429420
1630498003534,90922,335459,429465
1630498003544,90949,335478,429481
1630498003554,90965,335530,429471
1630498003564,90987,335534,429471
1630498003574,90991,335545,429496
1630498003584,91014,335590,429496
1630498003594,91018,335548,429523
1630498003604,91027,335586,429534
1630498003614,91043,335596,429522
1630498003624,91065,335614,429509
1630498003634,91050,335544,429521
1630498003644,91051,335563,429448
1630498003654,91026,335510,429471
1630498003664,90996,335470,429459
1630498003674,90966,335472,429451
1630498003684,90940,335398,429414
1630498003694,90894,335316,429371
1630498003704,90864,335302,429367
1630498003714,90820,335298,429370
1630498003724,90795,335252,429373
1630498003734,90774,335219,429373
1630498003744,90776,335242,429355
1630498003754,90739,335224,429304
1630498003764,90715,335231,429380
1630498003774,90690,335257,429339
1630498003784,90675,335250,429327
1630498003794,90628,335187,429357
1630498003804,90640,335216,429363
1630498003814,90620,335152,429369
1630498003824,90615,335188,429368
1630498003834,90618,335179,429409
1630498003844,90604,335169,429420
1630498003854,90593,335191,429385
1630498003864,90589,335198,429411
1630498003874,90580,335151,429407
1630498003884,90571,335151,429388
1630498003894,90585,335127,429390
1630498003904,90558,335192,429415
1630498003914,90551,335116,429373
1630498003924,90546,335197,429403
1630498003934,90537,335191,429411
1630498003944,90537,335205,429380
1630498003954,90526,335179,429403
1630498003964,90532,335147,429420
1630498003974,90490,335152,429384
1630498003984,90494,335202,429416
1630498003994,90519,335173,429451
1630498004004,90511,335235,429449
1630498004014,90520,335137,429438
1630498004024,90511,335152,429459
1630498004034,90518,335142,429449
1630498004044,90526,335201,429431
1630498004054,90509,335196,429428
1630498004064,90536,335191,429437
1630498004074,90548,335220,429439
1630498004084,90539,335241,429486
1630498004094,90551,335211,429473
1630498004104,90558,335264,429447
1630498004114,90559,335232,429422
1630498004124,90593,335271,429506
1630498004134,90570,335263,429475
1630498004144,90587,335277,429561
1630498004154,90585,335333,429520
1630498004164,90609,335310,429503
1630498004174,90610,335343,429514
1630498004184,90622,335284,429532
1630498004194,90642,335317,429550
1630498004204,90621,335314,429538
1630498004214,90607,335284,429461
1630498004224,90583,335193,429487
1630498004234,90543,335197,429465
1630498004244,90513,335140,429480
1630498004254,90476,335081,429411
1630498004264,90419,335025,429427
1630498004274,90366,335010,429368
1630498004284,90339,334971,429406
1630498004294,90284,334946,429360
1630498004304,90243,334918,429354
1630498004314,90218,334942,429383
1630498004324,90191,334822,429359
1630498004334,90148,334894,429344
1630498004344,90131,334826,429305
1630498004354,90116,334836,429337
1630498004364,90109,334766,429309
1630498004374,90063,334821,429373
1630498004384,90045,334819,429358
1630498004394,90042,334815,429325
1630498004404,90026,334785,429381
1630498004414,90016,334805,429385
1630498004424,90005,334787,429431
1630498004434,90000,334796,429415
1630498004444,89999,334763,429424
1630498004454,89983,334771,429412
1630498004464,89974,334786,429409
1630498004474,89966,334806,429373
1630498004484,89939,334790,429429
1630498004494,89956,334792,429407
1630498004504,89941,334779,429465
1630498004514,89945,334759,429447
1630498004524,89924,334712,429426
1630498004534,89926,334747,429462
1630498004544,89918,334765,429441
1630498004554,89894,334787,429463
1630498004564,89908,334817,429532
1630498004574,89919,334803,429497
1630498004584,89912,334785,429519
1630498004594,89917,334816,429505
1630498004604,89918,334824,429501
1630498004614,89932,334826,429510
1630498004624,89922,334823,429526
1630498004634,89941,334859,429567
1630498004644,89941,334839,429550
1630498004654,89943,334857,429534
1630498004664,89959,334906,429554
1630498004674,89982,334888,429630
1630498004684,89995,334905,429592
1630498004694,90006,334886,429607
1630498004704,90037,334896,429636
1630498004714,90030,334902,429648
1630498004724,90038,334988,429644
1630498004734,90068,334984,429661
1630498004744,90052,335002,429696
1630498004754,90094,335015,429686
1630498004764,90093,334977,429662
1630498004774,90072,334941,429725
1630498004784,90068,334942,429655
1630498004794,90053,334894,429668
1630498004804,90020,334861,429598
1630498004814,89987,334873,429625
1630498004824,89943,334769,429600
1630498004834,89892,334746,429638
1630498004844,89844,334685,429602
1630498004854,89810,334638,429542
1630498004864,89758,334670,429541
1630498004874,89721,334617,429537
1630498004884,89682,334578,429476
1630498004894,89650,334562,429549
1630498004904,89622,334527,429526
1630498004914,89585,334492,429554
1630498004924,89581,334488,429499
1630498004934,89536,334418,429522
1630498004944,89484,334475,429529
1630498004954,89455,334427,429542
1630498004964,89467,334422,429539
1630498004974,89435,334439,429536
1630498004984,89430,334440,429565
1630498004994,89415,334399,429548
1630498005004,89405,334381,429545
1630498005014,89400,334409,429595
1630498005024,89392,334403,429599
1630498005034,89375,334411,429608
1630498005044,89387,334365,429579
1630498005054,89369,334374,429575
1630498005064,89353,334419,429650
1630498005074,89354,334385,429641
1630498005084,89347,334409,429650
1630498005094,89334,334398,429696
1630498005104,89324,334367,429654
1630498005114,89315,334357,429697
1630498005124,89309,334426,429684
1630498005134,89299,334390,429692
1630498005144,89304,334382,429699
1630498005154,89302,334357,429692
1630498005164,89306,334428,429728
1630498005174,89335,334385,429708
1630498005184,89340,334395,429760
1630498005194,89344,334377,429809
1630498005204,89332,334442,429770
1630498005214,89375,334454,429793
1630498005224,89374,334448,429804
1630498005234,89393,334473,429813
1630498005244,89403,334489,429874
1630498005254,89418,334503,429848
1630498005264,89442,334518,429868
1630498005274,89445,334520,429846
1630498005284,89443,334552,429862
1630498005294,89453,334576,429889
1630498005304,89467,334579,429926
1630498005314,89493,334583,429900
1630498005324,89504,334588,429939
1630498005334,89527,334606,429941
1630498005344,89564,334587,429938
1630498005354,89558,334596,429978
1630498005364,89565,334590,429940
1630498005374,89539,334550,429910
1630498005384,89501,334519,429895
1630498005394,89488,334448,429914
1630498005404,89457,334425,429871
1630498005414,89420,334395,429863
1630498005424,89352,334365,429856
1630498005434,89336,334349,429867
1630498005444,89295,334274,429847
1630498005454,89259,334269,429857
1630498005464,89217,334241,429871
1630498005474,89201,334252,429816
1630498005484,89186,334248,429855
1630498005494,89147,334196,429853
1630498005504,89133,334177,429857
1630498005514,89094,334204,429849
1630498005524,89086,334178,429850
1630498005534,89070,334165,429876
1630498005544,89048,334132,429902
1630498005554,89047,334180,429924
1630498005564,89037,334129,429904
1630498005574,89037,334124,429884
1630498005584,89033,334197,429878
1630498005594,89016,334159,429947
1630498005604,89020,334156,429931
1630498005614,89006,334100,429906
1630498005624,89012,334135,429960
1630498005634,89010,334168,429945
1630498005644,89019,334124,429956
1630498005654,89033,334142,429971
1630498005664,89010,334092,429979
1630498005674,89015,334137,430005
1630498005684,89022,334156,430037
1630498005694,89001,334137,430012
1630498005704,89011,334145,429994
1630498005714,89041,334114,430058
1630498005724,89018,334155,430039
1630498005734,89064,334189,430059
1630498005744,89076,334163,430035
1630498005754,89076,334196,430056
1630498005764,89081,334235,430084
1630498005774,89090,334199,430060
1630498005784,89113,334209,430112
1630498005794,89125,334249,430118
1630498005804,89135,334282,430136
1630498005814,89170,334276,430094
1630498005824,89167,334329,430181
1630498005834,89191,334291,430241
1630498005844,89222,334346,430163
1630498005854,89247,334328,430226
1630498005864,89268,334349,430182
1630498005874,89282,334358,430254
1630498005884,89312,334398,430266
1630498005894,89312,334391,430274
1630498005904,89356,334396,430266
1630498005914,89361,334449,430292
1630498005924,89377,334500,430260
1630498005934,89394,334507,430301
1630498005944,89421,334468,430319
1630498005954,89429,334484,430283
1630498005964,89427,334442,430259
1630498005974,89434,334381,430289
1630498005984,89425,334389,430255
1630498005994,89416,334338,430202
1630498006004,89373,334345,430300
1630498006014,89357,334285,430250
1630498006024,89298,334265,430268
1630498006034,89299,334256,430240
1630498006044,89272,334223,430227
1630498006054,89230,334255,430177
1630498006064,89213,334211,430219
1630498006074,89191,334228,430245
1630498006084,89197,334185,430232
1630498006094,89165,334204,430217
1630498006104,89159,334165,430277
1630498006114,89150,334159,430271
1630498006124,89131,334146,430209
1630498006134,89147,334153,430254
1630498006144,89147,334164,430286
1630498006154,89145,334182,430282
1630498006164,89136,334186,430254
1630498006174,89158,334176,430324
1630498006184,89154,334188,430287
1630498006194,89151,334156,430308
1630498006204,89160,334171,430295
1630498006214,89170,334147,430300
1630498006224,89187,334164,430342
1630498006234,89179,334169,430336
1630498006244,89187,334170,430336
1630498006254,89182,334170,430382
1630498006264,89175,334186,430388
1630498006274,89174,334181,430348
1630498006284,89182,334189,430353
1630498006294,89193,334188,430337
1630498006304,89208,334193,430356
1630498006314,89244,334231,430398
1630498006324,89225,334205,430389
1630498006334,89259,334229,430426
1630498006344,89276,334236,430432
1630498006354,89300,334252,430443
1630498006364,89297,334295,430432
1630498006374,89319,334324,430465
1630498006384,89318,334316,430399
1630498006394,89331,334303,430417
1630498006404,89362,334333,430501
1630498006414,89387,334347,430500
1630498006424,89405,334329,430505
1630498006434,89410,334377,430502
1630498006444,89447,334356,430546
1630498006454,89474,334433,430518
1630498006464,89492,334443,430547
1630498006474,89536,334418,430506
1630498006484,89562,334460,430564
1630498006494,89569,334454,430535
1630498006504,89593,334495,430543
1630498006514,89633,334454,430629
1630498006524,89643,334490,430549
1630498006534,89674,334487,430619
1630498006544,89685,334531,430565
1630498006554,89709,334495,430579
1630498006564,89700,334456,430523
1630498006574,89691,334470,430582
1630498006584,89676,334448,430542
1630498006594,89653,334420,430544
1630498006604,89639,334387,430561
1630498006614,89640,334330,430523
1630498006624,89593,334328,430478
1630498006634,89566,334290,430505
1630498006644,89592,334288,430462
1630498006654,89571,334256,430458
1630498006664,89550,334234,430449
1630498006674,89531,334256,430436
1630498006684,89530,334224,430495
1630498006694,89518,334201,430518
1630498006704,89511,334231,430468
1630498006714,89507,334228,430448
1630498006724,89483,334219,430459
1630498006734,89484,334222,430485
1630498006744,89493,334242,430459
1630498006754,89494,334220,430500
1630498006764,89485,334239,430494
1630498006774,89485,334249,430475
1630498006784,89505,334233,430435
1630498006794,89512,334240,430517
1630498006804,89511,334224,430509
1630498006814,89522,334224,430483
1630498006824,89523,334257,430494
1630498006834,89524,334210,430484
1630498006844,89558,334232,430481
1630498006854,89527,334204,430508
1630498006864,89582,334209,430528
1630498006874,89592,334271,430533
1630498006884,89592,334237,430533
1630498006894,89603,334280,430476
1630498006904,89612,334338,430508
1630498006914,89634,334274,430570
1630498006924,89623,334302,430506
1630498006934,89627,334302,430514
1630498006944,89651,334379,430546
1630498006954,89681,334408,430524
1630498006964,89671,334345,430531
1630498006974,89697,334422,430589
1630498006984,89718,334421,430575
1630498006994,89742,334377,430588
1630498007004,89760,334413,430576
1630498007014,89782,334449,430584
1630498007024,89804,334418,430630
1630498007034,89828,334482,430630
1630498007044,89827,334441,430647
1630498007054,89852,334513,430617
1630498007064,89889,334534,430625
1630498007074,89898,334525,430662
1630498007084,89923,334529,430619
1630498007094,89959,334587,430640
1630498007104,90001,334593,430657
1630498007114,90011,334621,430681
1630498007124,90038,334637,430657
1630498007134,90041,334574,430610
1630498007144,90053,334604,430650
1630498007154,90095,334625,430695
1630498007164,90095,334601,430653
1630498007174,90088,334561,430633
1630498007184,90081,334503,430618
1630498007194,90073,334534,430645
1630498007204,90048,334523,430627
1630498007214,90033,334453,430613
1630498007224,89990,334439,430594
1630498007234,89969,334388,430599
1630498007244,89960,334385,430558
1630498007254,89938,334371,430572
1630498007264,89919,334360,430538
1630498007274,89911,334360,430580
1630498007284,89872,334321,430552
1630498007294,89883,334296,430541
1630498007304,89839,334317,430521
1630498007314,89846,334278,430557
1630498007324,89839,334297,430525
1630498007334,89822,334277,430532
1630498007344,89822,334312,430502
1630498007354,89806,334223,430490
1630498007364,89793,334225,430459
1630498007374,89789,334218,430492
1630498007384,89792,334253,430520
1630498007394,89782,334275,430491
1630498007404,89788,334310,430502
1630498007414,89794,334248,430523
1630498007424,89779,334316,430496
1630498007434,89813,334247,430532
1630498007444,89809,334260,430576
1630498007454,89823,334328,430523
1630498007464,89835,334271,430523
1630498007474,89842,334271,430539
1630498007484,89841,334255,430544
1630498007494,89838,334328,430552
1630498007504,89852,334298,430500
1630498007514,89857,334268,430572
1630498007524,89846,334312,430495
1630498007534,89855,334307,430531
1630498007544,89860,334331,430529
1630498007554,89871,334314,430544
1630498007564,89889,334387,430576
1630498007574,89909,334390,430548
1630498007584,89930,334404,430552
1630498007594,89951,334430,430570
1630498007604,89982,334454,430533
1630498007614,89997,334424,430601
1630498007624,90023,334418,430619
1630498007634,90042,334475,430588
1630498007644,90062,334473,430610
1630498007654,90072,334477,430595
1630498007664,90114,334541,430602
1630498007674,90110,334530,430615
1630498007684,90159,334525,430633
1630498007694,90185,334569,430570
1630498007704,90172,334573,430612
1630498007714,90198,334612,430642
1630498007724,90240,334649,430637
1630498007734,90254,334587,430657
1630498007744,90288,334651,430645
1630498007754,90324,334664,430688
1630498007764,90324,334671,430647
1630498007774,90334,334621,430635
1630498007784,90336,334603,430623
1630498007794,90320,334597,430595
1630498007804,90332,334582,430626
1630498007814,90312,334540,430584
1630498007824,90303,334493,430594
1630498007834,90271,334460,430579
1630498007844,90248,334461,430566
1630498007854,90205,334472,430574
1630498007864,90184,334429,430494
1630498007874,90174,334397,430593
1630498007884,90153,334354,430536
1630498007894,90136,334392,430487
1630498007904,90120,334382,430470
1630498007914,90101,334362,430492
1630498007924,90109,334331,430481
1630498007934,90093,334307,430495
1630498007944,90058,334322,430444
1630498007954,90057,334280,430459
1630498007964,90067,334300,430482
1630498007974,90031,334240,430455
1630498007984,90051,334286,430421
1630498007994,90036,334320,430458
1630498008004,90045,334273,430406
1630498008014,90022,334315,430422
1630498008024,90020,334278,430388
1630498008034,90027,334306,430405
1630498008044,90049,334332,430420
1630498008054,90037,334297,430434
1630498008064,90043,334290,430348
1630498008074,90039,334308,430408
1630498008084,90050,334310,430415
1630498008094,90056,334294,430477
1630498008104,90060,334278,430411
1630498008114,90079,334285,430415
1630498008124,90084,334296,430436
1630498008134,90087,334369,430399
1630498008144,90103,334368,430459
1630498008154,90118,334344,430462
1630498008164,90138,334357,430475
1630498008174,90134,334346,430461
1630498008184,90142,334400,430463
1630498008194,90156,334424,430438
1630498008204,90184,334416,430473
1630498008214,90197,334403,430440
1630498008224,90209,334445,430478
1630498008234,90251,334489,430508
1630498008244,90263,334521,430537
1630498008254,90276,334468,430479
1630498008264,90301,334510,430555
1630498008274,90322,334552,430538
1630498008284,90347,334569,430519
1630498008294,90367,334589,430564
1630498008304,90385,334596,430516
1630498008314,90399,334639,430543
1630498008324,90430,334576,430576
1630498008334,90441,334632,430527
1630498008344,90472,334687,430582
1630498008354,90489,334657,430548
1630498008364,90525,334677,430571
1630498008374,90536,334720,430607
1630498008384,90566,334734,430593
1630498008394,90574,334771,430596
1630498008404,90595,334731,430637
1630498008414,90589,334720,430532
1630498008424,90593,334680,430582
1630498008434,90573,334677,430568
1630498008444,90570,334653,430536
1630498008454,90541,334574,430496
1630498008464,90530,334585,430529
1630498008474,90483,334544,430467
1630498008484,90476,334505,430480
1630498008494,90465,334538,430476
1630498008504,90443,334497,430477
1630498008514,90403,334484,430488
1630498008524,90389,334516,430473
1630498008534,90380,334456,430467
1630498008544,90356,334519,430433
1630498008554,90351,334491,430463
1630498008564,90343,334454,430442
1630498008574,90335,334455,430463
1630498008584,90319,334466,430441
1630498008594,90286,334427,430442
1630498008604,90302,334435,430405
1630498008614,90270,334455,430482
1630498008624,90271,334448,430486
1630498008634,90287,334439,430427
1630498008644,90290,334412,430434
1630498008654,90277,334462,430416
1630498008664,90285,334412,430464
1630498008674,90275,334414,430416
1630498008684,90254,334468,430420
1630498008694,90261,334435,430387
1630498008704,90258,334434,430394
1630498008714,90260,334447,430390
1630498008724,90278,334425,430381
1630498008734,90289,334464,430365
1630498008744,90291,334461,430411
1630498008754,90285,334491,430362
1630498008764,90317,334463,430424
1630498008774,90302,334492,430360
1630498008784,90322,334482,430412
1630498008794,90311,334505,430381
1630498008804,90342,334479,430461
1630498008814,90355,334514,430422
1630498008824,90369,334578,430411
1630498008834,90372,334613,430445
1630498008844,90386,334603,430386
1630498008854,90404,334582,430460
1630498008864,90422,334628,430401
1630498008874,90423,334611,430446
1630498008884,90445,334643,430433
1630498008894,90492,334681,430474
1630498008904,90491,334633,430475
1630498008914,90508,334647,430447
1630498008924,90507,334717,430485
1630498008934,90555,334737,430448
1630498008944,90573,334787,430490
1630498008954,90600,334751,430506
1630498008964,90603,334820,430537
1630498008974,90608,334835,430553
1630498008984,90650,334812,430485
1630498008994,90661,334855,430519
1630498009004,90676,334838,430488
1630498009014,90675,334837,430472
1630498009024,90699,334853,430482
1630498009034,90715,334826,430486
1630498009044,90688,334803,430448
1630498009054,90694,334767,430447
1630498009064,90691,334712,430438
1630498009074,90634,334687,430419
1630498009084,90628,334684,430358
1630498009094,90599,334616,430351
1630498009104,90561,334631,430353
1630498009114,90551,334562,430376
1630498009124,90517,334627,430332
1630498009134,90473,334551,430355
1630498009144,90472,334561,430333
1630498009154,90439,334537,430345
1630498009164,90420,334535,430295
1630498009174,90403,334560,430325
1630498009184,90391,334540,430291
1630498009194,90377,334497,430261
1630498009204,90355,334526,430295
1630498009214,90383,334490,430278
1630498009224,90362,334492,430250
1630498009234,90344,334533,430273
1630498009244,90336,334496,430246
1630498009254,90348,334521,430280
1630498009264,90349,334540,430343
1630498009274,90356,334471,430255
1630498009284,90335,334536,430266
1630498009294,90355,334524,430323
1630498009304,90343,334569,430287
1630498009314,90329,334514,430322
1630498009324,90337,334510,430307
1630498009334,90332,334523,430328
1630498009344,90348,334502,430276
1630498009354,90333,334563,430261
1630498009364,90338,334561,430294
1630498009374,90344,334520,430341
1630498009384,90364,334569,430260
1630498009394,90373,334591,430262
1630498009404,90364,334577,430286
1630498009414,90379,334584,430307
1630498009424,90397,334587,430282
1630498009434,90405,334607,430310
1630498009444,90416,334583,430304
1630498009454,90433,334625,430346
1630498009464,90433,334673,430347
1630498009474,90449,334639,430314
1630498009484,90474,334672,430369
1630498009494,90480,334682,430345
1630498009504,90499,334699,430361
1630498009514,90497,334679,430363
1630498009524,90508,334744,430369
1630498009534,90546,334801,430381
1630498009544,90562,334793,430362
1630498009554,90568,334764,430397
1630498009564,90614,334822,430373
1630498009574,90618,334844,430438
1630498009584,90620,334827,430387
1630498009594,90655,334843,430404
1630498009604,90673,334875,430442
1630498009614,90678,334900,430429
1630498009624,90719,334906,430406
1630498009634,90724,334955,430411
1630498009644,90730,334958,430448
1630498009654,90753,334984,430453
1630498009664,90760,334955,430441
1630498009674,90765,334992,430431
1630498009684,90751,334928,430435
1630498009694,90754,334938,430382
1630498009704,90729,334860,430355
1630498009714,90712,334810,430335
1630498009724,90691,334753,430379
1630498009734,90645,334748,430347
1630498009744,90613,334722,430297
1630498009754,90587,334698,430289
1630498009764,90549,334678,430270
1630498009774,90496,334665,430253
1630498009784,90475,334614,430255
1630498009794,90438,334583,430204
1630498009804,90406,334566,430239
1630498009814,90369,334602,430246
1630498009824,90351,334558,430193
1630498009834,90349,334536,430205
1630498009844,90297,334570,430177
1630498009854,90276,334523,430186
1630498009864,90260,334512,430179
1630498009874,90243,334509,430131
1630498009884,90243,334536,430169
1630498009894,90233,334521,430158
1630498009904,90240,334527,430234
1630498009914,90227,334476,430157
1630498009924,90190,334534,430180
1630498009934,90224,334511,430142
1630498009944,90214,334496,430151
1630498009954,90227,334541,430184
1630498009964,90209,334564,430174
1630498009974,90219,334492,430174
1630498009984,90221,334541,430180
1630498009994,90211,334595,430198
1630498010004,90221,334545,430214
1630498010014,90204,334605,430214
1630498010024,90211,334559,430202
1630498010034,90235,334557,430218
1630498010044,90232,334639,430203
1630498010054,90237,334603,430194
1630498010064,90237,334607,430217
1630498010074,90244,334609,430233
1630498010084,90267,334627,430232
1630498010094,90272,334677,430207
1630498010104,90259,334627,430242
1630498010114,90287,334651,430255
1630498010124,90299,334680,430203
1630498010134,90303,334685,430233
1630498010144,90307,334747,430250
1630498010154,90322,334711,430225
1630498010164,90335,334733,430225
1630498010174,90359,334766,430269
1630498010184,90389,334747,430252
1630498010194,90398,334803,430298
1630498010204,90425,334824,430270
1630498010214,90437,334821,430260
1630498010224,90471,334845,430283
1630498010234,90464,334868,430306
1630498010244,90476,334889,430267
1630498010254,90502,334900,430312
1630498010264,90511,334989,430290
1630498010274,90550,334937,430303
1630498010284,90544,334985,430368
1630498010294,90569,334993,430297
1630498010304,90584,335029,430375
1630498010314,90582,335010,430307
1630498010324,90594,334974,430288
1630498010334,90578,334979,430302
1630498010344,90592,334910,430275
1630498010354,90565,334838,430276
1630498010364,90542,334857,430292
1630498010374,90486,334749,430239
1630498010384,90474,334817,430198
1630498010394,90438,334754,430225
1630498010404,90411,334743,430202
1630498010414,90385,334791,430233
1630498010424,90377,334718,430208
1630498010434,90341,334712,430173
1630498010444,90311,334690,430231
1630498010454,90288,334675,430158
1630498010464,90271,334704,430202
1630498010474,90274,334657,430193
1630498010484,90262,334663,430183
1630498010494,90241,334707,430171
1630498010504,90234,334672,430209
1630498010514,90211,334653,430181
1630498010524,90231,334716,430137
1630498010534,90240,334718,430178
1630498010544,90226,334704,430199
1630498010554,90209,334687,430206
1630498010564,90244,334709,430203
1630498010574,90221,334747,430189
1630498010584,90209,334692,430175
1630498010594,90233,334734,430188
1630498010604,90222,334735,430194
1630498010614,90210,334720,430179
1630498010624,90239,334697,430170
1630498010634,90231,334758,430202
1630498010644,90226,334702,430209
1630498010654,90226,334731,430181
1630498010664,90252,334704,430201
1630498010674,90243,334747,430155
1630498010684,90262,334767,430216
1630498010694,90259,334807,430210
1630498010704,90268,334827,430241
1630498010714,90259,334823,430243
1630498010724,90282,334806,430227
1630498010734,90301,334838,430219
1630498010744,90317,334820,430236
1630498010754,90326,334874,430239
1630498010764,90351,334858,430254
1630498010774,90339,334891,430249
1630498010784,90356,334903,430258
1630498010794,90374,334965,430236
1630498010804,90397,334966,430288
1630498010814,90409,334942,430285
1630498010824,90433,335015,430319
1630498010834,90474,335045,430266
1630498010844,90480,335052,430320
1630498010854,90491,335087,430320
1630498010864,90522,335067,430343
1630498010874,90539,335108,430376
1630498010884,90554,335120,430363
1630498010894,90597,335165,430375
1630498010904,90606,335123,430372
1630498010914,90605,335164,430342
1630498010924,90646,335163,430325
1630498010934,90663,335219,430334
1630498010944,90653,335138,430372
1630498010954,90671,335131,430342
1630498010964,90662,335150,430322
1630498010974,90660,335116,430319
1630498010984,90653,335072,430354
1630498010994,90626,335063,430278
1630498011004,90596,335034,430291
1630498011014,90589,334971,430288
1630498011024,90561,334995,430282
1630498011034,90543,335011,430249
1630498011044,90523,334970,430237
1630498011054,90506,334931,430247
1630498011064,90487,334956,430227
1630498011074,90479,334945,430236
1630498011084,90458,334970,430229
1630498011094,90458,334939,430234
1630498011104,90452,334885,430200
1630498011114,90445,334959,430234
1630498011124,90443,334962,430255
1630498011134,90438,334948,430235
1630498011144,90449,334923,430229
1630498011154,90440,334976,430220
1630498011164,90447,335007,430239
1630498011174,90443,334980,430274
1630498011184,90463,335008,430243
1630498011194,90467,335012,430240
1630498011204,90468,334988,430270
1630498011214,90472,334949,430252
1630498011224,90465,335007,430238
1630498011234,90466,335028,430236
1630498011244,90483,334989,430256
1630498011254,90477,334996,430210
1630498011264,90478,334959,430225
1630498011274,90481,335020,430246
1630498011284,90499,334998,430231
1630498011294,90497,335033,430246
1630498011304,90503,335005,430263
1630498011314,90516,335054,430293
1630498011324,90518,335063,430236
1630498011334,90521,335067,430254
1630498011344,90532,335059,430262
1630498011354,90548,335120,430272
1630498011364,90573,335091,430252
1630498011374,90575,335097,430238
1630498011384,90592,335128,430276
1630498011394,90612,335102,430288
1630498011404,90625,335159,430281
1630498011414,90631,335137,430303
1630498011424,90652,335168,430328
1630498011434,90681,335214,430276
1630498011444,90679,335274,430308
1630498011454,90684,335276,430273
1630498011464,90716,335240,430272
1630498011474,90748,335284,430298
1630498011484,90752,335294,430288
1630498011494,90788,335318,430291
1630498011504,90808,335275,430356
1630498011514,90835,335358,430281
1630498011524,90822,335365,430330
1630498011534,90854,335421,430312
1630498011544,90851,335376,430333
1630498011554,90874,335419,430280
1630498011564,90882,335337,430287
1630498011574,90882,335327,430291
1630498011584,90844,335263,430241
1630498011594,90812,335247,430281
1630498011604,90790,335218,430233
1630498011614,90761,335209,430186
1630498011624,90740,335171,430229
1630498011634,90735,335106,430203
1630498011644,90712,335136,430198
1630498011654,90722,335130,430184
1630498011664,90689,335115,430171
1630498011674,90668,335108,430164
1630498011684,90649,335081,430164
1630498011694,90652,335114,430141
1630498011704,90643,335097,430145
1630498011714,90635,335073,430186
1630498011724,90629,335059,430166
1630498011734,90623,335118,430227
1630498011744,90628,335070,430146
1630498011754,90615,335093,430176
1630498011764,90617,335148,430242
1630498011774,90623,335106,430177
1630498011784,90631,335119,430173
1630498011794,90677,335130,430118
1630498011804,90640,335161,430176
1630498011814,90670,335160,430181
1630498011824,90644,335127,430181
1630498011834,90650,335128,430188
1630498011844,90687,335172,430204
1630498011854,90700,335198,430206
1630498011864,90687,335189,430207
1630498011874,90686,335180,430253
1630498011884,90705,335190,430187
1630498011894,90715,335230,430213
1630498011904,90710,335212,430241
1630498011914,90725,335246,430221
1630498011924,90723,335236,430212
1630498011934,90739,335316,430219
1630498011944,90752,335273,430214
1630498011954,90759,335270,430257
1630498011964,90772,335278,430290
1630498011974,90815,335315,430260
1630498011984,90830,335382,430260
1630498011994,90851,335330,430281
1630498012004,90869,335347,430316
1630498012014,90882,335382,430303
1630498012024,90903,335391,430287
1630498012034,90914,335417,430329
1630498012044,90933,335441,430373
1630498012054,90961,335451,430328
1630498012064,90990,335489,430326
1630498012074,91013,335477,430328
1630498012084,91028,335491,430379
1630498012094,91046,335501,430375
1630498012104,91080,335527,430357
1630498012114,91096,335581,430328
1630498012124,91146,335588,430391
1630498012134,91154,335616,430365
1630498012144,91189,335601,430367
1630498012154,91165,335554,430359
1630498012164,91186,335518,430352
1630498012174,91189,335464,430328
1630498012184,91143,335435,430352
1630498012194,91135,335419,430309
1630498012204,91084,335364,430272
1630498012214,91088,335323,430249
1630498012224,91051,335283,430283
1630498012234,91029,335341,430220
1630498012244,91003,335273,430204
1630498012254,90961,335259,430205
1630498012264,90938,335269,430144
1630498012274,90924,335242,430167
1630498012284,90921,335226,430197
1630498012294,90884,335227,430215
1630498012304,90858,335191,430181
1630498012314,90867,335215,430154
1630498012324,90832,335166,430132
1630498012334,90841,335179,430135
1630498012344,90830,335177,430169
1630498012354,90810,335203,430138
1630498012364,90829,335198,430160
1630498012374,90821,335194,430159
1630498012384,90826,335206,430150
1630498012394,90839,335189,430126
1630498012404,90811,335244,430175
1630498012414,90820,335155,430149
1630498012424,90811,335172,430169
1630498012434,90821,335186,430155
1630498012444,90813,335183,430155
1630498012454,90818,335170,430110
1630498012464,90802,335164,430141
1630498012474,90806,335183,430141
1630498012484,90815,335185,430154
1630498012494,90812,335177,430132
1630498012504,90814,335221,430124
1630498012514,90840,335199,430142
1630498012524,90841,335236,430127
1630498012534,90853,335261,430110
1630498012544,90830,335211,430108
1630498012554,90858,335273,430094
1630498012564,90862,335275,430160
1630498012574,90876,335288,430220
1630498012584,90887,335294,430147
1630498012594,90895,335296,430150
1630498012604,90928,335324,430201
1630498012614,90927,335328,430206
1630498012624,90928,335340,430198
1630498012634,90945,335357,430138
1630498012644,90944,335356,430204
1630498012654,90968,335358,430163
1630498012664,90980,335417,430182
1630498012674,90996,335361,430181
1630498012684,90991,335443,430178
1630498012694,91004,335438,430175
1630498012704,91009,335429,430193
1630498012714,91019,335481,430163
1630498012724,91027,335483,430216
1630498012734,91037,335482,430221
1630498012744,91034,335472,430208
1630498012754,91009,335390,430181
1630498012764,91023,335391,430124
1630498012774,90987,335389,430132
1630498012784,90970,335317,430087
1630498012794,90938,335281,430118
1630498012804,90889,335248,430118
1630498012814,90862,335222,430086
1630498012824,90851,335194,430104
1630498012834,90812,335143,430073
1630498012844,90783,335158,430068
1630498012854,90772,335158,430076
1630498012864,90734,335104,430038
1630498012874,90729,335115,429984
1630498012884,90716,335059,430061
1630498012894,90665,335059,430065
1630498012904,90653,335121,430055
1630498012914,90641,335094,430034
1630498012924,90624,335022,430033
1630498012934,90625,335043,430060
1630498012944,90608,335077,430024
1630498012954,90631,335037,430018
1630498012964,90613,335049,430022
1630498012974,90612,335057,430039
1630498012984,90617,335016,430058
1630498012994,90618,335049,430045
1630498013004,90626,335060,430001
1630498013014,90611,335001,430067
1630498013024,90617,335020,430047
1630498013034,90597,335026,430000
1630498013044,90611,335042,430065
1630498013054,90604,335063,430014
1630498013064,90598,335039,430023
1630498013074,90577,335049,430043
1630498013084,90584,335068,430046
1630498013094,90602,335011,430040
1630498013104,90597,335006,430052
1630498013114,90587,335035,430056
1630498013124,90611,335018,430087
1630498013134,90629,335097,430057
1630498013144,90631,335049,430087
1630498013154,90649,335090,430038
1630498013164,90659,335058,430100
1630498013174,90667,335117,430120
1630498013184,90671,335169,430097
1630498013194,90669,335114,430102
1630498013204,90684,335153,430150
1630498013214,90688,335129,430114
1630498013224,90708,335203,430106
1630498013234,90736,335199,430133
1630498013244,90758,335221,430128
1630498013254,90784,335245,430194
1630498013264,90786,335246,430149
1630498013274,90823,335214,430170
