timestamp,green,ir,red
1630497978005,36407,255889,301032
1630497978015,36400,255868,301014
1630497978025,36399,255904,300981
1630497978035,36400,255926,300991
1630497978045,36395,255927,300960
1630497978055,36397,255920,300961
1630497978065,36395,255942,300947
1630497978075,36400,255962,300946
1630497978085,36400,255977,300949
1630497978095,36399,255929,300965
1630497978105,36400,255979,300958
1630497978115,36407,256025,300982
1630497978125,36423,255962,300967
1630497978135,36426,256009,300966
1630497978145,36439,256019,300962
1630497978155,36445,256032,301024
1630497978165,36452,256050,300975
1630497978175,36460,256071,300998
1630497978185,36478,256078,301061
1630497978195,36488,256079,301009
1630497978205,36504,256100,301039
1630497978215,36526,256128,301057
1630497978225,36539,256122,301099
1630497978235,36553,256053,301088
1630497978245,36544,256042,301064
1630497978255,36531,255967,301037
1630497978265,36513,255938,301039
1630497978275,36491,255864,301036
1630497978285,36471,255820,301003
1630497978295,36442,255808,300995
1630497978305,36432,255759,300952
1630497978315,36424,255741,300929
1630497978325,36386,255749,300925
1630497978335,36379,255730,300939
1630497978345,36365,255693,300958
1630497978355,36348,255666,300938
1630497978365,36341,255678,300937
1630497978375,36323,255649,300917
1630497978385,36311,255629,300905
1630497978395,36305,255674,300937
1630497978405,36297,255676,300922
1630497978415,36295,255661,300886
1630497978425,36300,255701,300903
1630497978435,36297,255676,300950
1630497978445,36295,255735,300953
1630497978455,36303,255738,300968
1630497978465,36302,255702,300946
1630497978475,36297,255723,300909
1630497978485,36298,255707,300979
1630497978495,36306,255712,300961
1630497978505,36305,255706,300939
1630497978515,36298,255681,300972
1630497978525,36301,255731,300931
1630497978535,36302,255678,300988
1630497978545,36302,255717,300958
1630497978555,36311,255729,300984
1630497978565,36306,255753,300966
1630497978575,36310,255710,300980
1630497978585,36316,255745,301001
1630497978595,36315,255762,300990
1630497978605,36319,255769,300998
1630497978615,36336,255779,300988
1630497978625,36333,255801,301039
1630497978635,36341,255779,301045
1630497978645,36344,255794,301031
1630497978655,36344,255837,301029
1630497978665,36363,255848,301004
1630497978675,36371,255876,301030
1630497978685,36377,255876,301053
1630497978695,36390,255877,301029
1630497978705,36404,255911,301045
1630497978715,36411,255929,301031
1630497978725,36424,255910,301094
1630497978735,36437,255977,301048
1630497978745,36452,255967,301085
1630497978755,36461,256020,301089
1630497978765,36482,256001,301088
1630497978775,36494,256012,301169
1630497978785,36524,256085,301152
1630497978795,36555,256076,301157
1630497978805,36551,256003,301151
1630497978815,36551,255950,301197
1630497978825,36552,255906,301172
1630497978835,36527,255900,301154
1630497978845,36509,255823,301150
1630497978855,36505,255770,301110
1630497978865,36474,255751,301121
1630497978875,36460,255734,301114
1630497978885,36442,255714,301053
1630497978895,36430,255711,301049
1630497978905,36410,255674,301060
1630497978915,36404,255665,301029
1630497978925,36390,255686,301042
1630497978935,36387,255669,301043
1630497978945,36390,255646,301008
1630497978955,36378,255668,300971
1630497978965,36360,255664,300983
1630497978975,36359,255675,301036
1630497978985,36366,255699,300976
1630497978995,36363,255700,300999
1630497979005,36365,255708,301015
1630497979015,36372,255672,301043
1630497979025,36383,255690,300999
1630497979035,36390,255731,301043
1630497979045,36388,255699,301035
1630497979055,36392,255680,301037
1630497979065,36396,255692,301064
1630497979075,36405,255667,301033
1630497979085,36402,255705,301063
1630497979095,36404,255717,301057
1630497979105,36418,255730,301051
1630497979115,36414,255693,301054
1630497979125,36420,255732,301056
1630497979135,36423,255721,301082
1630497979145,36432,255718,301079
1630497979155,36436,255749,301116
1630497979165,36435,255784,301083
1630497979175,36448,255769,301148
1630497979185,36454,255797,301116
1630497979195,36465,255785,301134
1630497979205,36470,255833,301132
1630497979215,36476,255831,301145
1630497979225,36494,255837,301168
1630497979235,36503,255848,301147
1630497979245,36525,255867,301184
1630497979255,36533,255894,301197
1630497979265,36551,255910,301217
1630497979275,36550,255968,301213
1630497979285,36576,255987,301253
1630497979295,36584,255976,301246
1630497979305,36592,256020,301257
1630497979315,36621,256043,301272
1630497979325,36630,256078,301296
1630497979335,36653,256088,301325
1630497979345,36670,256085,301362
1630497979355,36689,256098,301380
1630497979365,36701,256016,301340
1630497979375,36695,255987,301345
1630497979385,36687,255929,301365
1630497979395,36670,255874,301337
1630497979405,36659,255862,301338
1630497979415,36640,255841,301303
1630497979425,36634,255845,301280
1630497979435,36618,255793,301277
1630497979445,36598,255756,301316
1630497979455,36594,255759,301301
1630497979465,36588,255771,301279
1630497979475,36565,255775,301304
1630497979485,36564,255792,301278
1630497979495,36560,255740,301294
1630497979505,36558,255737,301305
1630497979515,36548,255802,301291
1630497979525,36549,255817,301295
1630497979535,36548,255787,301298
1630497979545,36542,255782,301349
1630497979555,36560,255881,301349
1630497979565,36571,255891,301374
1630497979575,36575,255887,301422
1630497979585,36572,255896,301402
1630497979595,36582,255929,301395
1630497979605,36589,255948,301424
1630497979615,36604,255933,301430
1630497979625,36601,255928,301483
1630497979635,36621,255974,301471
1630497979645,36626,256040,301475
1630497979655,36630,256019,301518
1630497979665,36640,255998,301509
1630497979675,36643,256039,301548
1630497979685,36665,256040,301577
1630497979695,36675,256075,301581
1630497979705,36683,256112,301598
1630497979715,36694,256141,301615
1630497979725,36697,256162,301608
1630497979735,36707,256176,301652
1630497979745,36714,256194,301638
1630497979755,36729,256207,301610
1630497979765,36726,256212,301637
1630497979775,36738,256210,301628
1630497979785,36753,256275,301673
1630497979795,36751,256273,301605
1630497979805,36771,256320,301631
1630497979815,36777,256293,301657
1630497979825,36793,256308,301661
1630497979835,36808,256349,301682
1630497979845,36830,256382,301685
1630497979855,36836,256422,301717
1630497979865,36862,256448,301692
1630497979875,36875,256473,301733
1630497979885,36905,256448,301798
1630497979895,36934,256480,301780
1630497979905,36966,256532,301867
1630497979915,36996,256482,301912
1630497979925,36995,256472,301915
1630497979935,37004,256409,301891
1630497979945,36976,256371,301911
1630497979955,36978,256320,301873
1630497979965,36955,256303,301909
1630497979975,36938,256270,301907
1630497979985,36915,256213,301833
1630497979995,36901,256208,301830
1630497980005,36873,256176,301812
1630497980015,36863,256160,301841
1630497980025,36843,256134,301829
1630497980035,36837,256105,301827
1630497980045,36828,256124,301814
1630497980055,36822,256108,301817
1630497980065,36794,256093,301792
1630497980075,36793,256115,301808
1630497980085,36787,256037,301794
1630497980095,36769,256074,301757
1630497980105,36757,256044,301762
1630497980115,36756,256052,301748
1630497980125,36760,256055,301755
1630497980135,36753,256043,301760
1630497980145,36747,256074,301765
1630497980155,36740,256043,301757
1630497980165,36739,256054,301788
1630497980175,36744,256058,301766
1630497980185,36746,256005,301779
1630497980195,36741,256042,301753
1630497980205,36736,256055,301778
1630497980215,36732,256057,301766
1630497980225,36734,256044,301778
1630497980235,36733,256020,301732
1630497980245,36731,256053,301759
1630497980255,36729,256051,301749
1630497980265,36729,256046,301735
1630497980275,36729,256025,301743
1630497980285,36728,256032,301744
1630497980295,36725,256066,301718
1630497980305,36732,256023,301739
1630497980315,36740,256072,301759
1630497980325,36742,256065,301731
1630497980335,36749,256101,301753
1630497980345,36761,256121,301770
1630497980355,36771,256078,301775
1630497980365,36784,256140,301811
1630497980375,36792,256134,301837
1630497980385,36806,256182,301834
1630497980395,36821,256216,301845
1630497980405,36838,256215,301886
1630497980415,36846,256249,301890
1630497980425,36858,256284,301901
1630497980435,36878,256295,301941
1630497980445,36887,256280,301917
1630497980455,36919,256331,301962
1630497980465,36941,256277,302052
1630497980475,36959,256292,302072
1630497980485,36962,256244,302075
1630497980495,36948,256265,302074
1630497980505,36925,256145,302013
1630497980515,36909,256129,302004
1630497980525,36884,256154,302047
1630497980535,36866,256083,301960
1630497980545,36847,256042,302019
1630497980555,36831,256035,302081
1630497980565,36815,256043,302040
1630497980575,36801,256042,302044
1630497980585,36797,256043,302067
1630497980595,36801,256019,302077
1630497980605,36789,256035,302063
1630497980615,36775,256028,302068
1630497980625,36765,255997,302114
1630497980635,36757,256008,302103
1630497980645,36764,256013,302147
1630497980655,36747,256005,302130
1630497980665,36744,255995,302149
1630497980675,36741,256035,302127
1630497980685,36740,256038,302131
1630497980695,36749,256008,302191
1630497980705,36751,256033,302180
1630497980715,36754,256016,302211
1630497980725,36757,256011,302208
1630497980735,36765,256038,302207
1630497980745,36761,256030,302245
1630497980755,36754,255976,302247
1630497980765,36778,256010,302220
1630497980775,36765,256027,302233
1630497980785,36765,256023,302249
1630497980795,36767,255993,302249
1630497980805,36762,256054,302246
1630497980815,36768,256062,302186
1630497980825,36764,256027,302231
1630497980835,36753,256035,302177
1630497980845,36749,256097,302189
1630497980855,36751,256088,302165
1630497980865,36754,256079,302145
1630497980875,36758,256038,302181
1630497980885,36766,256083,302156
1630497980895,36762,256088,302153
1630497980905,36766,256093,302151
1630497980915,36767,256086,302091
1630497980925,36769,256108,302144
1630497980935,36780,256087,302090
1630497980945,36778,256178,302064
1630497980955,36791,256158,302101
1630497980965,36795,256172,302072
1630497980975,36805,256176,302107
1630497980985,36814,256250,302068
1630497980995,36826,256234,302063
1630497981005,36840,256230,302097
1630497981015,36852,256284,302085
1630497981025,36882,256260,302135
1630497981035,36908,256285,302145
1630497981045,36921,256225,302239
1630497981055,36928,256257,302190
1630497981065,36925,256196,302218
1630497981075,36911,256180,302206
1630497981085,36888,256135,302244
1630497981095,36888,256084,302234
1630497981105,36866,256057,302207
1630497981115,36828,256022,302207
1630497981125,36810,255993,302215
1630497981135,36781,255970,302164
1630497981145,36758,255981,302135
1630497981155,36738,255931,302127
1630497981165,36718,255879,302095
1630497981175,36703,255920,302054
1630497981185,36682,255865,302055
1630497981195,36662,255838,301994
1630497981205,36643,255846,302006
1630497981215,36630,255850,301986
1630497981225,36614,255829,301936
1630497981235,36603,255807,301939
1630497981245,36600,255821,301901
1630497981255,36595,255821,301886
1630497981265,36581,255850,301951
1630497981275,36580,255824,301881
1630497981285,36577,255863,301931
1630497981295,36563,255847,301871
1630497981305,36569,255848,301896
1630497981315,36567,255873,301905
1630497981325,36562,255868,301873
1630497981335,36569,255835,301885
1630497981345,36571,255894,301916
1630497981355,36567,255892,301862
1630497981365,36569,255864,301863
1630497981375,36570,255863,301884
1630497981385,36575,255922,301890
1630497981395,36584,255906,301883
1630497981405,36594,255917,301897
1630497981415,36608,255917,301927
1630497981425,36614,255993,301962
1630497981435,36619,255981,301935
1630497981445,36622,255978,301940
1630497981455,36644,256018,301984
1630497981465,36661,256011,302021
1630497981475,36672,256070,302005
1630497981485,36682,256043,302024
1630497981495,36705,256104,302065
1630497981505,36710,256135,302071
1630497981515,36733,256146,302099
1630497981525,36749,256115,302122
1630497981535,36765,256178,302129
1630497981545,36779,256193,302127
1630497981555,36798,256199,302163
1630497981565,36805,256245,302178
1630497981575,36817,256276,302202
1630497981585,36845,256252,302212
1630497981595,36851,256301,302236
1630497981605,36879,256332,302250
1630497981615,36899,256331,302292
1630497981625,36930,256359,302331
1630497981635,36935,256312,302339
1630497981645,36938,256245,302309
1630497981655,36927,256191,302344
1630497981665,36904,256168,302326
1630497981675,36897,256145,302328
1630497981685,36872,256061,302297
1630497981695,36851,256016,302309
1630497981705,36843,256037,302306
1630497981715,36816,256002,302297
1630497981725,36811,255991,302311
1630497981735,36792,256001,302282
1630497981745,36778,256011,302281
1630497981755,36777,256011,302284
1630497981765,36751,255964,302290
1630497981775,36739,255945,302278
1630497981785,36715,255931,302264
1630497981795,36698,255894,302234
1630497981805,36676,255832,302144
1630497981815,36650,255854,302139
1630497981825,36630,255883,302125
1630497981835,36619,255867,302119
1630497981845,36604,255896,302093
1630497981855,36597,255914,302071
1630497981865,36589,255906,302087
1630497981875,36585,255918,302054
1630497981885,36583,255881,302032
1630497981895,36596,255931,302027
1630497981905,36590,255900,302023
1630497981915,36589,255884,302055
1630497981925,36580,255882,302044
1630497981935,36585,255910,302033
1630497981945,36585,255895,302018
1630497981955,36589,255904,302080
1630497981965,36602,255948,302071
1630497981975,36611,255954,302101
1630497981985,36622,255993,302092
1630497981995,36638,255970,302171
1630497982005,36646,255993,302150
1630497982015,36662,256008,302184
1630497982025,36675,256048,302218
1630497982035,36697,256035,302274
1630497982045,36722,256080,302271
1630497982055,36720,256079,302309
1630497982065,36745,256096,302289
1630497982075,36748,256103,302342
1630497982085,36768,256159,302352
1630497982095,36784,256175,302376
1630497982105,36799,256223,302377
1630497982115,36819,256275,302400
1630497982125,36832,256261,302388
1630497982135,36839,256270,302467
1630497982145,36857,256288,302468
1630497982155,36874,256316,302461
1630497982165,36888,256348,302493
1630497982175,36910,256337,302503
1630497982185,36928,256399,302523
1630497982195,36953,256404,302572
1630497982205,36981,256384,302651
1630497982215,37000,256383,302646
1630497982225,37005,256339,302642
1630497982235,36992,256266,302713
1630497982245,36979,256299,302664
1630497982255,36975,256211,302667
1630497982265,36952,256190,302655
1630497982275,36931,256172,302663
1630497982285,36914,256137,302638
1630497982295,36891,256109,302616
1630497982305,36880,256082,302642
1630497982315,36858,256080,302651
1630497982325,36851,256083,302617
1630497982335,36837,256044,302658
1630497982345,36828,256052,302639
1630497982355,36818,256055,302619
1630497982365,36797,255956,302638
1630497982375,36799,256019,302624
1630497982385,36787,256011,302655
1630497982395,36776,256019,302668
1630497982405,36759,256001,302624
1630497982415,36764,256003,302636
1630497982425,36766,256004,302603
1630497982435,36775,256020,302655
1630497982445,36774,256046,302656
1630497982455,36777,256031,302669
1630497982465,36777,256075,302713
1630497982475,36772,256032,302656
1630497982485,36780,256040,302668
1630497982495,36781,256022,302650
1630497982505,36784,256031,302690
1630497982515,36789,256077,302731
1630497982525,36791,256059,302737
1630497982535,36787,256084,302721
1630497982545,36794,256081,302716
1630497982555,36789,256074,302736
1630497982565,36803,256094,302720
1630497982575,36800,256099,302737
1630497982585,36811,256129,302733
1630497982595,36807,256129,302781
1630497982605,36818,256136,302741
1630497982615,36832,256163,302780
1630497982625,36835,256201,302791
1630497982635,36864,256211,302777
1630497982645,36855,256248,302753
1630497982655,36870,256243,302788
1630497982665,36885,256272,302809
1630497982675,36889,256291,302817
1630497982685,36901,256294,302829
1630497982695,36906,256288,302876
1630497982705,36924,256348,302816
1630497982715,36938,256360,302866
1630497982725,36951,256392,302834
1630497982735,36960,256413,302856
1630497982745,36980,256413,302859
1630497982755,36996,256451,302891
1630497982765,37012,256491,302887
1630497982775,37027,256510,302921
1630497982785,37043,256485,302994
1630497982795,37072,256533,302990
1630497982805,37098,256496,303012
1630497982815,37117,256501,303023
1630497982825,37101,256407,303042
1630497982835,37088,256358,303036
1630497982845,37076,256294,303046
1630497982855,37055,256294,303016
1630497982865,37030,256284,303014
1630497982875,37017,256232,303042
1630497982885,36987,256225,302996
1630497982895,36956,256181,302981
1630497982905,36940,256165,302971
1630497982915,36919,256122,302983
1630497982925,36902,256113,302972
1630497982935,36880,256142,302955
1630497982945,36866,256083,302916
1630497982955,36841,256053,302971
1630497982965,36826,256054,302916
1630497982975,36803,256016,302871
1630497982985,36789,256028,302885
1630497982995,36771,255995,302862
1630497983005,36755,255976,302889
1630497983015,36755,255987,302822
1630497983025,36739,255998,302840
1630497983035,36723,256012,302818
1630497983045,36740,256013,302850
1630497983055,36721,256025,302828
1630497983065,36724,256025,302831
1630497983075,36725,255996,302838
1630497983085,36725,256010,302835
1630497983095,36722,256006,302844
1630497983105,36722,256045,302839
1630497983115,36716,256027,302849
1630497983125,36715,256051,302837
1630497983135,36710,256076,302852
1630497983145,36716,256024,302860
1630497983155,36711,256057,302790
1630497983165,36706,256109,302868
1630497983175,36719,256098,302867
1630497983185,36718,256077,302801
1630497983195,36730,256113,302832
1630497983205,36749,256085,302841
1630497983215,36738,256144,302834
1630497983225,36748,256154,302875
1630497983235,36758,256164,302867
1630497983245,36763,256167,302887
1630497983255,36781,256224,302882
1630497983265,36791,256222,302887
1630497983275,36805,256269,302858
1630497983285,36812,256264,302892
1630497983295,36834,256279,302895
1630497983305,36840,256285,302912
1630497983315,36859,256326,302914
1630497983325,36862,256351,302946
1630497983335,36887,256392,302984
1630497983345,36888,256390,302966
1630497983355,36901,256421,302948
1630497983365,36926,256424,302992
1630497983375,36939,256460,302983
1630497983385,36953,256517,303015
1630497983395,36968,256493,302985
1630497983405,36992,256518,303007
1630497983415,37020,256567,303089
1630497983425,37041,256593,303131
1630497983435,37062,256510,303113
1630497983445,37059,256469,303150
1630497983455,37042,256424,303146
1630497983465,37037,256388,303092
1630497983475,37007,256369,303108
1630497983485,36986,256334,303106
1630497983495,36973,256293,303078
1630497983505,36947,256278,303074
1630497983515,36932,256218,303108
1630497983525,36928,256257,303068
1630497983535,36898,256206,303082
1630497983545,36878,256186,303097
1630497983555,36868,256148,303034
1630497983565,36853,256158,303122
1630497983575,36832,256159,303094
1630497983585,36818,256158,303033
1630497983595,36808,256114,303065
1630497983605,36790,256103,303052
1630497983615,36777,256108,302991
1630497983625,36771,256112,303010
1630497983635,36762,256102,303033
1630497983645,36755,256088,303005
1630497983655,36750,256130,303038
1630497983665,36753,256107,303026
1630497983675,36745,256080,302986
1630497983685,36743,256120,303008
1630497983695,36733,256103,302990
1630497983705,36744,256080,303014
1630497983715,36734,256103,303024
1630497983725,36729,256089,302991
1630497983735,36727,256126,302995
1630497983745,36730,256104,302974
1630497983755,36723,256118,302986
1630497983765,36724,256104,302971
1630497983775,36726,256081,302996
1630497983785,36727,256139,302969
1630497983795,36733,256157,302994
1630497983805,36730,256135,302950
1630497983815,36742,256141,302960
1630497983825,36741,256148,302967
1630497983835,36751,256166,303002
1630497983845,36759,256232,303003
1630497983855,36775,256214,302998
1630497983865,36773,256226,303050
1630497983875,36778,256265,303045
1630497983885,36794,256251,302991
1630497983895,36811,256297,303058
1630497983905,36823,256274,303044
1630497983915,36830,256367,303088
1630497983925,36852,256358,303078
1630497983935,36865,256410,303090
1630497983945,36878,256393,303110
1630497983955,36893,256433,303099
1630497983965,36898,256461,303084
1630497983975,36912,256500,303170
1630497983985,36941,256501,303143
1630497983995,36957,256525,303115
1630497984005,36967,256551,303170
1630497984015,36991,256525,303150
1630497984025,36990,256573,303169
1630497984035,37010,256597,303189
1630497984045,37024,256607,303179
1630497984055,37041,256638,303211
1630497984065,37060,256670,303242
1630497984075,37086,256668,303257
1630497984085,37119,256674,303289
1630497984095,37130,256664,303302
1630497984105,37133,256602,303331
1630497984115,37119,256570,303306
1630497984125,37109,256500,303302
1630497984135,37077,256474,303341
1630497984145,37058,256466,303296
1630497984155,37054,256455,303284
1630497984165,37032,256408,303317
1630497984175,37024,256399,303284
1630497984185,37007,256401,303252
1630497984195,36987,256374,303263
1630497984205,36974,256338,303284
1630497984215,36959,256325,303235
1630497984225,36953,256307,303251
1630497984235,36938,256316,303255
1630497984245,36931,256296,303217
1630497984255,36928,256317,303227
1630497984265,36909,256264,303218
1630497984275,36897,256315,303228
1630497984285,36910,256297,303222
1630497984295,36903,256311,303270
1630497984305,36907,256317,303233
1630497984315,36908,256331,303205
1630497984325,36899,256368,303229
1630497984335,36911,256328,303263
1630497984345,36917,256339,303247
1630497984355,36919,256352,303255
1630497984365,36912,256319,303236
1630497984375,36921,256352,303285
1630497984385,36918,256372,303248
1630497984395,36922,256379,303262
1630497984405,36918,256346,303274
1630497984415,36926,256368,303253
1630497984425,36930,256405,303284
1630497984435,36929,256369,303301
1630497984445,36933,256409,303292
1630497984455,36932,256413,303267
1630497984465,36954,256440,303260
1630497984475,36945,256439,303272
1630497984485,36959,256467,303288
1630497984495,36950,256504,303307
1630497984505,36979,256473,303292
1630497984515,36977,256529,303309
1630497984525,36992,256494,303298
1630497984535,37007,256494,303311
1630497984545,37002,256533,303323
1630497984555,37026,256577,303302
1630497984565,37037,256600,303328
1630497984575,37048,256617,303341
1630497984585,37072,256649,303354
1630497984595,37079,256652,303352
1630497984605,37100,256664,303415
1630497984615,37111,256696,303421
1630497984625,37123,256723,303393
1630497984635,37137,256745,303436
1630497984645,37170,256752,303432
1630497984655,37181,256813,303427
1630497984665,37195,256852,303458
1630497984675,37214,256797,303440
1630497984685,37223,256851,303480
1630497984695,37229,256895,303474
1630497984705,37262,256908,303548
1630497984715,37275,256920,303555
1630497984725,37306,256991,303616
1630497984735,37336,256946,303637
1630497984745,37357,256948,303697
1630497984755,37377,256941,303661
1630497984765,37380,256902,303713
1630497984775,37379,256923,303726
1630497984785,37358,256824,303708
1630497984795,37347,256767,303705
1630497984805,37345,256800,303716
1630497984815,37316,256779,303684
1630497984825,37306,256741,303676
1630497984835,37286,256713,303630
1630497984845,37267,256699,303678
1630497984855,37259,256700,303660
1630497984865,37251,256680,303649
1630497984875,37244,256712,303635
1630497984885,37236,256687,303654
1630497984895,37229,256684,303652
1630497984905,37227,256676,303665
1630497984915,37226,256666,303639
1630497984925,37214,256633,303567
1630497984935,37206,256677,303598
1630497984945,37199,256685,303636
1630497984955,37213,256678,303624
1630497984965,37212,256701,303624
1630497984975,37211,256698,303634
1630497984985,37219,256716,303661
1630497984995,37221,256733,303654
1630497985005,37229,256739,303615
1630497985015,37230,256756,303654
1630497985025,37229,256753,303634
1630497985035,37247,256747,303649
1630497985045,37239,256762,303682
1630497985055,37240,256758,303689
1630497985065,37245,256761,303686
1630497985075,37248,256765,303664
1630497985085,37253,256812,303665
1630497985095,37249,256810,303634
1630497985105,37248,256797,303682
1630497985115,37253,256824,303667
1630497985125,37271,256812,303664
1630497985135,37263,256807,303708
1630497985145,37273,256861,303708
1630497985155,37285,256909,303656
1630497985165,37292,256916,303679
1630497985175,37299,256881,303694
1630497985185,37308,256962,303698
1630497985195,37321,256974,303697
1630497985205,37330,256962,303712
1630497985215,37348,257006,303673
1630497985225,37363,257043,303705
1630497985235,37377,257028,303756
1630497985245,37383,257097,303775
1630497985255,37391,257101,303751
1630497985265,37400,257084,303776
1630497985275,37407,257136,303732
1630497985285,37437,257152,303774
1630497985295,37444,257156,303730
1630497985305,37463,257170,303733
1630497985315,37476,257207,303804
1630497985325,37482,257249,303790
1630497985335,37491,257258,303771
1630497985345,37517,257308,303766
1630497985355,37524,257278,303796
1630497985365,37541,257344,303831
1630497985375,37572,257318,303899
1630497985385,37591,257338,303906
1630497985395,37609,257279,303904
1630497985405,37611,257290,303922
1630497985415,37610,257261,303939
1630497985425,37592,257198,303916
1630497985435,37578,257131,303920
1630497985445,37549,257126,303903
1630497985455,37540,257106,303896
1630497985465,37536,257053,303817
1630497985475,37516,257065,303899
1630497985485,37485,257060,303824
1630497985495,37485,257016,303824
1630497985505,37469,257016,303862
1630497985515,37458,257051,303835
1630497985525,37450,257008,303851
1630497985535,37437,257007,303824
1630497985545,37425,256973,303849
1630497985555,37415,257004,303801
1630497985565,37403,257031,303793
1630497985575,37398,257011,303822
1630497985585,37394,256983,303808
1630497985595,37380,257004,303790
1630497985605,37398,256996,303795
1630497985615,37398,257025,303810
1630497985625,37398,257052,303816
1630497985635,37401,257030,303810
1630497985645,37398,257044,303806
1630497985655,37396,257048,303799
1630497985665,37407,257057,303854
1630497985675,37405,257052,303832
1630497985685,37401,257078,303849
1630497985695,37400,257046,303804
1630497985705,37403,257046,303851
1630497985715,37402,257088,303856
1630497985725,37405,257058,303837
1630497985735,37416,257131,303868
1630497985745,37422,257110,303859
1630497985755,37416,257115,303876
1630497985765,37425,257126,303836
1630497985775,37431,257168,303856
1630497985785,37438,257160,303852
1630497985795,37453,257134,303868
1630497985805,37458,257145,303849
1630497985815,37463,257216,303860
1630497985825,37471,257258,303867
1630497985835,37469,257266,303893
1630497985845,37489,257236,303874
1630497985855,37492,257250,303890
1630497985865,37499,257271,303901
1630497985875,37509,257302,303886
1630497985885,37518,257295,303895
1630497985895,37530,257339,303915
1630497985905,37551,257380,303898
1630497985915,37559,257420,303871
1630497985925,37568,257443,303876
1630497985935,37580,257419,303900
1630497985945,37578,257473,303900
1630497985955,37608,257481,303890
1630497985965,37618,257517,303880
1630497985975,37637,257531,303897
1630497985985,37642,257516,303915
1630497985995,37658,257555,303944
1630497986005,37681,257623,303962
1630497986015,37712,257581,303994
1630497986025,37731,257601,304023
1630497986035,37739,257567,304062
1630497986045,37740,257468,304031
1630497986055,37727,257464,304053
1630497986065,37708,257426,304050
1630497986075,37696,257373,304006
1630497986085,37681,257371,304017
1630497986095,37664,257337,303995
1630497986105,37636,257324,303986
1630497986115,37626,257322,303971
1630497986125,37605,257306,303950
1630497986135,37589,257294,303984
1630497986145,37576,257250,303941
1630497986155,37563,257290,303970
1630497986165,37554,257268,303964
1630497986175,37545,257258,303944
1630497986185,37529,257233,303932
1630497986195,37523,257187,303934
1630497986205,37514,257243,303920
1630497986215,37503,257230,303890
1630497986225,37493,257239,303895
1630497986235,37500,257232,303890
1630497986245,37492,257271,303881
1630497986255,37485,257299,303888
1630497986265,37501,257262,303909
1630497986275,37481,257253,303872
1630497986285,37488,257246,303846
1630497986295,37484,257291,303898
1630497986305,37485,257271,303868
1630497986315,37482,257272,303879
1630497986325,37482,257290,303890
1630497986335,37486,257286,303898
1630497986345,37483,257294,303876
1630497986355,37486,257324,303824
1630497986365,37481,257298,303864
1630497986375,37485,257308,303889
1630497986385,37486,257344,303866
1630497986395,37502,257302,303856
1630497986405,37493,257352,303859
1630497986415,37499,257406,303840
1630497986425,37511,257407,303862
1630497986435,37526,257423,303877
1630497986445,37514,257390,303886
1630497986455,37540,257426,303853
1630497986465,37542,257430,303859
1630497986475,37549,257482,303876
1630497986485,37563,257499,303836
1630497986495,37566,257509,303892
1630497986505,37586,257542,303915
1630497986515,37588,257524,303914
1630497986525,37601,257583,303910
1630497986535,37614,257594,303903
1630497986545,37631,257586,303945
1630497986555,37643,257629,303914
1630497986565,37658,257683,303934
1630497986575,37672,257644,303950
1630497986585,37681,257638,303953
1630497986595,37700,257707,303945
1630497986605,37721,257719,303986
1630497986615,37728,257734,303955
1630497986625,37743,257789,303992
1630497986635,37769,257784,304037
1630497986645,37795,257779,304075
1630497986655,37812,257767,304079
1630497986665,37820,257736,304101
1630497986675,37821,257679,304120
1630497986685,37809,257705,304090
1630497986695,37792,257595,304061
1630497986705,37780,257578,304052
1630497986715,37751,257521,304076
1630497986725,37722,257540,304031
1630497986735,37717,257481,304040
1630497986745,37688,257468,304027
1630497986755,37672,257472,303999
1630497986765,37675,257440,303968
1630497986775,37656,257431,303997
1630497986785,37641,257445,303970
1630497986795,37635,257406,303992
1630497986805,37618,257390,303986
1630497986815,37610,257421,303949
1630497986825,37596,257418,303946
1630497986835,37591,257442,303953
1630497986845,37584,257446,303972
1630497986855,37587,257492,303932
1630497986865,37581,257462,303957
1630497986875,37593,257461,303960
1630497986885,37587,257437,304000
1630497986895,37596,257453,303971
1630497986905,37593,257458,303957
1630497986915,37592,257444,303916
1630497986925,37602,257505,303957
1630497986935,37601,257528,303955
1630497986945,37600,257461,303957
1630497986955,37586,257476,303929
1630497986965,37589,257491,303940
1630497986975,37587,257475,303961
1630497986985,37590,257485,303939
1630497986995,37588,257523,303962
1630497987005,37597,257464,303955
1630497987015,37592,257497,303962
1630497987025,37600,257501,303935
1630497987035,37605,257545,303912
1630497987045,37607,257555,303932
1630497987055,37618,257589,303954
1630497987065,37622,257568,303959
1630497987075,37631,257574,303972
1630497987085,37634,257604,303958
1630497987095,37640,257583,303962
1630497987105,37641,257632,303934
1630497987115,37657,257637,303967
1630497987125,37670,257662,303996
1630497987135,37674,257681,303977
1630497987145,37687,257690,303984
1630497987155,37691,257697,303981
1630497987165,37708,257686,303996
1630497987175,37725,257766,303996
1630497987185,37735,257752,304020
1630497987195,37746,257748,304013
1630497987205,37753,257785,304015
1630497987215,37770,257794,304026
1630497987225,37781,257840,304030
1630497987235,37796,257823,304006
1630497987245,37819,257920,304044
1630497987255,37843,257844,304086
1630497987265,37860,257819,304102
1630497987275,37876,257838,304132
1630497987285,37867,257798,304113
1630497987295,37861,257734,304151
1630497987305,37841,257685,304121
1630497987315,37817,257701,304106
1630497987325,37798,257610,304078
1630497987335,37774,257595,304040
1630497987345,37749,257554,304046
1630497987355,37733,257535,304009
1630497987365,37716,257530,304005
1630497987375,37698,257529,304008
1630497987385,37690,257499,303949
1630497987395,37668,257510,303960
1630497987405,37657,257493,303962
1630497987415,37640,257484,303982
1630497987425,37661,257461,303919
1630497987435,37642,257494,303946
1630497987445,37628,257500,303910
1630497987455,37616,257453,303902
1630497987465,37620,257506,303926
1630497987475,37617,257515,303919
1630497987485,37619,257508,303937
1630497987495,37619,257467,303949
1630497987505,37615,257531,303966
1630497987515,37616,257508,303911
1630497987525,37622,257499,303913
1630497987535,37611,257515,303923
1630497987545,37605,257509,303927
1630497987555,37601,257480,303898
1630497987565,37604,257501,303919
1630497987575,37603,257505,303892
1630497987585,37593,257496,303874
1630497987595,37595,257511,303907
1630497987605,37593,257515,303862
1630497987615,37597,257488,303878
1630497987625,37604,257509,303923
1630497987635,37595,257514,303915
1630497987645,37599,257511,303886
1630497987655,37603,257495,303867
1630497987665,37603,257519,303912
1630497987675,37617,257555,303897
1630497987685,37612,257506,303861
1630497987695,37614,257555,303836
1630497987705,37609,257553,303869
1630497987715,37612,257585,303870
1630497987725,37615,257590,303866
1630497987735,37617,257550,303845
1630497987745,37626,257578,303865
1630497987755,37626,257586,303825
1630497987765,37632,257629,303843
1630497987775,37631,257615,303846
1630497987785,37637,257577,303835
1630497987795,37648,257637,303828
1630497987805,37653,257658,303852
1630497987815,37654,257662,303844
1630497987825,37661,257685,303842
1630497987835,37674,257721,303862
1630497987845,37695,257663,303840
1630497987855,37712,257675,303903
1630497987865,37715,257593,303848
1630497987875,37697,257586,303892
1630497987885,37682,257500,303829
1630497987895,37668,257450,303812
1630497987905,37630,257404,303805
1630497987915,37601,257371,303765
1630497987925,37582,257322,303743
1630497987935,37550,257327,303743
1630497987945,37514,257235,303712
1630497987955,37495,257203,303694
1630497987965,37469,257210,303660
1630497987975,37446,257191,303666
1630497987985,37429,257184,303659
1630497987995,37399,257156,303640
1630497988005,37400,257100,303639
1630497988015,37371,257068,303561
1630497988025,37360,257065,303615
1630497988035,37341,257106,303612
1630497988045,37330,257096,303586
1630497988055,37326,257065,303562
1630497988065,37318,257094,303594
1630497988075,37302,257062,303550
1630497988085,37303,257085,303573
1630497988095,37294,257077,303532
1630497988105,37285,257077,303561
1630497988115,37279,257088,303547
1630497988125,37272,257071,303558
1630497988135,37264,257025,303546
1630497988145,37253,257088,303536
1630497988155,37244,257064,303539
1630497988165,37248,257080,303507
1630497988175,37229,257052,303522
1630497988185,37233,257030,303497
1630497988195,37220,257013,303464
1630497988205,37208,257032,303464
1630497988215,37201,257059,303417
1630497988225,37204,257049,303466
1630497988235,37209,257012,303451
1630497988245,37192,257016,303459
1630497988255,37194,257052,303446
1630497988265,37194,257100,303413
1630497988275,37196,257033,303437
1630497988285,37191,257053,303418
1630497988295,37195,257067,303444
1630497988305,37200,257055,303410
1630497988315,37200,257101,303398
1630497988325,37207,257144,303393
1630497988335,37206,257106,303434
1630497988345,37221,257119,303431
1630497988355,37231,257217,303437
1630497988365,37245,257215,303416
1630497988375,37247,257233,303476
1630497988385,37254,257235,303516
1630497988395,37271,257240,303489
1630497988405,37293,257301,303506
1630497988415,37306,257354,303546
1630497988425,37323,257358,303592
1630497988435,37341,257400,303618
1630497988445,37365,257410,303691
1630497988455,37386,257398,303677
1630497988465,37390,257307,303710
1630497988475,37370,257300,303697
1630497988485,37354,257206,303687
1630497988495,37330,257161,303650
1630497988505,37297,257148,303597
1630497988515,37269,257109,303587
1630497988525,37237,257034,303574
1630497988535,37207,256989,303565
1630497988545,37179,256992,303541
1630497988555,37153,256946,303508
1630497988565,37130,256938,303511
1630497988575,37099,256896,303478
1630497988585,37075,256866,303425
1630497988595,37055,256893,303450
1630497988605,37035,256817,303444
1630497988615,37016,256802,303405
1630497988625,37000,256796,303410
1630497988635,36988,256768,303397
1630497988645,36965,256767,303350
1630497988655,36943,256798,303330
1630497988665,36936,256769,303370
1630497988675,36929,256759,303330
1630497988685,36926,256756,303324
1630497988695,36913,256762,303311
1630497988705,36911,256763,303349
1630497988715,36904,256731,303313
1630497988725,36883,256745,303322
1630497988735,36887,256729,303303
1630497988745,36878,256755,303282
1630497988755,36872,256708,303291
1630497988765,36866,256741,303295
1630497988775,36856,256699,303267
1630497988785,36854,256702,303295
1630497988795,36847,256703,303288
1630497988805,36848,256730,303276
1630497988815,36838,256729,303276
1630497988825,36842,256715,303271
1630497988835,36827,256764,303241
1630497988845,36840,256743,303244
1630497988855,36833,256739,303239
1630497988865,36833,256721,303263
1630497988875,36839,256785,303278
1630497988885,36848,256762,303293
1630497988895,36842,256795,303266
1630497988905,36854,256807,303219
1630497988915,36853,256801,303246
1630497988925,36857,256781,303225
1630497988935,36870,256821,303249
1630497988945,36872,256839,303274
1630497988955,36881,256846,303257
1630497988965,36891,256848,303299
1630497988975,36901,256889,303314
1630497988985,36905,256935,303312
1630497988995,36930,256943,303319
1630497989005,36936,256947,303322
1630497989015,36957,257021,303317
1630497989025,36970,257009,303317
1630497989035,36982,257013,303375
1630497989045,37008,256969,303426
1630497989055,37008,256913,303392
1630497989065,37005,256883,303380
1630497989075,36980,256869,303384
1630497989085,36952,256762,303370
1630497989095,36930,256726,303350
1630497989105,36898,256702,303319
1630497989115,36868,256664,303298
1630497989125,36844,256593,303295
1630497989135,36811,256592,303270
1630497989145,36795,256584,303249
1630497989155,36769,256490,303199
1630497989165,36755,256495,303221
1630497989175,36725,256473,303208
1630497989185,36714,256468,303209
1630497989195,36688,256427,303214
1630497989205,36669,256451,303194
1630497989215,36659,256439,303183
1630497989225,36638,256391,303206
1630497989235,36630,256396,303128
1630497989245,36616,256371,303112
1630497989255,36609,256379,303119
1630497989265,36606,256371,303134
1630497989275,36600,256393,303149
1630497989285,36595,256373,303131
1630497989295,36594,256367,303117
1630497989305,36591,256385,303130
1630497989315,36582,256360,303151
1630497989325,36573,256369,303159
1630497989335,36577,256351,303112
1630497989345,36572,256315,303099
1630497989355,36566,256348,303134
1630497989365,36566,256349,303112
1630497989375,36560,256317,303096
1630497989385,36556,256347,303102
1630497989395,36559,256343,303120
1630497989405,36554,256325,303108
1630497989415,36552,256347,303122
1630497989425,36564,256342,303112
1630497989435,36565,256307,303114
1630497989445,36567,256366,303091
1630497989455,36565,256396,303100
1630497989465,36582,256375,303094
1630497989475,36582,256404,303109
1630497989485,36597,256440,303162
1630497989495,36606,256451,303138
1630497989505,36611,256400,303155
1630497989515,36615,256454,303152
1630497989525,36622,256448,303202
1630497989535,36638,256494,303165
1630497989545,36648,256518,303176
1630497989555,36660,256520,303194
1630497989565,36670,256540,303179
1630497989575,36686,256539,303196
1630497989585,36695,256588,303245
1630497989595,36705,256570,303216
1630497989605,36713,256639,303226
1630497989615,36735,256595,303241
1630497989625,36750,256674,303240
1630497989635,36777,256663,303249
1630497989645,36792,256647,303299
1630497989655,36801,256601,303286
1630497989665,36794,256585,303339
1630497989675,36782,256507,303296
1630497989685,36749,256455,303298
1630497989695,36735,256425,303263
1630497989705,36700,256372,303266
1630497989715,36675,256346,303235
1630497989725,36655,256307,303232
1630497989735,36634,256293,303227
1630497989745,36612,256294,303189
1630497989755,36594,256263,303207
1630497989765,36577,256233,303207
1630497989775,36564,256215,303186
1630497989785,36549,256209,303153
1630497989795,36542,256201,303180
1630497989805,36522,256171,303147
1630497989815,36505,256208,303159
1630497989825,36504,256167,303121
1630497989835,36480,256217,303130
1630497989845,36491,256193,303130
1630497989855,36488,256166,303125
1630497989865,36477,256181,303154
1630497989875,36488,256175,303137
1630497989885,36481,256125,303139
1630497989895,36482,256155,303152
1630497989905,36478,256190,303137
1630497989915,36485,256169,303147
1630497989925,36480,256202,303114
1630497989935,36485,256168,303131
1630497989945,36481,256158,303115
1630497989955,36484,256155,303107
1630497989965,36479,256204,303126
1630497989975,36484,256162,303125
1630497989985,36489,256175,303159
1630497989995,36478,256190,303147
1630497990005,36484,256208,303164
1630497990015,36495,256229,303160
1630497990025,36484,256216,303148
1630497990035,36499,256209,303168
1630497990045,36507,256234,303152
1630497990055,36516,256242,303156
1630497990065,36525,256279,303205
1630497990075,36533,256291,303185
1630497990085,36538,256317,303206
1630497990095,36548,256328,303227
1630497990105,36571,256333,303226
1630497990115,36579,256307,303234
1630497990125,36586,256389,303224
1630497990135,36594,256357,303247
1630497990145,36607,256364,303224
1630497990155,36623,256444,303263
1630497990165,36645,256444,303264
1630497990175,36637,256445,303276
1630497990185,36651,256473,303260
1630497990195,36665,256518,303331
1630497990205,36681,256502,303322
1630497990215,36697,256540,303320
1630497990225,36719,256531,303361
1630497990235,36750,256558,303435
1630497990245,36759,256550,303422
1630497990255,36756,256500,303427
1630497990265,36745,256458,303417
1630497990275,36737,256404,303452
1630497990285,36714,256332,303415
1630497990295,36689,256353,303406
1630497990305,36676,256277,303358
1630497990315,36652,256284,303364
1630497990325,36621,256230,303350
1630497990335,36612,256237,303356
1630497990345,36593,256213,303320
1630497990355,36577,256206,303341
1630497990365,36564,256184,303300
1630497990375,36552,256183,303309
1630497990385,36548,256161,303339
1630497990395,36542,256160,303343
1630497990405,36528,256171,303314
1630497990415,36518,256137,303329
1630497990425,36504,256122,303306
1630497990435,36494,256145,303341
1630497990445,36500,256151,303308
1630497990455,36496,256150,303308
1630497990465,36494,256174,303309
1630497990475,36491,256178,303302
1630497990485,36508,256159,303306
1630497990495,36506,256201,303286
1630497990505,36502,256185,303301
1630497990515,36509,256179,303317
1630497990525,36501,256212,303296
1630497990535,36510,256199,303292
1630497990545,36505,256224,303296
1630497990555,36510,256169,303335
1630497990565,36502,256207,303313
1630497990575,36511,256189,303345
1630497990585,36511,256237,303344
1630497990595,36516,256216,303353
1630497990605,36518,256237,303331
1630497990615,36522,256263,303337
1630497990625,36535,256261,303319
1630497990635,36538,256263,303332
1630497990645,36553,256264,303336
1630497990655,36556,256282,303376
1630497990665,36567,256319,303349
1630497990675,36575,256345,303337
1630497990685,36580,256351,303356
1630497990695,36599,256357,303353
1630497990705,36599,256398,303398
1630497990715,36617,256452,303391
1630497990725,36629,256403,303414
1630497990735,36638,256425,303393
1630497990745,36656,256455,303422
1630497990755,36674,256499,303424
1630497990765,36684,256496,303462
1630497990775,36701,256521,303427
1630497990785,36728,256563,303414
1630497990795,36727,256592,303458
1630497990805,36744,256600,303498
1630497990815,36767,256618,303493
1630497990825,36796,256667,303512
1630497990835,36817,256636,303542
1630497990845,36831,256633,303585
1630497990855,36829,256607,303600
1630497990865,36825,256561,303619
1630497990875,36807,256526,303589
1630497990885,36786,256482,303579
1630497990895,36765,256450,303556
1630497990905,36754,256411,303561
1630497990915,36735,256365,303519
1630497990925,36707,256353,303537
1630497990935,36690,256321,303543
1630497990945,36683,256291,303580
1630497990955,36669,256275,303523
1630497990965,36642,256333,303563
1630497990975,36642,256258,303509
1630497990985,36630,256291,303540
1630497990995,36606,256275,303503
1630497991005,36593,256220,303504
1630497991015,36588,256230,303499
1630497991025,36573,256206,303466
1630497991035,36583,256226,303490
1630497991045,36568,256245,303450
1630497991055,36561,256215,303441
1630497991065,36556,256281,303458
1630497991075,36565,256238,303461
1630497991085,36561,256212,303487
1630497991095,36562,256224,303460
1630497991105,36564,256246,303499
1630497991115,36566,256268,303496
1630497991125,36564,256288,303489
1630497991135,36560,256291,303491
1630497991145,36573,256306,303453
1630497991155,36570,256288,303448
1630497991165,36573,256268,303458
1630497991175,36571,256298,303464
1630497991185,36578,256317,303454
1630497991195,36576,256282,303441
1630497991205,36580,256340,303491
1630497991215,36591,256346,303459
1630497991225,36594,256362,303524
1630497991235,36611,256349,303500
1630497991245,36616,256376,303513
1630497991255,36630,256390,303506
1630497991265,36643,256421,303536
1630497991275,36654,256470,303581
1630497991285,36651,256415,303526
1630497991295,36663,256501,303573
1630497991305,36681,256460,303570
1630497991315,36690,256539,303582
1630497991325,36707,256518,303604
1630497991335,36719,256571,303588
1630497991345,36731,256578,303595
1630497991355,36755,256575,303631
1630497991365,36770,256633,303641
1630497991375,36780,256649,303622
1630497991385,36798,256689,303611
1630497991395,36816,256711,303655
1630497991405,36835,256745,303680
1630497991415,36851,256773,303715
1630497991425,36866,256770,303670
1630497991435,36906,256742,303778
1630497991445,36936,256822,303779
1630497991455,36947,256787,303749
1630497991465,36946,256766,303759
1630497991475,36946,256707,303810
1630497991485,36934,256640,303760
1630497991495,36925,256655,303790
1630497991505,36899,256613,303814
1630497991515,36880,256614,303792
1630497991525,36870,256548,303750
1630497991535,36858,256544,303730
1630497991545,36835,256519,303782
1630497991555,36831,256512,303749
1630497991565,36819,256554,303756
1630497991575,36807,256536,303782
1630497991585,36796,256490,303738
1630497991595,36796,256513,303752
1630497991605,36775,256522,303743
1630497991615,36770,256488,303739
1630497991625,36764,256479,303700
1630497991635,36747,256506,303713
1630497991645,36753,256505,303728
1630497991655,36752,256473,303748
1630497991665,36753,256508,303713
1630497991675,36756,256517,303715
1630497991685,36756,256501,303747
1630497991695,36761,256485,303740
1630497991705,36770,256480,303739
1630497991715,36772,256547,303785
1630497991725,36775,256553,303789
1630497991735,36781,256525,303772
1630497991745,36788,256554,303777
1630497991755,36787,256589,303771
1630497991765,36798,256548,303791
1630497991775,36813,256576,303785
1630497991785,36812,256598,303792
1630497991795,36813,256581,303800
1630497991805,36808,256595,303762
1630497991815,36823,256614,303775
1630497991825,36832,256635,303809
1630497991835,36834,256665,303823
1630497991845,36844,256663,303794
1630497991855,36861,256682,303870
1630497991865,36876,256725,303850
1630497991875,36882,256738,303862
1630497991885,36896,256756,303885
1630497991895,36917,256794,303896
1630497991905,36935,256767,303866
1630497991915,36948,256808,303920
1630497991925,36965,256847,303905
1630497991935,36979,256859,303904
1630497991945,36995,256849,303956
1630497991955,37006,256882,303970
1630497991965,37027,256855,303917
1630497991975,37045,256879,303993
1630497991985,37053,256969,303986
1630497991995,37081,256973,303968
1630497992005,37090,257027,304004
1630497992015,37107,257008,304018
1630497992025,37127,257080,304004
1630497992035,37143,257106,304007
1630497992045,37165,257121,304038
1630497992055,37176,257136,304053
1630497992065,37206,257160,304107
1630497992075,37234,257199,304104
1630497992085,37253,257198,304172
1630497992095,37267,257163,304198
1630497992105,37286,257180,304207
1630497992115,37279,257079,304241
1630497992125,37273,257097,304222
1630497992135,37263,257033,304209
1630497992145,37251,257021,304177
1630497992155,37236,256997,304143
1630497992165,37226,257006,304198
1630497992175,37208,256986,304167
1630497992185,37201,256974,304156
1630497992195,37194,256921,304160
1630497992205,37185,256952,304131
1630497992215,37179,256908,304172
1630497992225,37172,256892,304136
1630497992235,37171,256919,304138
1630497992245,37156,256939,304128
1630497992255,37158,256899,304103
1630497992265,37146,256926,304137
1630497992275,37149,256925,304134
1630497992285,37148,256883,304124
1630497992295,37118,256890,304098
1630497992305,37134,256923,304118
1630497992315,37137,256899,304110
1630497992325,37137,256881,304081
1630497992335,37133,256874,304080
1630497992345,37134,256888,304085
1630497992355,37129,256894,304064
1630497992365,37134,256856,304068
1630497992375,37132,256893,304052
1630497992385,37139,256880,304035
1630497992395,37136,256882,304010
1630497992405,37145,256896,304041
1630497992415,37155,256905,304042
1630497992425,37142,256911,304028
1630497992435,37145,256917,304049
1630497992445,37156,256952,304085
1630497992455,37170,256936,304078
1630497992465,37175,256962,304053
1630497992475,37176,257003,304059
1630497992485,37191,256969,304092
1630497992495,37197,257014,304047
1630497992505,37209,257017,304083
1630497992515,37220,257027,304073
1630497992525,37228,257051,304060
1630497992535,37241,257068,304098
1630497992545,37247,257067,304088
1630497992555,37268,257083,304119
1630497992565,37273,257099,304093
1630497992575,37284,257094,304113
1630497992585,37290,257142,304115
1630497992595,37313,257114,304124
1630497992605,37319,257159,304102
1630497992615,37328,257174,304132
1630497992625,37342,257155,304097
1630497992635,37358,257171,304117
1630497992645,37377,257221,304139
1630497992655,37387,257259,304186
1630497992665,37398,257287,304128
1630497992675,37405,257292,304169
1630497992685,37422,257325,304182
1630497992695,37444,257340,304206
1630497992705,37460,257350,304164
1630497992715,37486,257345,304221
1630497992725,37514,257366,304276
1630497992735,37537,257390,304261
1630497992745,37540,257330,304323
1630497992755,37561,257328,304322
1630497992765,37549,257278,304311
1630497992775,37534,257271,304321
1630497992785,37518,257232,304337
1630497992795,37512,257211,304278
1630497992805,37502,257160,304287
1630497992815,37485,257170,304294
1630497992825,37476,257162,304265
1630497992835,37456,257147,304298
1630497992845,37459,257150,304281
1630497992855,37449,257088,304296
1630497992865,37443,257125,304277
1630497992875,37433,257158,304238
1630497992885,37421,257178,304251
1630497992895,37422,257098,304236
1630497992905,37406,257129,304243
1630497992915,37406,257102,304231
1630497992925,37401,257137,304213
1630497992935,37393,257134,304228
1630497992945,37399,257193,304240
1630497992955,37400,257146,304246
1630497992965,37401,257138,304216
1630497992975,37405,257133,304257
1630497992985,37406,257163,304260
1630497992995,37407,257154,304203
1630497993005,37407,257156,304230
1630497993015,37411,257165,304240
1630497993025,37418,257203,304276
1630497993035,37418,257160,304278
1630497993045,37422,257171,304259
1630497993055,37426,257176,304233
1630497993065,37432,257234,304247
1630497993075,37414,257233,304268
1630497993085,37427,257228,304244
1630497993095,37427,257233,304266
1630497993105,37438,257234,304268
1630497993115,37444,257277,304280
1630497993125,37455,257325,304282
1630497993135,37456,257285,304279
1630497993145,37465,257312,304277
1630497993155,37471,257365,304287
1630497993165,37481,257344,304320
1630497993175,37491,257369,304357
1630497993185,37493,257398,304312
1630497993195,37504,257444,304301
1630497993205,37514,257440,304318
1630497993215,37529,257421,304345
1630497993225,37532,257445,304328
1630497993235,37552,257456,304318
1630497993245,37561,257496,304331
1630497993255,37573,257515,304358
1630497993265,37583,257548,304330
1630497993275,37608,257559,304355
1630497993285,37617,257571,304345
1630497993295,37621,257553,304352
1630497993305,37640,257615,304366
1630497993315,37654,257640,304373
1630497993325,37657,257626,304407
1630497993335,37681,257653,304382
1630497993345,37701,257654,304435
1630497993355,37724,257711,304471
1630497993365,37741,257624,304483
1630497993375,37747,257636,304521
1630497993385,37747,257611,304505
1630497993395,37737,257589,304471
1630497993405,37717,257538,304453
1630497993415,37712,257513,304477
1630497993425,37685,257489,304461
1630497993435,37662,257454,304417
1630497993445,37648,257410,304420
1630497993455,37621,257404,304397
1630497993465,37609,257412,304398
1630497993475,37590,257392,304386
1630497993485,37583,257383,304353
1630497993495,37566,257351,304422
1630497993505,37557,257379,304377
1630497993515,37542,257349,304381
1630497993525,37535,257342,304396
1630497993535,37532,257356,304400
1630497993545,37522,257370,304401
1630497993555,37514,257369,304370
1630497993565,37488,257319,304372
1630497993575,37498,257368,304419
1630497993585,37499,257383,304403
1630497993595,37502,257353,304356
1630497993605,37493,257372,304380
1630497993615,37491,257352,304371
1630497993625,37491,257346,304350
1630497993635,37486,257379,304351
1630497993645,37488,257354,304391
1630497993655,37490,257387,304379
1630497993665,37490,257397,304357
1630497993675,37488,257372,304402
1630497993685,37480,257390,304386
1630497993695,37491,257406,304361
1630497993705,37493,257405,304389
1630497993715,37488,257381,304370
1630497993725,37485,257435,304384
1630497993735,37482,257438,304348
1630497993745,37487,257413,304379
1630497993755,37496,257460,304372
1630497993765,37505,257494,304372
1630497993775,37503,257476,304393
1630497993785,37513,257496,304386
1630497993795,37523,257541,304404
1630497993805,37530,257560,304378
1630497993815,37548,257557,304375
1630497993825,37547,257555,304433
1630497993835,37566,257593,304439
1630497993845,37568,257624,304417
1630497993855,37578,257612,304445
1630497993865,37599,257632,304444
1630497993875,37610,257673,304448
1630497993885,37614,257664,304436
1630497993895,37632,257648,304497
1630497993905,37634,257740,304472
1630497993915,37653,257699,304499
1630497993925,37668,257751,304489
1630497993935,37679,257797,304493
1630497993945,37686,257773,304535
1630497993955,37707,257802,304509
1630497993965,37722,257819,304485
1630497993975,37741,257859,304546
1630497993985,37769,257870,304575
1630497993995,37796,257828,304565
1630497994005,37786,257795,304592
1630497994015,37792,257765,304595
1630497994025,37785,257701,304592
1630497994035,37771,257705,304599
1630497994045,37748,257655,304585
1630497994055,37738,257640,304568
1630497994065,37717,257579,304566
1630497994075,37700,257570,304543
1630497994085,37679,257592,304545
1630497994095,37661,257541,304545
1630497994105,37652,257549,304544
1630497994115,37636,257504,304521
1630497994125,37623,257502,304495
1630497994135,37609,257505,304486
1630497994145,37599,257484,304527
1630497994155,37582,257471,304538
1630497994165,37579,257505,304520
1630497994175,37574,257440,304484
1630497994185,37562,257477,304485
1630497994195,37553,257468,304466
1630497994205,37548,257468,304479
1630497994215,37556,257464,304454
1630497994225,37549,257527,304528
1630497994235,37554,257502,304513
1630497994245,37559,257482,304479
1630497994255,37561,257484,304486
1630497994265,37550,257511,304463
1630497994275,37556,257548,304493
1630497994285,37552,257533,304491
1630497994295,37556,257524,304460
1630497994305,37556,257547,304487
1630497994315,37555,257545,304495
1630497994325,37564,257494,304493
1630497994335,37565,257560,304474
1630497994345,37564,257578,304439
1630497994355,37568,257553,304482
1630497994365,37578,257552,304478
1630497994375,37578,257587,304462
1630497994385,37580,257600,304485
1630497994395,37591,257623,304489
1630497994405,37600,257588,304517
1630497994415,37596,257609,304508
1630497994425,37605,257626,304528
1630497994435,37614,257655,304505
1630497994445,37626,257655,304512
1630497994455,37632,257722,304517
1630497994465,37642,257735,304526
1630497994475,37655,257739,304548
1630497994485,37669,257778,304547
1630497994495,37681,257755,304537
1630497994505,37683,257783,304576
1630497994515,37701,257807,304562
1630497994525,37708,257813,304543
1630497994535,37734,257841,304588
1630497994545,37752,257851,304593
1630497994555,37748,257895,304569
1630497994565,37776,257856,304601
1630497994575,37788,257892,304596
1630497994585,37800,257930,304610
1630497994595,37820,257932,304637
1630497994605,37849,257963,304668
1630497994615,37874,257955,304706
1630497994625,37888,257925,304705
1630497994635,37897,257885,304695
1630497994645,37880,257858,304700
1630497994655,37871,257843,304699
1630497994665,37852,257763,304671
1630497994675,37832,257763,304637
1630497994685,37825,257751,304643
1630497994695,37800,257715,304650
1630497994705,37776,257658,304624
1630497994715,37766,257644,304628
1630497994725,37754,257680,304575
1630497994735,37736,257665,304575
1630497994745,37727,257680,304583
1630497994755,37720,257626,304611
1630497994765,37710,257626,304577
1630497994775,37699,257618,304584
1630497994785,37690,257623,304573
1630497994795,37693,257619,304587
1630497994805,37690,257636,304571
1630497994815,37683,257609,304573
1630497994825,37681,257630,304615
1630497994835,37691,257627,304596
1630497994845,37698,257666,304580
1630497994855,37688,257661,304611
1630497994865,37689,257664,304618
1630497994875,37711,257614,304608
1630497994885,37687,257620,304558
1630497994895,37702,257667,304613
1630497994905,37706,257664,304630
1630497994915,37704,257618,304612
1630497994925,37712,257673,304635
1630497994935,37712,257645,304597
1630497994945,37709,257649,304605
1630497994955,37712,257668,304585
1630497994965,37722,257675,304624
1630497994975,37723,257684,304594
1630497994985,37727,257693,304587
1630497994995,37730,257696,304622
1630497995005,37742,257697,304629
1630497995015,37749,257723,304608
1630497995025,37755,257718,304630
1630497995035,37748,257777,304655
1630497995045,37774,257763,304653
1630497995055,37782,257781,304661
1630497995065,37789,257787,304677
1630497995075,37788,257808,304658
1630497995085,37795,257827,304655
1630497995095,37811,257833,304617
1630497995105,37823,257854,304685
1630497995115,37831,257868,304677
1630497995125,37837,257875,304679
1630497995135,37866,257894,304692
1630497995145,37865,257917,304687
1630497995155,37887,257986,304701
1630497995165,37896,257983,304695
1630497995175,37906,257955,304709
1630497995185,37924,258027,304743
1630497995195,37942,258039,304722
1630497995205,37967,258008,304794
1630497995215,37998,258016,304809
1630497995225,38005,258030,304808
1630497995235,38005,257947,304792
1630497995245,37999,257912,304789
1630497995255,37987,257867,304757
1630497995265,37966,257827,304772
1630497995275,37947,257817,304776
1630497995285,37923,257774,304733
1630497995295,37906,257764,304763
1630497995305,37887,257726,304700
1630497995315,37874,257710,304680
1630497995325,37849,257674,304672
1630497995335,37843,257664,304691
1630497995345,37829,257673,304635
1630497995355,37806,257643,304631
1630497995365,37796,257633,304601
1630497995375,37784,257666,304607
1630497995385,37781,257549,304621
1630497995395,37767,257635,304599
1630497995405,37755,257620,304569
1630497995415,37750,257598,304577
1630497995425,37754,257617,304609
1630497995435,37760,257657,304602
1630497995445,37758,257670,304606
1630497995455,37764,257667,304621
1630497995465,37767,257680,304602
1630497995475,37762,257678,304634
1630497995485,37765,257644,304625
1630497995495,37772,257638,304636
1630497995505,37772,257677,304589
1630497995515,37763,257645,304617
1630497995525,37775,257682,304579
1630497995535,37774,257681,304644
1630497995545,37770,257671,304636
1630497995555,37769,257671,304633
1630497995565,37762,257675,304627
1630497995575,37774,257667,304607
1630497995585,37769,257697,304603
1630497995595,37774,257702,304592
1630497995605,37778,257721,304632
1630497995615,37786,257712,304623
1630497995625,37790,257718,304614
1630497995635,37799,257753,304634
1630497995645,37806,257751,304605
1630497995655,37814,257791,304623
1630497995665,37821,257782,304620
1630497995675,37809,257768,304627
1630497995685,37830,257833,304620
1630497995695,37844,257838,304638
1630497995705,37846,257855,304657
1630497995715,37855,257852,304660
1630497995725,37866,257882,304661
1630497995735,37882,257921,304665
1630497995745,37891,257910,304671
1630497995755,37895,257932,304674
1630497995765,37918,257966,304699
1630497995775,37937,257997,304689
1630497995785,37951,257980,304709
1630497995795,37973,257993,304756
1630497995805,37981,257974,304762
1630497995815,37990,257943,304796
1630497995825,37977,257912,304778
1630497995835,37963,257835,304727
1630497995845,37943,257767,304721
1630497995855,37908,257786,304680
1630497995865,37892,257744,304679
1630497995875,37860,257651,304693
1630497995885,37849,257643,304657
1630497995895,37821,257676,304650
1630497995905,37794,257636,304611
1630497995915,37783,257604,304610
1630497995925,37763,257595,304602
1630497995935,37741,257568,304573
1630497995945,37719,257546,304591
1630497995955,37699,257528,304563
1630497995965,37677,257518,304566
1630497995975,37666,257465,304539
1630497995985,37643,257486,304538
1630497995995,37615,257469,304515
1630497996005,37600,257467,304457
1630497996015,37613,257458,304495
1630497996025,37601,257455,304480
1630497996035,37588,257471,304459
1630497996045,37584,257471,304429
1630497996055,37572,257464,304445
1630497996065,37568,257464,304437
1630497996075,37566,257430,304443
1630497996085,37555,257457,304426
1630497996095,37551,257462,304427
1630497996105,37552,257429,304435
1630497996115,37545,257461,304449
1630497996125,37548,257448,304406
1630497996135,37536,257454,304423
1630497996145,37538,257423,304362
1630497996155,37531,257436,304370
1630497996165,37528,257415,304428
1630497996175,37531,257462,304376
1630497996185,37522,257458,304396
1630497996195,37528,257452,304390
1630497996205,37531,257453,304369
1630497996215,37534,257491,304407
1630497996225,37544,257479,304392
1630497996235,37544,257481,304398
1630497996245,37549,257506,304378
1630497996255,37558,257502,304388
1630497996265,37561,257575,304405
1630497996275,37562,257563,304396
1630497996285,37572,257562,304398
1630497996295,37577,257565,304379
1630497996305,37590,257583,304414
1630497996315,37593,257599,304396
1630497996325,37609,257638,304398
1630497996335,37614,257635,304372
1630497996345,37619,257708,304393
1630497996355,37641,257681,304384
1630497996365,37653,257694,304445
1630497996375,37673,257694,304447
1630497996385,37689,257718,304488
1630497996395,37703,257649,304503
1630497996405,37688,257635,304502
1630497996415,37677,257591,304472
1630497996425,37655,257521,304475
1630497996435,37631,257514,304447
1630497996445,37606,257437,304451
1630497996455,37585,257402,304397
1630497996465,37558,257398,304441
1630497996475,37536,257353,304402
1630497996485,37510,257351,304335
1630497996495,37498,257292,304385
1630497996505,37459,257301,304353
1630497996515,37438,257278,304345
1630497996525,37417,257231,304322
1630497996535,37405,257252,304343
1630497996545,37380,257194,304289
1630497996555,37365,257183,304306
1630497996565,37344,257185,304297
1630497996575,37332,257156,304285
1630497996585,37320,257194,304251
1630497996595,37313,257130,304263
1630497996605,37313,257172,304250
1630497996615,37303,257146,304226
1630497996625,37294,257182,304231
1630497996635,37300,257161,304264
1630497996645,37293,257170,304270
1630497996655,37298,257137,304224
1630497996665,37298,257195,304238
1630497996675,37293,257141,304272
1630497996685,37282,257152,304263
1630497996695,37280,257137,304273
1630497996705,37271,257151,304247
1630497996715,37264,257164,304300
1630497996725,37267,257128,304238
1630497996735,37271,257167,304195
1630497996745,37272,257167,304255
1630497996755,37282,257172,304254
1630497996765,37272,257170,304235
1630497996775,37281,257226,304248
1630497996785,37282,257234,304218
1630497996795,37284,257205,304232
1630497996805,37300,257239,304222
1630497996815,37316,257244,304226
1630497996825,37307,257231,304263
1630497996835,37306,257203,304232
1630497996845,37319,257282,304245
1630497996855,37330,257251,304300
1630497996865,37337,257268,304278
1630497996875,37350,257302,304223
1630497996885,37360,257298,304293
1630497996895,37367,257336,304247
1630497996905,37379,257341,304285
1630497996915,37399,257355,304317
1630497996925,37401,257423,304336
1630497996935,37422,257412,304291
1630497996945,37428,257393,304292
1630497996955,37446,257453,304364
1630497996965,37477,257435,304371
1630497996975,37495,257477,304413
1630497996985,37499,257417,304426
1630497996995,37500,257397,304423
1630497997005,37483,257316,304382
1630497997015,37462,257324,304403
1630497997025,37441,257239,304356
1630497997035,37431,257226,304370
1630497997045,37395,257215,304373
1630497997055,37376,257177,304375
1630497997065,37356,257144,304324
1630497997075,37339,257120,304324
1630497997085,37319,257074,304272
1630497997095,37309,257115,304326
1630497997105,37297,257079,304323
1630497997115,37274,257072,304280
1630497997125,37263,257044,304308
1630497997135,37252,257015,304294
1630497997145,37231,257035,304285
1630497997155,37222,257033,304311
1630497997165,37209,257059,304294
1630497997175,37209,257076,304277
1630497997185,37200,257055,304248
1630497997195,37203,257039,304274
1630497997205,37196,257061,304263
1630497997215,37198,257054,304267
1630497997225,37193,257030,304277
1630497997235,37199,257027,304234
1630497997245,37191,257040,304251
1630497997255,37193,257014,304240
1630497997265,37193,257010,304227
1630497997275,37181,257016,304277
1630497997285,37191,257048,304250
1630497997295,37192,257062,304219
1630497997305,37180,257058,304246
1630497997315,37195,257027,304233
1630497997325,37184,257044,304231
1630497997335,37188,257027,304244
1630497997345,37192,257040,304271
1630497997355,37204,257077,304253
1630497997365,37199,257050,304242
1630497997375,37210,257059,304283
1630497997385,37219,257046,304267
1630497997395,37225,257068,304229
1630497997405,37237,257109,304276
1630497997415,37246,257123,304278
1630497997425,37255,257111,304234
1630497997435,37272,257169,304283
1630497997445,37280,257140,304291
1630497997455,37287,257194,304301
1630497997465,37283,257202,304289
1630497997475,37299,257223,304297
1630497997485,37325,257234,304329
1630497997495,37330,257232,304301
1630497997505,37337,257266,304318
1630497997515,37358,257304,304328
1630497997525,37373,257301,304330
1630497997535,37383,257337,304348
1630497997545,37395,257369,304365
1630497997555,37420,257364,304352
1630497997565,37434,257375,304376
1630497997575,37467,257337,304429
1630497997585,37476,257357,304446
1630497997595,37473,257322,304462
1630497997605,37464,257316,304437
1630497997615,37464,257261,304469
1630497997625,37441,257212,304404
1630497997635,37423,257193,304372
1630497997645,37392,257163,304407
1630497997655,37401,257148,304383
1630497997665,37371,257073,304406
1630497997675,37351,257100,304345
1630497997685,37345,257094,304347
1630497997695,37331,257059,304374
1630497997705,37319,257075,304355
1630497997715,37312,257029,304344
1630497997725,37300,257078,304366
1630497997735,37292,257044,304362
1630497997745,37275,257074,304333
1630497997755,37277,257010,304321
1630497997765,37268,256989,304338
1630497997775,37250,257044,304316
1630497997785,37254,256971,304317
1630497997795,37270,256998,304305
1630497997805,37270,257028,304306
1630497997815,37267,257009,304311
1630497997825,37273,257036,304331
1630497997835,37272,257021,304354
1630497997845,37267,257039,304327
1630497997855,37273,257052,304361
1630497997865,37274,257027,304330
1630497997875,37279,257044,304407
1630497997885,37284,257061,304383
1630497997895,37296,257040,304383
1630497997905,37288,257049,304389
1630497997915,37300,257091,304398
1630497997925,37317,257113,304393
1630497997935,37326,257096,304422
1630497997945,37325,257129,304433
1630497997955,37349,257159,304462
1630497997965,37351,257177,304462
1630497997975,37364,257157,304469
1630497997985,37375,257155,304458
1630497997995,37392,257182,304515
1630497998005,37404,257207,304511
1630497998015,37417,257228,304552
1630497998025,37430,257209,304548
1630497998035,37449,257250,304570
1630497998045,37468,257296,304614
1630497998055,37469,257266,304614
1630497998065,37491,257315,304639
1630497998075,37498,257344,304653
1630497998085,37521,257333,304661
1630497998095,37528,257383,304675
1630497998105,37562,257407,304691
1630497998115,37569,257381,304663
1630497998125,37571,257408,304665
1630497998135,37584,257422,304693
1630497998145,37612,257487,304750
1630497998155,37640,257503,304814
1630497998165,37664,257552,304863
1630497998175,37700,257604,304911
1630497998185,37728,257582,304932
1630497998195,37742,257547,304980
1630497998205,37756,257556,305036
1630497998215,37749,257513,305081
1630497998225,37744,257503,305096
1630497998235,37734,257478,305041
1630497998245,37716,257445,305112
1630497998255,37692,257432,305085
1630497998265,37689,257467,305080
1630497998275,37683,257468,305091
1630497998285,37669,257431,305095
1630497998295,37678,257431,305104
1630497998305,37665,257443,305143
1630497998315,37663,257396,305119
1630497998325,37653,257419,305116
1630497998335,37645,257379,305131
1630497998345,37653,257394,305158
1630497998355,37654,257434,305153
1630497998365,37655,257453,305119
1630497998375,37656,257400,305183
1630497998385,37648,257427,305163
1630497998395,37661,257483,305171
1630497998405,37669,257481,305206
1630497998415,37684,257412,305177
1630497998425,37668,257482,305178
1630497998435,37686,257437,305186
1630497998445,37686,257422,305217
1630497998455,37692,257455,305219
1630497998465,37683,257444,305188
1630497998475,37689,257443,305178
1630497998485,37689,257487,305165
1630497998495,37694,257453,305175
1630497998505,37697,257453,305158
1630497998515,37699,257496,305160
1630497998525,37704,257489,305168
1630497998535,37707,257478,305170
1630497998545,37721,257509,305171
1630497998555,37725,257533,305155
1630497998565,37723,257508,305153
1630497998575,37729,257544,305177
1630497998585,37744,257575,305162
1630497998595,37748,257556,305190
1630497998605,37760,257572,305187
1630497998615,37776,257637,305206
1630497998625,37779,257574,305180
1630497998635,37799,257614,305215
1630497998645,37819,257641,305204
1630497998655,37811,257646,305195
1630497998665,37830,257668,305203
1630497998675,37842,257699,305212
1630497998685,37853,257678,305228
1630497998695,37861,257687,305211
1630497998705,37884,257723,305253
1630497998715,37897,257753,305251
1630497998725,37909,257770,305299
1630497998735,37916,257780,305267
1630497998745,37936,257852,305279
1630497998755,37961,257835,305333
1630497998765,38003,257876,305409
1630497998775,38027,257872,305430
1630497998785,38036,257812,305455
1630497998795,38035,257823,305474
1630497998805,38038,257793,305526
1630497998815,38025,257781,305438
1630497998825,38009,257754,305451
1630497998835,37992,257696,305429
1630497998845,37980,257707,305448
1630497998855,37961,257627,305475
1630497998865,37942,257648,305435
1630497998875,37935,257588,305411
1630497998885,37915,257598,305437
1630497998895,37902,257617,305413
1630497998905,37877,257623,305388
1630497998915,37878,257533,305387
1630497998925,37862,257550,305353
1630497998935,37849,257566,305340
1630497998945,37830,257527,305365
1630497998955,37822,257522,305334
1630497998965,37807,257527,305326
1630497998975,37798,257533,305318
1630497998985,37788,257543,305290
1630497998995,37784,257533,305257
1630497999005,37782,257536,305289
1630497999015,37792,257540,305328
1630497999025,37787,257528,305315
1630497999035,37792,257534,305328
1630497999045,37779,257514,305258
1630497999055,37793,257522,305284
1630497999065,37790,257513,305286
1630497999075,37781,257559,305243
1630497999085,37783,257515,305255
1630497999095,37805,257534,305259
1630497999105,37796,257531,305244
1630497999115,37794,257571,305264
1630497999125,37792,257554,305248
1630497999135,37791,257590,305255
1630497999145,37794,257587,305247
1630497999155,37799,257613,305228
1630497999165,37811,257587,305251
1630497999175,37821,257629,305291
1630497999185,37828,257643,305278
1630497999195,37827,257674,305263
1630497999205,37840,257663,305251
1630497999215,37855,257709,305247
1630497999225,37853,257671,305235
1630497999235,37868,257734,305265
1630497999245,37889,257744,305262
1630497999255,37880,257758,305279
1630497999265,37903,257767,305259
1630497999275,37922,257804,305257
1630497999285,37926,257812,305302
1630497999295,37935,257832,305265
1630497999305,37950,257834,305301
1630497999315,37967,257896,305304
1630497999325,37983,257901,305305
1630497999335,37996,257922,305320
1630497999345,38012,257952,305333
1630497999355,38032,257985,305316
1630497999365,38064,258013,305387
1630497999375,38088,257975,305431
1630497999385,38102,257971,305435
1630497999395,38107,257961,305477
1630497999405,38091,257933,305457
1630497999415,38079,257869,305410
1630497999425,38053,257854,305422
1630497999435,38040,257829,305418
1630497999445,38017,257793,305410
1630497999455,38003,257722,305385
1630497999465,37984,257757,305343
1630497999475,37961,257733,305321
1630497999485,37943,257696,305359
1630497999495,37933,257666,305337
1630497999505,37916,257676,305259
1630497999515,37892,257660,305286
1630497999525,37882,257636,305252
1630497999535,37863,257608,305257
1630497999545,37858,257630,305223
1630497999555,37834,257584,305207
1630497999565,37817,257610,305220
1630497999575,37806,257605,305169
1630497999585,37796,257588,305174
1630497999595,37787,257592,305191
1630497999605,37789,257603,305144
1630497999615,37788,257605,305172
1630497999625,37788,257596,305103
1630497999635,37779,257603,305127
1630497999645,37784,257613,305110
1630497999655,37780,257612,305121
1630497999665,37786,257597,305089
1630497999675,37788,257603,305114
1630497999685,37778,257625,305064
1630497999695,37784,257609,305090
1630497999705,37781,257612,305100
1630497999715,37791,257675,305085
1630497999725,37781,257633,305089
1630497999735,37785,257643,305069
1630497999745,37790,257620,305056
1630497999755,37783,257678,305014
1630497999765,37790,257635,305038
1630497999775,37794,257708,305038
1630497999785,37802,257664,305011
1630497999795,37807,257684,305010
1630497999805,37816,257680,305013
1630497999815,37823,257709,304991
1630497999825,37833,257743,305045
1630497999835,37850,257741,305022
1630497999845,37862,257755,305015
1630497999855,37866,257813,305016
1630497999865,37874,257814,305007
1630497999875,37888,257798,305077
1630497999885,37913,257846,305028
1630497999895,37910,257835,305063
1630497999905,37928,257846,305055
1630497999915,37936,257918,305087
1630497999925,37964,257922,305047
1630497999935,37967,257929,305041
1630497999945,37984,257965,305068
1630497999955,38000,257982,305070
1630497999965,38018,257964,305050
1630497999975,38030,258025,305092
1630497999985,38045,258039,305064
1630497999995,38076,258064,305101
1630498000005,38106,258085,305196
1630498000015,38133,258100,305231
1630498000025,38140,258023,305225
1630498000035,38142,258030,305202
1630498000045,38131,257997,305166
1630498000055,38124,257977,305200
1630498000065,38109,257933,305183
1630498000075,38103,257894,305145
1630498000085,38073,257876,305186
1630498000095,38052,257866,305157
1630498000105,38043,257839,305124
1630498000115,38022,257801,305127
1630498000125,38009,257818,305121
1630498000135,38001,257780,305097
1630498000145,37990,257798,305117
1630498000155,37975,257800,305105
1630498000165,37969,257761,305099
1630498000175,37959,257761,305074
1630498000185,37947,257769,305073
1630498000195,37942,257720,305053
1630498000205,37935,257762,305087
1630498000215,37912,257722,305044
1630498000225,37903,257761,304999
1630498000235,37922,257766,304994
1630498000245,37904,257723,305035
1630498000255,37925,257746,305012
1630498000265,37920,257725,305009
1630498000275,37911,257750,304995
1630498000285,37915,257758,305008
1630498000295,37916,257784,305026
1630498000305,37923,257746,305035
1630498000315,37926,257753,305016
1630498000325,37926,257746,305029
1630498000335,37926,257758,305019
1630498000345,37929,257800,305029
1630498000355,37935,257789,305042
1630498000365,37943,257743,305036
1630498000375,37946,257805,305020
1630498000385,37950,257830,305023
1630498000395,37949,257810,305023
1630498000405,37959,257838,304997
1630498000415,37969,257868,305016
1630498000425,37979,257850,305018
1630498000435,37983,257879,305018
1630498000445,37995,257879,305039
1630498000455,38001,257899,305035
1630498000465,38012,257903,305082
1630498000475,38024,257985,305039
1630498000485,38031,257963,305066
1630498000495,38050,257982,305046
1630498000505,38066,257969,305074
1630498000515,38083,258020,305085
1630498000525,38104,258049,305113
1630498000535,38109,258049,305111
1630498000545,38128,258063,305081
1630498000555,38129,258108,305116
1630498000565,38157,258112,305099
1630498000575,38161,258135,305132
1630498000585,38173,258164,305100
1630498000595,38181,258159,305125
1630498000605,38204,258201,305156
1630498000615,38219,258211,305153
1630498000625,38235,258249,305143
1630498000635,38250,258262,305173
1630498000645,38268,258249,305152
1630498000655,38273,258285,305176
1630498000665,38301,258311,305179
1630498000675,38320,258361,305186
1630498000685,38355,258377,305270
1630498000695,38387,258365,305313
1630498000705,38396,258344,305273
1630498000715,38394,258251,305284
1630498000725,38388,258304,305266
1630498000735,38389,258254,305318
1630498000745,38376,258209,305272
1630498000755,38363,258208,305265
1630498000765,38352,258151,305235
1630498000775,38334,258144,305235
1630498000785,38321,258136,305218
1630498000795,38300,258097,305221
1630498000805,38298,258126,305214
1630498000815,38293,258106,305234
1630498000825,38274,258061,305214
1630498000835,38270,258068,305201
1630498000845,38271,258096,305176
1630498000855,38250,258062,305218
1630498000865,38263,258088,305215
1630498000875,38251,258066,305172
1630498000885,38253,258107,305180
1630498000895,38249,258067,305180
1630498000905,38247,258099,305176
1630498000915,38250,258086,305186
1630498000925,38259,258082,305186
1630498000935,38262,258118,305200
1630498000945,38264,258115,305201
1630498000955,38270,258143,305219
1630498000965,38277,258111,305234
1630498000975,38276,258154,305204
1630498000985,38283,258112,305232
1630498000995,38273,258132,305199
1630498001005,38278,258124,305233
1630498001015,38272,258113,305209
1630498001025,38286,258132,305201
1630498001035,38295,258173,305213
1630498001045,38290,258163,305229
1630498001055,38299,258162,305220
1630498001065,38309,258196,305231
1630498001075,38321,258213,305223
1630498001085,38324,258221,305230
1630498001095,38328,258243,305241
1630498001105,38336,258253,305235
1630498001115,38338,258209,305252
1630498001125,38351,258258,305254
1630498001135,38371,258285,305270
1630498001145,38383,258261,305257
1630498001155,38393,258301,305286
1630498001165,38400,258336,305285
1630498001175,38418,258354,305309
1630498001185,38430,258390,305278
1630498001195,38424,258376,305309
1630498001205,38449,258413,305302
1630498001215,38465,258396,305329
1630498001225,38492,258458,305364
1630498001235,38505,258464,305321
1630498001245,38514,258506,305387
1630498001255,38534,258484,305346
1630498001265,38542,258532,305345
1630498001275,38556,258556,305415
1630498001285,38563,258561,305389
1630498001295,38585,258576,305420
1630498001305,38603,258641,305393
1630498001315,38615,258589,305434
1630498001325,38631,258594,305417
1630498001335,38648,258653,305449
1630498001345,38686,258656,305498
1630498001355,38715,258661,305516
1630498001365,38717,258686,305571
1630498001375,38743,258686,305569
1630498001385,38737,258634,305587
1630498001395,38731,258598,305553
1630498001405,38726,258584,305561
1630498001415,38716,258527,305548
1630498001425,38697,258577,305539
1630498001435,38688,258518,305506
1630498001445,38674,258498,305503
1630498001455,38671,258484,305498
1630498001465,38657,258472,305507
1630498001475,38643,258475,305531
1630498001485,38632,258489,305504
1630498001495,38633,258442,305487
1630498001505,38631,258464,305442
1630498001515,38631,258443,305498
1630498001525,38623,258433,305467
1630498001535,38610,258437,305478
1630498001545,38611,258451,305488
1630498001555,38604,258444,305434
1630498001565,38600,258457,305436
1630498001575,38599,258521,305469
1630498001585,38604,258500,305465
1630498001595,38611,258485,305463
1630498001605,38613,258516,305472
1630498001615,38615,258493,305481
1630498001625,38603,258485,305455
1630498001635,38622,258527,305465
1630498001645,38613,258498,305428
1630498001655,38624,258491,305458
1630498001665,38617,258502,305441
1630498001675,38610,258482,305449
1630498001685,38623,258505,305458
1630498001695,38628,258516,305436
1630498001705,38621,258554,305454
1630498001715,38626,258522,305425
1630498001725,38626,258540,305449
1630498001735,38630,258556,305425
1630498001745,38632,258553,305434
1630498001755,38635,258560,305449
1630498001765,38648,258554,305432
1630498001775,38654,258583,305400
1630498001785,38659,258645,305445
1630498001795,38670,258629,305443
1630498001805,38676,258634,305446
1630498001815,38687,258669,305422
1630498001825,38695,258696,305417
1630498001835,38691,258718,305487
1630498001845,38706,258733,305459
1630498001855,38721,258703,305422
1630498001865,38733,258742,305437
1630498001875,38740,258803,305465
1630498001885,38758,258796,305439
1630498001895,38774,258862,305444
1630498001905,38780,258834,305458
1630498001915,38789,258847,305449
1630498001925,38807,258853,305462
1630498001935,38821,258868,305474
1630498001945,38831,258871,305485
1630498001955,38841,258937,305482
1630498001965,38862,258911,305453
1630498001975,38874,258954,305543
1630498001985,38911,258949,305566
1630498001995,38924,258945,305544
1630498002005,38930,258927,305582
1630498002015,38938,258905,305564
1630498002025,38930,258878,305588
1630498002035,38909,258852,305593
1630498002045,38893,258828,305537
1630498002055,38871,258808,305507
1630498002065,38857,258739,305477
1630498002075,38836,258694,305488
1630498002085,38818,258696,305462
1630498002095,38804,258716,305431
1630498002105,38786,258704,305417
1630498002115,38773,258670,305451
1630498002125,38756,258672,305429
1630498002135,38743,258638,305418
1630498002145,38736,258668,305400
1630498002155,38713,258636,305346
1630498002165,38719,258628,305370
1630498002175,38691,258620,305387
1630498002185,38685,258610,305344
1630498002195,38676,258613,305350
1630498002205,38677,258621,305329
1630498002215,38670,258627,305333
1630498002225,38672,258647,305312
1630498002235,38669,258632,305313
1630498002245,38673,258667,305343
1630498002255,38663,258615,305316
1630498002265,38668,258671,305311
1630498002275,38664,258666,305300
1630498002285,38662,258675,305273
1630498002295,38657,258653,305301
1630498002305,38647,258676,305306
1630498002315,38646,258693,305251
1630498002325,38649,258696,305281
1630498002335,38653,258699,305258
1630498002345,38659,258702,305271
1630498002355,38646,258714,305286
1630498002365,38653,258681,305272
1630498002375,38657,258698,305263
1630498002385,38655,258715,305287
1630498002395,38651,258745,305223
1630498002405,38656,258733,305266
1630498002415,38666,258758,305209
1630498002425,38664,258773,305229
1630498002435,38667,258825,305250
1630498002445,38674,258791,305233
1630498002455,38695,258835,305231
1630498002465,38690,258833,305236
1630498002475,38695,258848,305271
1630498002485,38699,258831,305234
1630498002495,38717,258942,305226
1630498002505,38724,258869,305222
1630498002515,38737,258939,305256
1630498002525,38745,258917,305257
1630498002535,38760,258959,305191
1630498002545,38762,258982,305254
1630498002555,38775,258989,305261
1630498002565,38787,259022,305241
1630498002575,38799,259019,305235
1630498002585,38821,259037,305241
1630498002595,38838,259058,305284
1630498002605,38856,259078,305323
1630498002615,38887,259088,305339
1630498002625,38897,259050,305346
1630498002635,38899,258998,305356
1630498002645,38876,258971,305299
1630498002655,38867,258965,305315
1630498002665,38853,258895,305337
1630498002675,38833,258863,305309
1630498002685,38798,258796,305248
1630498002695,38776,258774,305247
1630498002705,38761,258789,305247
1630498002715,38733,258755,305202
1630498002725,38716,258762,305221
1630498002735,38697,258700,305214
1630498002745,38687,258741,305178
1630498002755,38664,258719,305147
1630498002765,38650,258690,305163
1630498002775,38642,258664,305166
1630498002785,38628,258662,305142
1630498002795,38613,258692,305089
1630498002805,38606,258628,305078
1630498002815,38590,258669,305083
1630498002825,38588,258646,305082
1630498002835,38580,258694,305094
1630498002845,38582,258653,305089
1630498002855,38573,258699,305083
1630498002865,38562,258678,305080
1630498002875,38562,258657,305091
1630498002885,38559,258688,305061
1630498002895,38553,258701,305068
1630498002905,38551,258676,305079
1630498002915,38548,258680,305029
1630498002925,38540,258628,305004
1630498002935,38540,258651,305039
1630498002945,38531,258689,305012
1630498002955,38530,258673,305042
1630498002965,38515,258679,305012
1630498002975,38521,258703,305023
1630498002985,38519,258699,304977
1630498002995,38517,258678,304970
1630498003005,38535,258702,305006
1630498003015,38523,258749,304954
1630498003025,38535,258723,304985
1630498003035,38533,258727,304969
1630498003045,38538,258731,304980
1630498003055,38543,258760,304965
1630498003065,38541,258770,304967
1630498003075,38551,258773,305018
1630498003085,38568,258783,305015
1630498003095,38567,258808,305014
1630498003105,38575,258800,304986
1630498003115,38580,258816,304980
1630498003125,38591,258830,304989
1630498003135,38612,258877,305000
1630498003145,38610,258864,304995
1630498003155,38616,258917,304979
1630498003165,38633,258911,305009
1630498003175,38636,258947,304986
1630498003185,38652,258945,305014
1630498003195,38671,258926,305059
1630498003205,38694,258975,305040
1630498003215,38712,258979,305106
1630498003225,38718,258947,305087
1630498003235,38723,258959,305090
1630498003245,38711,258877,305087
1630498003255,38679,258821,304995
1630498003265,38635,258755,305000
1630498003275,38590,258683,304898
1630498003285,38556,258665,304821
1630498003295,38483,258609,304767
1630498003305,38437,258559,304686
1630498003315,38367,258565,304574
1630498003325,38335,258509,304460
1630498003335,38281,258492,304422
1630498003345,38243,258488,304369
1630498003355,38201,258435,304306
1630498003365,38166,258381,304265
1630498003375,38136,258394,304190
1630498003385,38107,258397,304156
1630498003395,38081,258373,304129
1630498003405,38062,258354,304123
1630498003415,38045,258384,304065
1630498003425,38042,258391,304081
1630498003435,38032,258413,304054
1630498003445,38036,258400,304080
1630498003455,38046,258432,304087
1630498003465,38041,258452,304115
1630498003475,38072,258432,304135
1630498003485,38081,258446,304197
1630498003495,38108,258469,304237
1630498003505,38111,258462,304291
1630498003515,38115,258469,304308
1630498003525,38138,258485,304341
1630498003535,38153,258518,304369
1630498003545,38175,258507,304447
1630498003555,38187,258494,304455
1630498003565,38209,258520,304497
1630498003575,38225,258561,304529
1630498003585,38237,258558,304538
1630498003595,38238,258569,304542
1630498003605,38258,258556,304597
1630498003615,38267,258555,304577
1630498003625,38278,258540,304583
1630498003635,38267,258579,304547
1630498003645,38275,258616,304600
1630498003655,38267,258570,304575
1630498003665,38280,258600,304589
1630498003675,38297,258602,304565
1630498003685,38299,258621,304608
1630498003695,38306,258628,304607
1630498003705,38315,258656,304607
1630498003715,38329,258646,304604
1630498003725,38339,258675,304572
1630498003735,38355,258722,304651
1630498003745,38375,258702,304637
1630498003755,38374,258734,304651
1630498003765,38393,258741,304678
1630498003775,38405,258730,304636
1630498003785,38431,258781,304700
1630498003795,38437,258828,304763
1630498003805,38472,258784,304776
1630498003815,38489,258773,304803
1630498003825,38486,258723,304787
1630498003835,38486,258710,304825
1630498003845,38471,258655,304817
1630498003855,38456,258610,304827
1630498003865,38430,258565,304780
1630498003875,38405,258527,304772
1630498003885,38386,258502,304742
1630498003895,38367,258477,304753
1630498003905,38346,258489,304703
1630498003915,38332,258456,304711
1630498003925,38315,258433,304715
1630498003935,38317,258390,304713
1630498003945,38293,258436,304699
1630498003955,38292,258395,304698
1630498003965,38266,258344,304722
1630498003975,38269,258394,304731
1630498003985,38242,258379,304695
1630498003995,38235,258331,304691
1630498004005,38229,258336,304698
1630498004015,38231,258345,304672
1630498004025,38227,258362,304679
1630498004035,38224,258372,304716
1630498004045,38225,258347,304700
1630498004055,38228,258330,304703
1630498004065,38220,258335,304736
1630498004075,38224,258320,304684
1630498004085,38221,258357,304690
1630498004095,38218,258325,304722
1630498004105,38204,258320,304670
1630498004115,38195,258349,304708
1630498004125,38195,258338,304746
1630498004135,38211,258296,304702
1630498004145,38199,258309,304721
1630498004155,38193,258281,304714
1630498004165,38197,258335,304683
1630498004175,38193,258297,304724
1630498004185,38202,258328,304703
1630498004195,38201,258310,304699
1630498004205,38202,258333,304738
1630498004215,38210,258371,304708
1630498004225,38211,258349,304726
1630498004235,38220,258355,304700
1630498004245,38215,258358,304691
1630498004255,38217,258387,304742
1630498004265,38239,258386,304721
1630498004275,38234,258399,304761
1630498004285,38255,258416,304756
1630498004295,38238,258458,304745
1630498004305,38251,258463,304769
1630498004315,38258,258409,304724
1630498004325,38271,258486,304705
1630498004335,38269,258477,304727
1630498004345,38278,258483,304755
1630498004355,38294,258506,304782
1630498004365,38307,258538,304736
1630498004375,38340,258536,304822
1630498004385,38348,258503,304796
1630498004395,38347,258447,304839
1630498004405,38334,258459,304812
1630498004415,38316,258376,304850
1630498004425,38295,258356,304810
1630498004435,38270,258321,304791
1630498004445,38237,258220,304770
1630498004455,38219,258216,304784
1630498004465,38185,258190,304732
1630498004475,38159,258163,304715
1630498004485,38137,258153,304700
1630498004495,38114,258129,304685
1630498004505,38088,258072,304684
1630498004515,38068,258062,304662
1630498004525,38049,258027,304630
1630498004535,38030,258029,304633
1630498004545,38015,258001,304618
1630498004555,37990,257992,304578
1630498004565,37978,257997,304556
1630498004575,37961,257990,304528
1630498004585,37944,257965,304562
1630498004595,37936,257983,304582
1630498004605,37937,258010,304524
1630498004615,37927,257985,304519
1630498004625,37921,257946,304529
1630498004635,37919,257934,304522
1630498004645,37903,257977,304499
1630498004655,37895,257939,304486
1630498004665,37888,257950,304523
1630498004675,37884,257937,304508
1630498004685,37874,257952,304496
1630498004695,37872,257898,304496
1630498004705,37860,257899,304490
1630498004715,37856,257953,304458
1630498004725,37846,257978,304442
1630498004735,37849,257958,304449
1630498004745,37840,257967,304470
1630498004755,37850,257938,304438
1630498004765,37836,257932,304431
1630498004775,37843,257960,304438
1630498004785,37837,257964,304430
1630498004795,37848,257965,304429
1630498004805,37851,257990,304435
1630498004815,37856,257970,304459
1630498004825,37855,257993,304423
1630498004835,37864,258028,304435
1630498004845,37869,258025,304464
1630498004855,37871,258031,304455
1630498004865,37880,258021,304451
1630498004875,37889,258088,304468
1630498004885,37897,258045,304429
1630498004895,37911,258114,304395
1630498004905,37903,258095,304456
1630498004915,37926,258148,304482
1630498004925,37929,258116,304460
1630498004935,37954,258150,304455
1630498004945,37968,258171,304552
1630498004955,37991,258157,304543
1630498004965,38000,258174,304557
1630498004975,37992,258119,304566
1630498004985,37973,258073,304560
1630498004995,37956,257991,304558
1630498005005,37915,257928,304554
1630498005015,37889,257897,304500
1630498005025,37860,257890,304491
1630498005035,37836,257783,304452
1630498005045,37800,257771,304443
1630498005055,37780,257755,304397
1630498005065,37745,257700,304412
1630498005075,37727,257687,304396
1630498005085,37686,257687,304329
1630498005095,37665,257594,304319
1630498005105,37650,257602,304275
1630498005115,37626,257552,304289
1630498005125,37613,257549,304289
1630498005135,37585,257564,304283
1630498005145,37569,257551,304269
1630498005155,37557,257548,304236
1630498005165,37541,257498,304233
1630498005175,37531,257481,304198
1630498005185,37528,257521,304265
1630498005195,37520,257521,304232
1630498005205,37513,257500,304201
1630498005215,37508,257496,304251
1630498005225,37500,257483,304233
1630498005235,37499,257497,304208
1630498005245,37488,257493,304203
1630498005255,37474,257468,304191
1630498005265,37477,257430,304194
1630498005275,37474,257491,304205
1630498005285,37458,257447,304191
1630498005295,37454,257464,304172
1630498005305,37449,257458,304188
1630498005315,37449,257480,304198
1630498005325,37441,257445,304191
1630498005335,37445,257456,304159
1630498005345,37442,257470,304197
1630498005355,37438,257479,304162
1630498005365,37457,257460,304137
1630498005375,37459,257510,304165
1630498005385,37454,257493,304222
1630498005395,37477,257510,304190
1630498005405,37475,257524,304190
1630498005415,37487,257548,304212
1630498005425,37486,257590,304215
1630498005435,37504,257575,304193
1630498005445,37514,257558,304193
1630498005455,37519,257617,304185
1630498005465,37526,257610,304198
1630498005475,37538,257635,304233
1630498005485,37542,257646,304246
1630498005495,37558,257658,304206
1630498005505,37566,257645,304234
1630498005515,37587,257697,304245
1630498005525,37604,257708,304253
1630498005535,37631,257701,304282
1630498005545,37640,257714,304337
1630498005555,37635,257628,304291
1630498005565,37627,257615,304285
1630498005575,37605,257542,304276
1630498005585,37589,257486,304259
1630498005595,37556,257434,304228
1630498005605,37526,257426,304238
1630498005615,37505,257400,304217
1630498005625,37480,257376,304219
1630498005635,37451,257350,304235
1630498005645,37430,257318,304160
1630498005655,37408,257276,304190
1630498005665,37393,257268,304140
1630498005675,37366,257246,304142
1630498005685,37352,257275,304145
1630498005695,37344,257204,304132
1630498005705,37326,257224,304123
1630498005715,37323,257211,304125
1630498005725,37291,257212,304095
1630498005735,37279,257179,304113
1630498005745,37277,257188,304095
1630498005755,37277,257182,304079
1630498005765,37273,257191,304063
1630498005775,37267,257174,304110
1630498005785,37269,257167,304098
1630498005795,37268,257169,304107
1630498005805,37266,257182,304090
1630498005815,37264,257169,304108
1630498005825,37250,257187,304083
1630498005835,37275,257137,304078
1630498005845,37265,257147,304072
1630498005855,37263,257167,304092
1630498005865,37263,257155,304116
1630498005875,37277,257200,304108
1630498005885,37269,257193,304095
1630498005895,37281,257154,304099
1630498005905,37285,257217,304107
1630498005915,37290,257206,304080
1630498005925,37297,257181,304131
1630498005935,37298,257203,304118
1630498005945,37305,257243,304113
1630498005955,37317,257239,304140
1630498005965,37325,257265,304166
1630498005975,37335,257284,304161
1630498005985,37351,257295,304168
1630498005995,37368,257314,304201
1630498006005,37370,257335,304170
1630498006015,37390,257350,304156
1630498006025,37401,257350,304215
1630498006035,37409,257356,304183
1630498006045,37426,257382,304206
1630498006055,37441,257436,304223
1630498006065,37464,257456,304244
1630498006075,37480,257473,304228
1630498006085,37494,257458,304257
1630498006095,37509,257509,304299
1630498006105,37527,257531,304295
1630498006115,37545,257559,304307
1630498006125,37567,257581,304335
1630498006135,37593,257572,304361
1630498006145,37614,257544,304382
1630498006155,37621,257524,304388
1630498006165,37615,257457,304388
1630498006175,37605,257426,304405
1630498006185,37586,257392,304405
1630498006195,37570,257366,304382
1630498006205,37533,257376,304396
1630498006215,37520,257322,304353
1630498006225,37522,257293,304341
1630498006235,37494,257268,304318
1630498006245,37474,257247,304305
1630498006255,37463,257249,304324
1630498006265,37452,257264,304294
1630498006275,37434,257235,304318
1630498006285,37429,257237,304310
1630498006295,37423,257209,304341
1630498006305,37421,257229,304322
1630498006315,37412,257201,304313
1630498006325,37402,257164,304290
1630498006335,37400,257181,304291
1630498006345,37400,257221,304286
1630498006355,37414,257219,304323
1630498006365,37419,257269,304333
1630498006375,37412,257214,304312
1630498006385,37432,257265,304327
1630498006395,37414,257236,304335
1630498006405,37427,257250,304335
1630498006415,37430,257223,304307
1630498006425,37441,257266,304346
1630498006435,37440,257268,304309
1630498006445,37439,257282,304301
1630498006455,37444,257295,304364
1630498006465,37449,257252,304335
1630498006475,37458,257251,304346
1630498006485,37456,257269,304370
1630498006495,37466,257301,304373
1630498006505,37462,257290,304337
1630498006515,37480,257280,304353
1630498006525,37486,257315,304380
1630498006535,37495,257329,304382
1630498006545,37502,257338,304377
1630498006555,37516,257370,304378
1630498006565,37552,257391,304433
1630498006575,37555,257379,304464
1630498006585,37556,257447,304417
1630498006595,37574,257439,304449
1630498006605,37599,257453,304477
1630498006615,37605,257469,304502
1630498006625,37625,257492,304503
1630498006635,37644,257543,304499
1630498006645,37665,257560,304563
1630498006655,37688,257569,304560
1630498006665,37705,257569,304572
1630498006675,37709,257627,304597
1630498006685,37738,257629,304608
1630498006695,37766,257637,304600
1630498006705,37770,257666,304647
1630498006715,37794,257687,304659
1630498006725,37825,257747,304666
1630498006735,37856,257701,304759
1630498006745,37870,257694,304775
1630498006755,37868,257663,304808
1630498006765,37873,257643,304789
1630498006775,37858,257592,304804
1630498006785,37843,257593,304784
1630498006795,37842,257543,304779
1630498006805,37825,257565,304798
1630498006815,37811,257510,304785
1630498006825,37798,257481,304756
1630498006835,37774,257535,304772
1630498006845,37765,257531,304816
1630498006855,37761,257432,304747
1630498006865,37758,257495,304775
1630498006875,37743,257486,304779
1630498006885,37725,257500,304755
1630498006895,37722,257438,304724
1630498006905,37713,257452,304711
1630498006915,37706,257449,304725
1630498006925,37698,257436,304706
1630498006935,37695,257456,304709
1630498006945,37697,257484,304701
1630498006955,37699,257470,304741
1630498006965,37702,257494,304723
1630498006975,37714,257452,304729
1630498006985,37705,257491,304712
1630498006995,37714,257471,304714
1630498007005,37718,257503,304727
1630498007015,37727,257468,304755
1630498007025,37722,257497,304731
1630498007035,37727,257536,304710
1630498007045,37727,257534,304690
1630498007055,37724,257539,304707
1630498007065,37713,257516,304660
1630498007075,37724,257519,304670
1630498007085,37735,257519,304671
1630498007095,37731,257575,304687
1630498007105,37742,257581,304675
1630498007115,37752,257582,304673
1630498007125,37752,257594,304687
1630498007135,37768,257595,304703
1630498007145,37787,257647,304693
1630498007155,37793,257664,304721
1630498007165,37803,257670,304718
1630498007175,37817,257698,304715
1630498007185,37832,257706,304715
1630498007195,37839,257721,304787
1630498007205,37865,257751,304761
1630498007215,37886,257807,304754
1630498007225,37897,257779,304765
1630498007235,37913,257870,304806
1630498007245,37923,257813,304769
1630498007255,37940,257855,304776
1630498007265,37965,257931,304814
1630498007275,37979,257919,304831
1630498007285,37996,257937,304843
1630498007295,38018,257990,304830
1630498007305,38031,258026,304858
1630498007315,38058,258036,304881
1630498007325,38077,258024,304923
1630498007335,38095,258056,304939
1630498007345,38131,258073,304973
1630498007355,38146,258009,304966
1630498007365,38133,257992,304988
1630498007375,38138,257969,304964
1630498007385,38114,257948,304935
1630498007395,38105,257890,304970
1630498007405,38094,257886,304963
1630498007415,38074,257862,304982
1630498007425,38066,257862,304924
1630498007435,38059,257838,304897
1630498007445,38040,257823,304926
1630498007455,38030,257811,304895
1630498007465,38017,257787,304938
1630498007475,38015,257766,304941
1630498007485,37998,257788,304926
1630498007495,37986,257771,304919
1630498007505,37995,257785,304880
1630498007515,37960,257789,304913
1630498007525,37975,257782,304893
1630498007535,37959,257780,304871
1630498007545,37946,257736,304886
1630498007555,37937,257780,304840
1630498007565,37940,257768,304842
1630498007575,37936,257763,304861
1630498007585,37935,257780,304880
1630498007595,37938,257804,304857
1630498007605,37943,257804,304858
1630498007615,37945,257818,304850
1630498007625,37958,257820,304812
1630498007635,37951,257834,304861
1630498007645,37954,257837,304848
1630498007655,37960,257870,304865
1630498007665,37971,257840,304894
1630498007675,37971,257869,304839
1630498007685,37985,257844,304875
1630498007695,37977,257860,304857
1630498007705,37981,257857,304851
1630498007715,37996,257901,304868
1630498007725,38006,257894,304889
1630498007735,38011,257956,304892
1630498007745,38025,257949,304910
1630498007755,38042,257981,304919
1630498007765,38052,257975,304936
1630498007775,38080,257973,304910
1630498007785,38084,258037,304941
1630498007795,38099,258002,304932
1630498007805,38109,258019,304967
1630498007815,38125,258122,304987
1630498007825,38144,258094,304940
1630498007835,38167,258096,304982
1630498007845,38173,258128,305000
1630498007855,38198,258157,305046
1630498007865,38207,258153,305010
1630498007875,38225,258229,305036
1630498007885,38244,258210,305015
1630498007895,38258,258244,305091
1630498007905,38277,258282,305061
1630498007915,38291,258293,305072
1630498007925,38317,258300,305102
1630498007935,38339,258312,305101
1630498007945,38362,258366,305135
1630498007955,38398,258371,305207
1630498007965,38418,258334,305203
1630498007975,38429,258347,305248
1630498007985,38430,258339,305242
1630498007995,38418,258249,305224
1630498008005,38400,258273,305204
1630498008015,38396,258223,305215
1630498008025,38389,258199,305211
1630498008035,38374,258178,305228
1630498008045,38358,258207,305188
1630498008055,38351,258208,305240
1630498008065,38341,258175,305198
1630498008075,38330,258128,305196
1630498008085,38325,258126,305220
1630498008095,38311,258153,305212
1630498008105,38302,258111,305186
1630498008115,38299,258109,305213
1630498008125,38306,258083,305189
1630498008135,38292,258106,305181
1630498008145,38280,258115,305164
1630498008155,38271,258112,305171
1630498008165,38270,258113,305129
1630498008175,38269,258149,305158
1630498008185,38269,258116,305152
1630498008195,38267,258116,305169
1630498008205,38276,258142,305160
1630498008215,38281,258155,305172
1630498008225,38285,258150,305176
1630498008235,38283,258127,305197
1630498008245,38295,258155,305176
1630498008255,38298,258131,305197
1630498008265,38298,258147,305211
1630498008275,38307,258161,305193
1630498008285,38310,258150,305154
1630498008295,38316,258180,305208
1630498008305,38323,258152,305195
1630498008315,38327,258206,305231
1630498008325,38332,258193,305193
1630498008335,38352,258222,305205
1630498008345,38350,258229,305273
1630498008355,38357,258254,305231
1630498008365,38374,258271,305244
1630498008375,38381,258256,305247
1630498008385,38391,258296,305268
1630498008395,38404,258309,305261
1630498008405,38419,258324,305282
1630498008415,38434,258334,305262
1630498008425,38450,258368,305271
1630498008435,38463,258407,305309
1630498008445,38476,258417,305284
1630498008455,38488,258419,305314
1630498008465,38510,258443,305312
1630498008475,38526,258451,305336
1630498008485,38533,258475,305294
1630498008495,38557,258531,305365
1630498008505,38566,258507,305343
1630498008515,38586,258532,305421
1630498008525,38597,258583,305400
1630498008535,38617,258586,305398
1630498008545,38632,258619,305425
1630498008555,38652,258653,305415
1630498008565,38667,258662,305429
1630498008575,38690,258698,305484
1630498008585,38726,258691,305507
1630498008595,38750,258674,305542
1630498008605,38758,258634,305536
1630498008615,38764,258622,305526
1630498008625,38754,258604,305543
1630498008635,38759,258558,305557
1630498008645,38734,258534,305553
1630498008655,38727,258578,305534
1630498008665,38713,258538,305503
1630498008675,38700,258510,305523
1630498008685,38695,258530,305525
1630498008695,38680,258501,305512
1630498008705,38658,258539,305513
1630498008715,38659,258483,305504
1630498008725,38651,258521,305539
1630498008735,38638,258506,305458
1630498008745,38631,258495,305461
1630498008755,38622,258481,305463
1630498008765,38603,258466,305457
1630498008775,38594,258466,305418
1630498008785,38583,258426,305454
1630498008795,38576,258460,305403
1630498008805,38585,258425,305408
1630498008815,38581,258445,305456
1630498008825,38581,258436,305400
1630498008835,38593,258414,305450
1630498008845,38586,258484,305415
1630498008855,38586,258457,305442
1630498008865,38591,258487,305428
1630498008875,38591,258477,305433
1630498008885,38595,258464,305392
1630498008895,38594,258502,305413
1630498008905,38605,258435,305406
1630498008915,38604,258475,305433
1630498008925,38616,258506,305437
1630498008935,38625,258519,305423
1630498008945,38625,258508,305430
1630498008955,38643,258513,305433
1630498008965,38655,258528,305467
1630498008975,38670,258564,305491
1630498008985,38685,258560,305467
1630498008995,38704,258558,305491
1630498009005,38702,258568,305492
1630498009015,38722,258620,305546
1630498009025,38742,258608,305535
1630498009035,38750,258661,305558
1630498009045,38774,258647,305568
1630498009055,38783,258702,305564
1630498009065,38801,258694,305622
1630498009075,38823,258722,305623
1630498009085,38830,258735,305622
1630498009095,38851,258762,305600
1630498009105,38861,258738,305630
1630498009115,38887,258778,305632
1630498009125,38913,258783,305644
1630498009135,38926,258832,305676
1630498009145,38938,258883,305653
1630498009155,38954,258889,305655
1630498009165,38966,258897,305694
1630498009175,38985,258945,305681
1630498009185,39000,258964,305680
1630498009195,39017,258981,305730
1630498009205,39043,259001,305732
1630498009215,39068,259014,305811
1630498009225,39085,259005,305807
1630498009235,39092,258978,305827
1630498009245,39089,258948,305849
1630498009255,39087,258893,305848
1630498009265,39075,258892,305830
1630498009275,39065,258900,305803
1630498009285,39040,258865,305801
1630498009295,39030,258814,305744
1630498009305,39018,258833,305716
1630498009315,38985,258791,305758
1630498009325,38963,258817,305791
1630498009335,38956,258809,305706
1630498009345,38937,258786,305701
1630498009355,38924,258759,305712
1630498009365,38903,258761,305665
1630498009375,38894,258690,305698
1630498009385,38881,258740,305682
1630498009395,38873,258696,305662
1630498009405,38854,258692,305688
1630498009415,38851,258722,305623
1630498009425,38848,258718,305628
1630498009435,38837,258721,305577
1630498009445,38847,258731,305635
1630498009455,38833,258715,305596
1630498009465,38841,258712,305623
1630498009475,38837,258736,305603
1630498009485,38849,258744,305597
1630498009495,38848,258772,305624
1630498009505,38841,258750,305601
1630498009515,38839,258746,305629
1630498009525,38833,258758,305632
1630498009535,38837,258761,305602
1630498009545,38834,258771,305618
1630498009555,38836,258781,305608
1630498009565,38834,258758,305591
1630498009575,38846,258750,305602
1630498009585,38845,258797,305555
1630498009595,38851,258787,305582
1630498009605,38852,258790,305567
1630498009615,38863,258828,305588
1630498009625,38867,258828,305524
1630498009635,38885,258824,305572
1630498009645,38881,258866,305574
1630498009655,38893,258847,305564
1630498009665,38890,258888,305565
1630498009675,38898,258891,305578
1630498009685,38916,258896,305547
1630498009695,38924,258898,305543
1630498009705,38938,258952,305609
1630498009715,38947,258966,305551
1630498009725,38959,258989,305563
1630498009735,38976,258946,305619
1630498009745,38991,258977,305565
1630498009755,39009,258997,305567
1630498009765,39021,259051,305605
1630498009775,39026,259038,305580
1630498009785,39037,259072,305615
1630498009795,39051,259090,305617
1630498009805,39065,259116,305613
1630498009815,39088,259135,305640
1630498009825,39095,259189,305620
1630498009835,39115,259162,305631
1630498009845,39139,259185,305649
1630498009855,39165,259202,305699
1630498009865,39186,259212,305704
1630498009875,39189,259217,305742
1630498009885,39192,259191,305742
1630498009895,39188,259073,305726
1630498009905,39169,259079,305719
1630498009915,39155,259040,305695
1630498009925,39145,259007,305703
1630498009935,39123,258972,305682
1630498009945,39090,258959,305643
1630498009955,39071,258940,305690
1630498009965,39068,258953,305666
1630498009975,39048,258902,305650
1630498009985,39032,258906,305656
1630498009995,39018,258896,305606
1630498010005,39001,258847,305617
1630498010015,38986,258855,305566
1630498010025,38964,258882,305598
1630498010035,38958,258836,305584
1630498010045,38946,258854,305592
1630498010055,38934,258844,305564
1630498010065,38918,258836,305552
1630498010075,38910,258838,305526
1630498010085,38911,258852,305525
1630498010095,38910,258850,305528
1630498010105,38908,258872,305504
1630498010115,38917,258888,305539
1630498010125,38905,258818,305513
1630498010135,38912,258878,305482
1630498010145,38911,258846,305511
1630498010155,38901,258850,305517
1630498010165,38907,258836,305519
1630498010175,38903,258842,305544
1630498010185,38904,258872,305514
1630498010195,38900,258864,305504
1630498010205,38901,258858,305499
1630498010215,38901,258876,305491
1630498010225,38907,258869,305506
1630498010235,38916,258865,305500
1630498010245,38916,258886,305491
1630498010255,38920,258914,305506
1630498010265,38918,258909,305470
1630498010275,38947,258900,305497
1630498010285,38934,258982,305520
1630498010295,38962,258968,305494
1630498010305,38965,258956,305497
1630498010315,38970,258987,305535
1630498010325,38984,258948,305509
1630498010335,38992,259029,305508
1630498010345,38999,259012,305528
1630498010355,39016,259056,305504
1630498010365,39020,259093,305535
1630498010375,39034,259124,305536
1630498010385,39055,259114,305567
1630498010395,39074,259125,305545
1630498010405,39079,259138,305538
1630498010415,39086,259152,305539
1630498010425,39100,259139,305579
1630498010435,39128,259180,305570
1630498010445,39153,259157,305558
1630498010455,39159,259202,305571
1630498010465,39168,259233,305604
1630498010475,39177,259259,305609
1630498010485,39208,259269,305613
1630498010495,39236,259298,305664
1630498010505,39256,259278,305686
1630498010515,39275,259297,305693
1630498010525,39281,259228,305738
1630498010535,39279,259233,305721
1630498010545,39261,259162,305715
1630498010555,39251,259200,305674
1630498010565,39238,259120,305686
1630498010575,39220,259078,305706
1630498010585,39190,259065,305674
1630498010595,39182,258983,305676
1630498010605,39164,259037,305644
1630498010615,39153,259030,305590
1630498010625,39119,259040,305622
1630498010635,39108,258998,305607
1630498010645,39110,259003,305592
1630498010655,39093,258975,305613
1630498010665,39084,258951,305578
1630498010675,39074,258951,305600
1630498010685,39067,258971,305599
1630498010695,39048,258960,305550
1630498010705,39045,258974,305558
1630498010715,39044,258931,305553
1630498010725,39040,258975,305527
1630498010735,39032,258960,305537
1630498010745,39042,258942,305572
1630498010755,39043,258958,305516
1630498010765,39047,258949,305548
1630498010775,39057,258992,305515
1630498010785,39036,258957,305559
1630498010795,39034,259009,305526
1630498010805,39042,258958,305531
1630498010815,39036,258972,305535
1630498010825,39038,259015,305490
1630498010835,39043,258977,305534
1630498010845,39048,258982,305506
1630498010855,39044,258937,305533
1630498010865,39046,259011,305526
1630498010875,39057,259027,305517
1630498010885,39057,259019,305516
1630498010895,39064,259007,305514
1630498010905,39073,259043,305522
1630498010915,39077,259037,305551
1630498010925,39077,259057,305524
1630498010935,39093,259091,305522
1630498010945,39105,259071,305511
1630498010955,39106,259105,305562
1630498010965,39118,259117,305568
1630498010975,39132,259127,305555
1630498010985,39141,259151,305544
1630498010995,39155,259155,305532
1630498011005,39165,259185,305529
1630498011015,39190,259196,305530
1630498011025,39185,259191,305543
1630498011035,39219,259214,305566
1630498011045,39223,259265,305576
1630498011055,39230,259243,305599
1630498011065,39243,259308,305577
1630498011075,39266,259309,305547
1630498011085,39278,259303,305590
1630498011095,39301,259319,305591
1630498011105,39304,259337,305604
1630498011115,39330,259396,305636
1630498011125,39358,259356,305691
1630498011135,39382,259436,305721
1630498011145,39392,259391,305720
1630498011155,39396,259335,305701
1630498011165,39397,259313,305712
1630498011175,39392,259298,305683
1630498011185,39379,259268,305712
1630498011195,39356,259220,305675
1630498011205,39331,259179,305659
1630498011215,39319,259175,305616
1630498011225,39298,259167,305625
1630498011235,39288,259186,305605
1630498011245,39266,259148,305606
1630498011255,39258,259155,305586
1630498011265,39261,259145,305620
1630498011275,39237,259090,305578
1630498011285,39233,259118,305560
1630498011295,39226,259120,305592
1630498011305,39216,259101,305582
1630498011315,39219,259111,305546
1630498011325,39208,259118,305544
1630498011335,39212,259136,305548
1630498011345,39208,259095,305539
1630498011355,39206,259136,305552
1630498011365,39216,259141,305542
1630498011375,39208,259158,305573
1630498011385,39215,259137,305565
1630498011395,39217,259172,305551
1630498011405,39208,259140,305567
1630498011415,39213,259167,305545
1630498011425,39218,259125,305533
1630498011435,39215,259172,305556
1630498011445,39219,259145,305523
1630498011455,39221,259155,305551
1630498011465,39223,259169,305554
1630498011475,39220,259150,305507
1630498011485,39222,259166,305516
1630498011495,39223,259172,305528
1630498011505,39228,259188,305587
1630498011515,39234,259193,305551
1630498011525,39238,259215,305509
1630498011535,39240,259229,305531
1630498011545,39247,259258,305542
1630498011555,39245,259252,305495
1630498011565,39268,259233,305523
1630498011575,39272,259272,305535
1630498011585,39278,259249,305559
1630498011595,39292,259254,305538
1630498011605,39301,259292,305516
1630498011615,39310,259303,305531
1630498011625,39319,259362,305533
1630498011635,39325,259381,305511
1630498011645,39345,259359,305518
1630498011655,39357,259375,305563
1630498011665,39368,259340,305561
1630498011675,39382,259425,305539
1630498011685,39391,259446,305544
1630498011695,39403,259471,305582
1630498011705,39419,259494,305607
1630498011715,39430,259495,305568
1630498011725,39458,259486,305615
1630498011735,39482,259519,305633
1630498011745,39490,259487,305651
1630498011755,39505,259497,305657
1630498011765,39500,259460,305655
1630498011775,39495,259412,305661
1630498011785,39473,259356,305639
1630498011795,39451,259325,305578
1630498011805,39437,259301,305599
1630498011815,39415,259276,305603
1630498011825,39405,259291,305570
1630498011835,39380,259260,305584
1630498011845,39368,259216,305553
1630498011855,39351,259221,305533
1630498011865,39327,259220,305524
1630498011875,39317,259204,305500
1630498011885,39310,259174,305466
1630498011895,39295,259191,305456
1630498011905,39278,259169,305488
1630498011915,39266,259186,305436
1630498011925,39262,259140,305407
1630498011935,39248,259165,305426
1630498011945,39245,259146,305417
1630498011955,39243,259184,305422
1630498011965,39247,259242,305417
1630498011975,39244,259202,305425
1630498011985,39248,259194,305385
1630498011995,39240,259195,305406
1630498012005,39246,259195,305394
1630498012015,39245,259213,305389
1630498012025,39246,259217,305396
1630498012035,39242,259210,305377
1630498012045,39237,259238,305372
1630498012055,39227,259202,305387
1630498012065,39224,259199,305393
1630498012075,39232,259267,305367
1630498012085,39237,259207,305343
1630498012095,39242,259230,305359
1630498012105,39235,259206,305337
1630498012115,39234,259250,305359
1630498012125,39232,259242,305354
1630498012135,39239,259269,305339
1630498012145,39241,259269,305336
1630498012155,39250,259278,305322
1630498012165,39255,259303,305313
1630498012175,39256,259304,305286
1630498012185,39263,259317,305292
1630498012195,39268,259322,305314
1630498012205,39280,259312,305258
1630498012215,39282,259344,305285
1630498012225,39280,259330,305246
1630498012235,39287,259350,305279
1630498012245,39304,259378,305299
1630498012255,39314,259417,305275
1630498012265,39326,259381,305246
1630498012275,39344,259433,305262
1630498012285,39356,259436,305269
1630498012295,39375,259504,305303
1630498012305,39388,259450,305274
1630498012315,39419,259511,305312
1630498012325,39444,259494,305322
1630498012335,39484,259540,305355
1630498012345,39495,259470,305406
1630498012355,39516,259470,305415
1630498012365,39512,259436,305361
1630498012375,39503,259382,305402
1630498012385,39498,259331,305403
1630498012395,39471,259296,305369
1630498012405,39447,259253,305396
1630498012415,39430,259270,305379
1630498012425,39422,259213,305376
1630498012435,39393,259232,305332
1630498012445,39376,259172,305316
1630498012455,39358,259146,305300
1630498012465,39340,259134,305308
1630498012475,39330,259131,305286
1630498012485,39311,259063,305268
1630498012495,39298,259098,305309
1630498012505,39285,259078,305253
1630498012515,39272,259103,305255
1630498012525,39261,259035,305280
1630498012535,39235,259007,305226
1630498012545,39224,259039,305236
1630498012555,39227,258995,305167
1630498012565,39216,258993,305207
1630498012575,39196,259032,305222
1630498012585,39196,259061,305177
1630498012595,39195,259033,305201
1630498012605,39181,259038,305187
1630498012615,39184,259000,305168
1630498012625,39180,258993,305161
1630498012635,39177,258990,305167
1630498012645,39165,258991,305155
1630498012655,39153,258964,305125
1630498012665,39146,259018,305124
1630498012675,39149,259005,305103
1630498012685,39146,259025,305118
1630498012695,39138,258988,305091
1630498012705,39128,259015,305101
1630498012715,39143,259007,305092
1630498012725,39135,259016,305077
1630498012735,39129,259014,305075
1630498012745,39131,259036,305064
1630498012755,39126,259029,305086
1630498012765,39130,259064,305073
1630498012775,39126,259062,305013
1630498012785,39133,259087,305057
1630498012795,39138,259068,305066
1630498012805,39141,259086,305034
1630498012815,39145,259129,305036
1630498012825,39149,259133,305026
1630498012835,39157,259111,305062
1630498012845,39169,259154,305025
1630498012855,39182,259168,305019
1630498012865,39184,259184,305048
1630498012875,39185,259189,305018
1630498012885,39197,259180,305046
1630498012895,39200,259187,305001
1630498012905,39195,259202,305021
1630498012915,39214,259245,305008
1630498012925,39239,259240,305042
1630498012935,39254,259279,305055
1630498012945,39258,259227,305086
1630498012955,39256,259197,305078
1630498012965,39241,259135,305066
1630498012975,39224,259116,305040
1630498012985,39204,259020,305016
1630498012995,39173,258991,304983
1630498013005,39144,258950,304980
1630498013015,39117,258956,304931
1630498013025,39111,258943,304905
1630498013035,39072,258871,304913
1630498013045,39050,258831,304937
1630498013055,39024,258882,304872
1630498013065,38992,258804,304885
1630498013075,38997,258856,304892
1630498013085,38966,258787,304858
1630498013095,38951,258776,304888
1630498013105,38940,258806,304829
1630498013115,38924,258762,304821
1630498013125,38914,258784,304816
1630498013135,38901,258782,304801
1630498013145,38895,258780,304812
1630498013155,38888,258780,304815
1630498013165,38883,258777,304819
1630498013175,38882,258754,304832
1630498013185,38868,258782,304809
1630498013195,38868,258769,304809
1630498013205,38861,258743,304790
1630498013215,38855,258783,304803
1630498013225,38845,258761,304814
1630498013235,38846,258723,304770
1630498013245,38840,258739,304763
1630498013255,38835,258719,304762
1630498013265,38828,258760,304762
1630498013275,38834,258776,304776
