timestamp,ecg_waveform
1630411793130,2060
1630411793134,2060
1630411793138,2059
1630411793142,2059
1630411793146,2059
1630411793150,2059
1630411793154,2059
1630411793158,2060
1630411793162,2060
1630411793166,2061
1630411793170,2061
1630411793174,2061
1630411793178,2061
1630411793182,2061
1630411793186,2062
1630411793190,2062
1630411793194,2063
1630411793198,2063
1630411793202,2064
1630411793206,2065
1630411793210,2066
1630411793214,2066
1630411793218,2067
1630411793222,2066
1630411793226,2067
1630411793230,2068
1630411793234,2069
1630411793238,2071
1630411793242,2072
1630411793246,2074
1630411793250,2075
1630411793254,2076
1630411793258,2077
1630411793262,2078
1630411793266,2078
1630411793270,2080
1630411793274,2081
1630411793278,2083
1630411793282,2085
1630411793286,2087
1630411793290,2088
1630411793294,2090
1630411793298,2091
1630411793302,2092
1630411793306,2093
1630411793310,2094
1630411793314,2095
1630411793318,2095
1630411793322,2095
1630411793326,2094
1630411793330,2094
1630411793334,2093
1630411793338,2092
1630411793342,2090
1630411793346,2089
1630411793350,2087
1630411793354,2086
1630411793358,2083
1630411793362,2079
1630411793366,2075
1630411793370,2071
1630411793374,2067
1630411793378,2063
1630411793382,2060
1630411793386,2057
1630411793390,2055
1630411793394,2054
1630411793398,2052
1630411793402,2051
1630411793406,2050
1630411793410,2049
1630411793414,2048
1630411793418,2048
1630411793422,2048
1630411793426,2048
1630411793430,2048
1630411793434,2048
1630411793438,2048
1630411793442,2048
1630411793446,2048
1630411793450,2048
1630411793454,2049
1630411793458,2050
1630411793462,2051
1630411793466,2051
1630411793470,2051
1630411793474,2051
1630411793478,2051
1630411793482,2051
1630411793486,2052
1630411793490,2053
1630411793494,2053
1630411793498,2053
1630411793502,2053
1630411793506,2053
1630411793510,2053
1630411793514,2052
1630411793518,2052
1630411793522,2052
1630411793526,2052
1630411793530,2053
1630411793534,2053
1630411793538,2053
1630411793542,2052
1630411793546,2052
1630411793550,2052
1630411793554,2052
1630411793558,2053
1630411793562,2053
1630411793566,2053
1630411793570,2053
1630411793574,2052
1630411793578,2051
1630411793582,2050
1630411793586,2050
1630411793590,2050
1630411793594,2050
1630411793598,2050
1630411793602,2050
1630411793606,2050
1630411793610,2051
1630411793614,2050
1630411793618,2050
1630411793622,2049
1630411793626,2048
1630411793630,2049
1630411793634,2049
1630411793638,2050
1630411793642,2050
1630411793646,2050
1630411793650,2048
1630411793654,2048
1630411793658,2047
1630411793662,2046
1630411793666,2046
1630411793670,2046
1630411793674,2047
1630411793678,2048
1630411793682,2048
1630411793686,2050
1630411793690,2053
1630411793694,2054
1630411793698,2055
1630411793702,2054
1630411793706,2053
1630411793710,2051
1630411793714,2050
1630411793718,2050
1630411793722,2050
1630411793726,2049
1630411793730,2049
1630411793734,2048
1630411793738,2047
1630411793742,2046
1630411793746,2046
1630411793750,2046
1630411793754,2046
1630411793758,2047
1630411793762,2047
1630411793766,2047
1630411793770,2047
1630411793774,2046
1630411793778,2045
1630411793782,2045
1630411793786,2046
1630411793790,2048
1630411793794,2047
1630411793798,2045
1630411793802,2039
1630411793806,2035
1630411793810,2037
1630411793814,2049
1630411793818,2076
1630411793822,2120
1630411793826,2173
1630411793830,2221
1630411793834,2249
1630411793838,2242
1630411793842,2202
1630411793846,2139
1630411793850,2075
1630411793854,2030
1630411793858,2011
1630411793862,2013
1630411793866,2026
1630411793870,2038
1630411793874,2043
1630411793878,2045
1630411793882,2045
1630411793886,2045
1630411793890,2046
1630411793894,2046
1630411793898,2046
1630411793902,2046
1630411793906,2046
1630411793910,2047
1630411793914,2048
1630411793918,2048
1630411793922,2049
1630411793926,2050
1630411793930,2050
1630411793934,2051
1630411793938,2051
1630411793942,2051
1630411793946,2052
1630411793950,2052
1630411793954,2053
1630411793958,2054
1630411793962,2055
1630411793966,2056
1630411793970,2057
1630411793974,2058
1630411793978,2058
1630411793982,2058
1630411793986,2059
1630411793990,2060
1630411793994,2062
1630411793998,2064
1630411794002,2066
1630411794006,2068
1630411794010,2070
1630411794014,2071
1630411794018,2071
1630411794022,2072
1630411794026,2074
1630411794030,2075
1630411794034,2078
1630411794038,2080
1630411794042,2082
1630411794046,2083
1630411794050,2084
1630411794054,2085
1630411794058,2085
1630411794062,2085
1630411794066,2085
1630411794070,2085
1630411794074,2085
1630411794078,2085
1630411794082,2085
1630411794086,2085
1630411794090,2084
1630411794094,2082
1630411794098,2079
1630411794102,2075
1630411794106,2072
1630411794110,2068
1630411794114,2065
1630411794118,2062
1630411794122,2059
1630411794126,2056
1630411794130,2054
1630411794134,2051
1630411794138,2048
1630411794142,2047
1630411794146,2046
1630411794150,2045
1630411794154,2044
1630411794158,2044
1630411794162,2044
1630411794166,2044
1630411794170,2044
1630411794174,2044
1630411794178,2044
1630411794182,2044
1630411794186,2044
1630411794190,2044
1630411794194,2044
1630411794198,2045
1630411794202,2045
1630411794206,2046
1630411794210,2047
1630411794214,2047
1630411794218,2047
1630411794222,2046
1630411794226,2046
1630411794230,2046
1630411794234,2047
1630411794238,2048
1630411794242,2048
1630411794246,2049
1630411794250,2049
1630411794254,2050
1630411794258,2049
1630411794262,2049
1630411794266,2048
1630411794270,2048
1630411794274,2048
1630411794278,2048
1630411794282,2048
1630411794286,2048
1630411794290,2048
1630411794294,2048
1630411794298,2048
1630411794302,2048
1630411794306,2048
1630411794310,2047
1630411794314,2047
1630411794318,2047
1630411794322,2047
1630411794326,2048
1630411794330,2047
1630411794334,2047
1630411794338,2046
1630411794342,2045
1630411794346,2045
1630411794350,2046
1630411794354,2046
1630411794358,2047
1630411794362,2047
1630411794366,2046
1630411794370,2046
1630411794374,2045
1630411794378,2045
1630411794382,2044
1630411794386,2044
1630411794390,2044
1630411794394,2044
1630411794398,2045
1630411794402,2045
1630411794406,2045
1630411794410,2045
1630411794414,2044
1630411794418,2043
1630411794422,2043
1630411794426,2042
1630411794430,2042
1630411794434,2042
1630411794438,2042
1630411794442,2042
1630411794446,2041
1630411794450,2041
1630411794454,2040
1630411794458,2040
1630411794462,2040
1630411794466,2040
1630411794470,2042
1630411794474,2044
1630411794478,2047
1630411794482,2048
1630411794486,2049
1630411794490,2048
1630411794494,2046
1630411794498,2045
1630411794502,2043
1630411794506,2042
1630411794510,2042
1630411794514,2042
1630411794518,2043
1630411794522,2043
1630411794526,2043
1630411794530,2042
1630411794534,2042
1630411794538,2041
1630411794542,2040
1630411794546,2040
1630411794550,2040
1630411794554,2040
1630411794558,2041
1630411794562,2041
1630411794566,2041
1630411794570,2041
1630411794574,2042
1630411794578,2041
1630411794582,2038
1630411794586,2033
1630411794590,2028
1630411794594,2027
1630411794598,2037
1630411794602,2059
1630411794606,2099
1630411794610,2150
1630411794614,2201
1630411794618,2235
1630411794622,2238
1630411794626,2205
1630411794630,2146
1630411794634,2081
1630411794638,2032
1630411794642,2007
1630411794646,2005
1630411794650,2016
1630411794654,2028
1630411794658,2034
1630411794662,2035
1630411794666,2035
1630411794670,2035
1630411794674,2035
1630411794678,2036
1630411794682,2036
1630411794686,2036
1630411794690,2036
1630411794694,2036
1630411794698,2037
1630411794702,2037
1630411794706,2037
1630411794710,2037
1630411794714,2038
1630411794718,2039
1630411794722,2040
1630411794726,2040
1630411794730,2041
1630411794734,2042
1630411794738,2042
1630411794742,2043
1630411794746,2043
1630411794750,2043
1630411794754,2044
1630411794758,2045
1630411794762,2046
1630411794766,2048
1630411794770,2048
1630411794774,2048
1630411794778,2049
1630411794782,2050
1630411794786,2051
1630411794790,2052
1630411794794,2054
1630411794798,2055
1630411794802,2057
1630411794806,2058
1630411794810,2059
1630411794814,2061
1630411794818,2062
1630411794822,2063
1630411794826,2065
1630411794830,2066
1630411794834,2067
1630411794838,2068
1630411794842,2068
1630411794846,2069
1630411794850,2069
1630411794854,2068
1630411794858,2068
1630411794862,2068
1630411794866,2067
1630411794870,2067
1630411794874,2066
1630411794878,2064
1630411794882,2063
1630411794886,2061
1630411794890,2058
1630411794894,2055
1630411794898,2051
1630411794902,2048
1630411794906,2044
1630411794910,2041
1630411794914,2038
1630411794918,2035
1630411794922,2033
1630411794926,2031
1630411794930,2029
1630411794934,2027
1630411794938,2026
1630411794942,2024
1630411794946,2024
1630411794950,2024
1630411794954,2024
1630411794958,2024
1630411794962,2024
1630411794966,2024
1630411794970,2024
1630411794974,2024
1630411794978,2024
1630411794982,2025
1630411794986,2025
1630411794990,2026
1630411794994,2027
1630411794998,2027
1630411795002,2028
1630411795006,2028
1630411795010,2028
1630411795014,2028
1630411795018,2028
1630411795022,2028
1630411795026,2028
1630411795030,2028
1630411795034,2029
1630411795038,2029
1630411795042,2030
1630411795046,2030
1630411795050,2030
1630411795054,2030
1630411795058,2029
1630411795062,2028
1630411795066,2028
1630411795070,2028
1630411795074,2029
1630411795078,2030
1630411795082,2030
1630411795086,2030
1630411795090,2030
1630411795094,2029
1630411795098,2028
1630411795102,2028
1630411795106,2028
1630411795110,2028
1630411795114,2028
1630411795118,2028
1630411795122,2028
1630411795126,2027
1630411795130,2027
1630411795134,2026
1630411795138,2026
1630411795142,2026
1630411795146,2026
1630411795150,2026
1630411795154,2026
1630411795158,2026
1630411795162,2026
1630411795166,2026
1630411795170,2026
1630411795174,2027
1630411795178,2027
1630411795182,2027
1630411795186,2027
1630411795190,2026
1630411795194,2026
1630411795198,2026
1630411795202,2026
1630411795206,2027
1630411795210,2027
1630411795214,2026
1630411795218,2026
1630411795222,2025
1630411795226,2025
1630411795230,2025
1630411795234,2025
1630411795238,2026
1630411795242,2027
1630411795246,2030
1630411795250,2032
1630411795254,2034
1630411795258,2035
1630411795262,2035
1630411795266,2033
1630411795270,2031
1630411795274,2030
1630411795278,2030
1630411795282,2031
1630411795286,2032
1630411795290,2032
1630411795294,2031
1630411795298,2031
1630411795302,2030
1630411795306,2030
1630411795310,2030
1630411795314,2030
1630411795318,2031
1630411795322,2031
1630411795326,2032
1630411795330,2032
1630411795334,2032
1630411795338,2031
1630411795342,2031
1630411795346,2032
1630411795350,2033
1630411795354,2033
1630411795358,2030
1630411795362,2025
1630411795366,2021
1630411795370,2026
1630411795374,2043
1630411795378,2077
1630411795382,2129
1630411795386,2185
1630411795390,2227
1630411795394,2239
1630411795398,2211
1630411795402,2152
1630411795406,2083
1630411795410,2027
1630411795414,1996
1630411795418,1990
1630411795422,2001
1630411795426,2016
1630411795430,2025
1630411795434,2029
1630411795438,2032
1630411795442,2034
1630411795446,2035
1630411795450,2036
1630411795454,2037
1630411795458,2038
1630411795462,2038
1630411795466,2038
1630411795470,2039
1630411795474,2039
1630411795478,2041
1630411795482,2042
1630411795486,2044
1630411795490,2045
1630411795494,2046
1630411795498,2046
1630411795502,2046
1630411795506,2046
1630411795510,2047
1630411795514,2048
1630411795518,2049
1630411795522,2050
1630411795526,2051
1630411795530,2052
1630411795534,2053
1630411795538,2054
1630411795542,2054
1630411795546,2055
1630411795550,2057
1630411795554,2058
1630411795558,2060
1630411795562,2061
1630411795566,2062
1630411795570,2064
1630411795574,2065
1630411795578,2066
1630411795582,2067
1630411795586,2069
1630411795590,2070
1630411795594,2072
1630411795598,2074
1630411795602,2076
1630411795606,2077
1630411795610,2078
1630411795614,2078
1630411795618,2077
1630411795622,2077
1630411795626,2076
1630411795630,2076
1630411795634,2075
1630411795638,2075
1630411795642,2075
1630411795646,2075
1630411795650,2073
1630411795654,2071
1630411795658,2069
1630411795662,2065
1630411795666,2061
1630411795670,2058
1630411795674,2055
1630411795678,2052
1630411795682,2049
1630411795686,2048
1630411795690,2045
1630411795694,2042
1630411795698,2040
1630411795702,2038
1630411795706,2037
1630411795710,2036
1630411795714,2036
1630411795718,2036
1630411795722,2036
1630411795726,2035
1630411795730,2035
1630411795734,2035
1630411795738,2035
1630411795742,2035
1630411795746,2035
1630411795750,2035
1630411795754,2036
1630411795758,2036
1630411795762,2037
1630411795766,2038
1630411795770,2039
1630411795774,2039
1630411795778,2040
1630411795782,2040
1630411795786,2040
1630411795790,2041
1630411795794,2041
1630411795798,2042
1630411795802,2044
1630411795806,2045
1630411795810,2045
1630411795814,2045
1630411795818,2045
1630411795822,2044
1630411795826,2044
1630411795830,2045
1630411795834,2045
1630411795838,2045
1630411795842,2046
1630411795846,2046
1630411795850,2046
1630411795854,2046
1630411795858,2046
1630411795862,2046
1630411795866,2046
1630411795870,2045
1630411795874,2045
1630411795878,2046
1630411795882,2046
1630411795886,2046
1630411795890,2046
1630411795894,2045
1630411795898,2045
1630411795902,2046
1630411795906,2046
1630411795910,2046
1630411795914,2047
1630411795918,2047
1630411795922,2047
1630411795926,2047
1630411795930,2047
1630411795934,2047
1630411795938,2047
1630411795942,2047
1630411795946,2047
1630411795950,2047
1630411795954,2046
1630411795958,2046
1630411795962,2045
1630411795966,2046
1630411795970,2046
1630411795974,2046
1630411795978,2046
1630411795982,2045
1630411795986,2045
1630411795990,2045
1630411795994,2047
1630411795998,2049
1630411796002,2052
1630411796006,2055
1630411796010,2056
1630411796014,2056
1630411796018,2054
1630411796022,2051
1630411796026,2050
1630411796030,2049
1630411796034,2049
1630411796038,2049
1630411796042,2050
1630411796046,2051
1630411796050,2051
1630411796054,2051
1630411796058,2051
1630411796062,2050
1630411796066,2050
1630411796070,2050
1630411796074,2050
1630411796078,2050
1630411796082,2051
1630411796086,2051
1630411796090,2051
1630411796094,2052
1630411796098,2052
1630411796102,2053
1630411796106,2051
1630411796110,2048
1630411796114,2042
1630411796118,2039
1630411796122,2043
1630411796126,2059
1630411796130,2093
1630411796134,2143
1630411796138,2200
1630411796142,2250
1630411796146,2273
1630411796150,2259
1630411796154,2209
1630411796158,2139
1630411796162,2074
1630411796166,2032
1630411796170,2018
1630411796174,2025
1630411796178,2039
1630411796182,2048
1630411796186,2052
1630411796190,2052
1630411796194,2051
1630411796198,2052
1630411796202,2052
1630411796206,2052
1630411796210,2052
1630411796214,2052
1630411796218,2052
1630411796222,2052
1630411796226,2053
1630411796230,2053
1630411796234,2054
1630411796238,2055
1630411796242,2056
1630411796246,2057
1630411796250,2057
1630411796254,2058
1630411796258,2058
1630411796262,2058
1630411796266,2059
1630411796270,2060
1630411796274,2061
1630411796278,2062
1630411796282,2063
1630411796286,2064
1630411796290,2064
1630411796294,2065
1630411796298,2066
1630411796302,2067
1630411796306,2068
1630411796310,2070
1630411796314,2071
1630411796318,2073
1630411796322,2074
1630411796326,2076
1630411796330,2078
1630411796334,2079
1630411796338,2080
1630411796342,2082
1630411796346,2083
1630411796350,2085
1630411796354,2087
1630411796358,2088
1630411796362,2090
1630411796366,2091
1630411796370,2091
1630411796374,2091
1630411796378,2090
1630411796382,2089
1630411796386,2088
1630411796390,2088
1630411796394,2088
1630411796398,2087
1630411796402,2087
1630411796406,2085
1630411796410,2082
1630411796414,2079
1630411796418,2075
1630411796422,2070
1630411796426,2066
1630411796430,2062
1630411796434,2059
1630411796438,2056
1630411796442,2054
1630411796446,2052
1630411796450,2049
1630411796454,2048
1630411796458,2047
1630411796462,2045
1630411796466,2044
1630411796470,2044
1630411796474,2044
1630411796478,2045
1630411796482,2045
1630411796486,2045
1630411796490,2045
1630411796494,2045
1630411796498,2045
1630411796502,2045
1630411796506,2045
1630411796510,2046
1630411796514,2046
1630411796518,2046
1630411796522,2046
1630411796526,2047
1630411796530,2048
1630411796534,2048
1630411796538,2048
1630411796542,2047
1630411796546,2047
1630411796550,2047
1630411796554,2048
1630411796558,2048
1630411796562,2049
1630411796566,2049
1630411796570,2050
1630411796574,2050
1630411796578,2049
1630411796582,2048
1630411796586,2048
1630411796590,2048
1630411796594,2048
1630411796598,2048
1630411796602,2049
1630411796606,2049
1630411796610,2048
1630411796614,2048
1630411796618,2048
1630411796622,2048
1630411796626,2048
1630411796630,2048
1630411796634,2048
1630411796638,2048
1630411796642,2048
1630411796646,2048
1630411796650,2048
1630411796654,2048
1630411796658,2047
1630411796662,2046
1630411796666,2046
1630411796670,2046
1630411796674,2046
1630411796678,2046
1630411796682,2046
1630411796686,2046
1630411796690,2046
1630411796694,2046
1630411796698,2046
1630411796702,2046
1630411796706,2046
1630411796710,2046
1630411796714,2045
1630411796718,2045
1630411796722,2045
1630411796726,2045
1630411796730,2045
1630411796734,2044
1630411796738,2044
1630411796742,2043
1630411796746,2042
1630411796750,2042
1630411796754,2042
1630411796758,2043
1630411796762,2045
1630411796766,2048
1630411796770,2050
1630411796774,2051
1630411796778,2052
1630411796782,2050
1630411796786,2048
1630411796790,2047
1630411796794,2046
1630411796798,2047
1630411796802,2047
1630411796806,2047
1630411796810,2047
1630411796814,2046
1630411796818,2046
1630411796822,2045
1630411796826,2045
1630411796830,2045
1630411796834,2045
1630411796838,2045
1630411796842,2045
1630411796846,2045
1630411796850,2045
1630411796854,2045
1630411796858,2045
1630411796862,2045
1630411796866,2046
1630411796870,2046
1630411796874,2045
1630411796878,2042
1630411796882,2036
1630411796886,2031
1630411796890,2034
1630411796894,2048
1630411796898,2078
1630411796902,2124
1630411796906,2179
1630411796910,2228
1630411796914,2253
1630411796918,2242
1630411796922,2196
1630411796926,2130
1630411796930,2067
1630411796934,2025
1630411796938,2010
1630411796942,2016
1630411796946,2029
1630411796950,2040
1630411796954,2044
1630411796958,2045
1630411796962,2045
1630411796966,2045
1630411796970,2045
1630411796974,2045
1630411796978,2045
1630411796982,2045
1630411796986,2045
1630411796990,2045
1630411796994,2046
1630411796998,2047
1630411797002,2048
1630411797006,2049
1630411797010,2050
1630411797014,2051
1630411797018,2051
1630411797022,2051
1630411797026,2051
1630411797030,2051
1630411797034,2051
1630411797038,2052
1630411797042,2054
1630411797046,2055
1630411797050,2057
1630411797054,2058
1630411797058,2059
1630411797062,2059
1630411797066,2060
1630411797070,2061
1630411797074,2062
1630411797078,2063
1630411797082,2065
1630411797086,2066
1630411797090,2067
1630411797094,2068
1630411797098,2068
1630411797102,2070
1630411797106,2072
1630411797110,2074
1630411797114,2077
1630411797118,2079
1630411797122,2081
1630411797126,2082
1630411797130,2083
1630411797134,2084
1630411797138,2084
1630411797142,2084
1630411797146,2085
1630411797150,2085
1630411797154,2085
1630411797158,2085
1630411797162,2085
1630411797166,2084
1630411797170,2083
1630411797174,2082
1630411797178,2079
1630411797182,2076
1630411797186,2072
1630411797190,2068
1630411797194,2065
1630411797198,2061
1630411797202,2058
1630411797206,2056
1630411797210,2053
1630411797214,2051
1630411797218,2048
1630411797222,2047
1630411797226,2045
1630411797230,2044
1630411797234,2044
1630411797238,2044
1630411797242,2045
1630411797246,2045
1630411797250,2045
1630411797254,2045
1630411797258,2044
1630411797262,2044
1630411797266,2044
1630411797270,2045
1630411797274,2046
1630411797278,2046
1630411797282,2047
1630411797286,2047
1630411797290,2047
1630411797294,2048
1630411797298,2048
1630411797302,2048
1630411797306,2048
1630411797310,2048
1630411797314,2049
1630411797318,2049
1630411797322,2050
1630411797326,2050
1630411797330,2050
1630411797334,2050
1630411797338,2050
1630411797342,2050
1630411797346,2050
1630411797350,2050
1630411797354,2050
1630411797358,2050
1630411797362,2050
1630411797366,2050
1630411797370,2050
1630411797374,2049
1630411797378,2049
1630411797382,2049
1630411797386,2048
1630411797390,2048
1630411797394,2048
1630411797398,2048
1630411797402,2048
1630411797406,2048
1630411797410,2048
1630411797414,2048
1630411797418,2048
1630411797422,2048
1630411797426,2047
1630411797430,2047
1630411797434,2047
1630411797438,2046
1630411797442,2046
1630411797446,2047
1630411797450,2047
1630411797454,2047
1630411797458,2046
1630411797462,2045
1630411797466,2045
1630411797470,2045
1630411797474,2046
1630411797478,2047
1630411797482,2047
1630411797486,2047
1630411797490,2046
1630411797494,2046
1630411797498,2046
1630411797502,2046
1630411797506,2046
1630411797510,2046
1630411797514,2046
1630411797518,2045
1630411797522,2045
1630411797526,2044
1630411797530,2044
1630411797534,2043
1630411797538,2043
1630411797542,2042
1630411797546,2042
1630411797550,2042
1630411797554,2042
1630411797558,2044
1630411797562,2046
1630411797566,2048
1630411797570,2050
1630411797574,2051
1630411797578,2050
1630411797582,2048
1630411797586,2047
1630411797590,2046
1630411797594,2046
1630411797598,2046
1630411797602,2046
1630411797606,2046
1630411797610,2046
1630411797614,2045
1630411797618,2045
1630411797622,2044
1630411797626,2044
1630411797630,2044
1630411797634,2044
1630411797638,2045
1630411797642,2045
1630411797646,2045
1630411797650,2045
1630411797654,2045
1630411797658,2045
1630411797662,2046
1630411797666,2047
1630411797670,2046
1630411797674,2042
1630411797678,2036
1630411797682,2032
1630411797686,2036
1630411797690,2052
1630411797694,2084
1630411797698,2131
1630411797702,2184
1630411797706,2228
1630411797710,2247
1630411797714,2230
1630411797718,2181
1630411797722,2117
1630411797726,2058
1630411797730,2022
1630411797734,2011
1630411797738,2018
1630411797742,2031
1630411797746,2040
1630411797750,2044
1630411797754,2044
1630411797758,2044
1630411797762,2044
1630411797766,2044
1630411797770,2044
1630411797774,2044
1630411797778,2044
1630411797782,2044
1630411797786,2044
1630411797790,2044
1630411797794,2045
1630411797798,2045
1630411797802,2046
1630411797806,2047
1630411797810,2047
1630411797814,2048
1630411797818,2048
1630411797822,2048
1630411797826,2049
1630411797830,2049
1630411797834,2050
1630411797838,2050
1630411797842,2051
1630411797846,2053
1630411797850,2054
1630411797854,2055
1630411797858,2056
1630411797862,2057
1630411797866,2057
1630411797870,2058
1630411797874,2059
1630411797878,2061
1630411797882,2062
1630411797886,2064
1630411797890,2065
1630411797894,2066
1630411797898,2066
1630411797902,2067
1630411797906,2068
1630411797910,2069
1630411797914,2071
1630411797918,2073
1630411797922,2074
1630411797926,2076
1630411797930,2076
1630411797934,2076
1630411797938,2076
1630411797942,2076
1630411797946,2075
1630411797950,2075
1630411797954,2075
1630411797958,2075
1630411797962,2075
1630411797966,2074
1630411797970,2073
1630411797974,2070
1630411797978,2068
1630411797982,2064
1630411797986,2060
1630411797990,2056
1630411797994,2052
1630411797998,2049
1630411798002,2047
1630411798006,2044
1630411798010,2042
1630411798014,2040
1630411798018,2038
1630411798022,2036
1630411798026,2034
1630411798030,2034
1630411798034,2033
1630411798038,2034
1630411798042,2034
1630411798046,2034
1630411798050,2034
1630411798054,2034
1630411798058,2034
1630411798062,2034
1630411798066,2033
1630411798070,2034
1630411798074,2034
1630411798078,2035
1630411798082,2036
1630411798086,2037
1630411798090,2037
1630411798094,2036
1630411798098,2036
1630411798102,2036
1630411798106,2036
1630411798110,2037
1630411798114,2037
1630411798118,2038
1630411798122,2038
1630411798126,2039
1630411798130,2039
1630411798134,2038
1630411798138,2038
1630411798142,2037
1630411798146,2037
1630411798150,2037
1630411798154,2037
1630411798158,2037
1630411798162,2037
1630411798166,2037
1630411798170,2036
1630411798174,2036
1630411798178,2036
1630411798182,2036
1630411798186,2036
1630411798190,2036
1630411798194,2035
1630411798198,2035
1630411798202,2034
1630411798206,2034
1630411798210,2034
1630411798214,2034
1630411798218,2034
1630411798222,2033
1630411798226,2033
1630411798230,2033
1630411798234,2033
1630411798238,2033
1630411798242,2033
1630411798246,2033
1630411798250,2033
1630411798254,2033
1630411798258,2033
1630411798262,2032
1630411798266,2032
1630411798270,2032
1630411798274,2032
1630411798278,2032
1630411798282,2032
1630411798286,2032
1630411798290,2032
1630411798294,2032
1630411798298,2031
1630411798302,2030
1630411798306,2030
1630411798310,2030
1630411798314,2030
1630411798318,2031
1630411798322,2033
1630411798326,2036
1630411798330,2038
1630411798334,2040
1630411798338,2040
1630411798342,2039
1630411798346,2037
1630411798350,2036
1630411798354,2035
1630411798358,2035
1630411798362,2036
1630411798366,2036
1630411798370,2035
1630411798374,2034
1630411798378,2033
1630411798382,2033
1630411798386,2033
1630411798390,2033
1630411798394,2034
1630411798398,2035
1630411798402,2035
1630411798406,2035
1630411798410,2034
1630411798414,2033
1630411798418,2033
1630411798422,2034
1630411798426,2036
1630411798430,2037
1630411798434,2035
1630411798438,2030
1630411798442,2024
1630411798446,2023
1630411798450,2032
1630411798454,2056
1630411798458,2100
1630411798462,2155
1630411798466,2207
1630411798470,2236
1630411798474,2231
1630411798478,2189
1630411798482,2125
1630411798486,2060
1630411798490,2016
1630411798494,1996
1630411798498,1999
1630411798502,2012
1630411798506,2025
1630411798510,2031
1630411798514,2034
1630411798518,2036
1630411798522,2036
1630411798526,2037
1630411798530,2038
1630411798534,2038
1630411798538,2038
1630411798542,2038
1630411798546,2039
1630411798550,2039
1630411798554,2040
1630411798558,2041
1630411798562,2042
1630411798566,2043
1630411798570,2045
1630411798574,2045
1630411798578,2046
1630411798582,2046
1630411798586,2046
1630411798590,2046
1630411798594,2047
1630411798598,2048
1630411798602,2049
1630411798606,2050
1630411798610,2052
1630411798614,2053
1630411798618,2054
1630411798622,2055
1630411798626,2056
1630411798630,2057
1630411798634,2058
1630411798638,2060
1630411798642,2061
1630411798646,2063
1630411798650,2064
1630411798654,2065
1630411798658,2066
1630411798662,2067
1630411798666,2068
1630411798670,2070
1630411798674,2072
1630411798678,2074
1630411798682,2076
1630411798686,2077
1630411798690,2078
1630411798694,2078
1630411798698,2077
1630411798702,2076
1630411798706,2076
1630411798710,2075
1630411798714,2075
1630411798718,2075
1630411798722,2075
1630411798726,2074
1630411798730,2072
1630411798734,2070
1630411798738,2067
1630411798742,2063
1630411798746,2060
1630411798750,2057
1630411798754,2053
1630411798758,2050
1630411798762,2048
1630411798766,2045
1630411798770,2043
1630411798774,2041
1630411798778,2039
1630411798782,2037
1630411798786,2035
1630411798790,2034
1630411798794,2033
1630411798798,2033
1630411798802,2033
1630411798806,2033
1630411798810,2034
1630411798814,2034
1630411798818,2034
1630411798822,2033
1630411798826,2033
1630411798830,2033
1630411798834,2034
1630411798838,2035
1630411798842,2035
1630411798846,2036
1630411798850,2036
1630411798854,2036
1630411798858,2036
1630411798862,2036
1630411798866,2036
1630411798870,2037
1630411798874,2038
1630411798878,2038
1630411798882,2039
1630411798886,2040
1630411798890,2040
1630411798894,2040
1630411798898,2039
1630411798902,2039
1630411798906,2039
1630411798910,2039
1630411798914,2039
1630411798918,2040
1630411798922,2040
1630411798926,2040
1630411798930,2039
1630411798934,2039
1630411798938,2039
1630411798942,2038
1630411798946,2038
1630411798950,2037
1630411798954,2038
1630411798958,2038
1630411798962,2039
1630411798966,2039
1630411798970,2039
1630411798974,2039
1630411798978,2038
1630411798982,2038
1630411798986,2037
1630411798990,2037
1630411798994,2038
1630411798998,2038
1630411799002,2039
1630411799006,2039
1630411799010,2038
1630411799014,2038
1630411799018,2037
1630411799022,2037
1630411799026,2036
1630411799030,2037
1630411799034,2037
1630411799038,2037
1630411799042,2038
1630411799046,2040
1630411799050,2043
1630411799054,2045
1630411799058,2047
1630411799062,2047
1630411799066,2047
1630411799070,2045
1630411799074,2045
1630411799078,2044
1630411799082,2045
1630411799086,2045
1630411799090,2044
1630411799094,2043
1630411799098,2043
1630411799102,2042
1630411799106,2043
1630411799110,2043
1630411799114,2044
1630411799118,2044
1630411799122,2044
1630411799126,2044
1630411799130,2044
1630411799134,2044
1630411799138,2044
1630411799142,2045
1630411799146,2045
1630411799150,2047
1630411799154,2048
1630411799158,2047
1630411799162,2042
1630411799166,2036
1630411799170,2033
1630411799174,2040
1630411799178,2061
1630411799182,2102
1630411799186,2157
1630411799190,2214
1630411799194,2254
1630411799198,2261
1630411799202,2228
1630411799206,2166
1630411799210,2096
1630411799214,2042
1630411799218,2014
1630411799222,2011
1630411799226,2023
1630411799230,2037
1630411799234,2045
1630411799238,2048
1630411799242,2048
1630411799246,2049
1630411799250,2049
1630411799254,2050
1630411799258,2050
1630411799262,2051
1630411799266,2051
1630411799270,2052
1630411799274,2053
1630411799278,2053
1630411799282,2054
1630411799286,2055
1630411799290,2056
1630411799294,2057
1630411799298,2057
1630411799302,2058
1630411799306,2058
1630411799310,2059
1630411799314,2060
1630411799318,2061
1630411799322,2062
1630411799326,2064
1630411799330,2065
1630411799334,2066
1630411799338,2067
1630411799342,2067
1630411799346,2068
1630411799350,2069
1630411799354,2070
1630411799358,2072
1630411799362,2074
1630411799366,2075
1630411799370,2077
1630411799374,2078
1630411799378,2079
1630411799382,2081
1630411799386,2082
1630411799390,2084
1630411799394,2086
1630411799398,2088
1630411799402,2090
1630411799406,2091
1630411799410,2092
1630411799414,2092
1630411799418,2092
1630411799422,2092
1630411799426,2092
1630411799430,2092
1630411799434,2092
1630411799438,2092
1630411799442,2091
1630411799446,2090
1630411799450,2089
1630411799454,2087
1630411799458,2084
1630411799462,2081
1630411799466,2077
1630411799470,2073
1630411799474,2069
1630411799478,2066
1630411799482,2064
1630411799486,2061
1630411799490,2059
1630411799494,2056
1630411799498,2054
1630411799502,2052
1630411799506,2051
1630411799510,2050
1630411799514,2049
1630411799518,2049
1630411799522,2048
1630411799526,2048
1630411799530,2049
1630411799534,2049
1630411799538,2049
1630411799542,2048
1630411799546,2048
1630411799550,2049
1630411799554,2049
1630411799558,2050
1630411799562,2051
1630411799566,2051
1630411799570,2052
1630411799574,2052
1630411799578,2052
1630411799582,2052
1630411799586,2052
1630411799590,2053
1630411799594,2053
1630411799598,2054
1630411799602,2054
1630411799606,2055
1630411799610,2055
1630411799614,2056
1630411799618,2056
1630411799622,2055
1630411799626,2056
1630411799630,2056
1630411799634,2056
1630411799638,2057
1630411799642,2057
1630411799646,2057
1630411799650,2056
1630411799654,2056
1630411799658,2056
1630411799662,2056
1630411799666,2055
1630411799670,2055
1630411799674,2055
1630411799678,2055
1630411799682,2055
1630411799686,2055
1630411799690,2054
1630411799694,2054
1630411799698,2053
1630411799702,2053
1630411799706,2052
1630411799710,2052
1630411799714,2052
1630411799718,2052
1630411799722,2053
1630411799726,2053
1630411799730,2053
1630411799734,2052
1630411799738,2052
1630411799742,2052
1630411799746,2051
1630411799750,2050
1630411799754,2050
1630411799758,2050
1630411799762,2050
1630411799766,2050
1630411799770,2050
1630411799774,2049
1630411799778,2049
1630411799782,2048
1630411799786,2048
1630411799790,2048
1630411799794,2050
1630411799798,2053
1630411799802,2056
1630411799806,2058
1630411799810,2058
1630411799814,2057
1630411799818,2055
1630411799822,2053
1630411799826,2051
1630411799830,2051
1630411799834,2051
1630411799838,2051
1630411799842,2051
1630411799846,2051
1630411799850,2051
1630411799854,2051
1630411799858,2050
1630411799862,2049
1630411799866,2049
1630411799870,2049
1630411799874,2049
1630411799878,2050
1630411799882,2050
1630411799886,2050
1630411799890,2050
1630411799894,2051
1630411799898,2052
1630411799902,2052
1630411799906,2050
1630411799910,2046
1630411799914,2039
1630411799918,2036
1630411799922,2042
1630411799926,2061
1630411799930,2098
1630411799934,2148
1630411799938,2203
1630411799942,2245
1630411799946,2259
1630411799950,2235
1630411799954,2180
1630411799958,2112
1630411799962,2054
1630411799966,2022
1630411799970,2015
1630411799974,2025
1630411799978,2039
1630411799982,2047
1630411799986,2048
1630411799990,2048
1630411799994,2048
1630411799998,2048
1630411800002,2048
1630411800006,2049
1630411800010,2049
1630411800014,2049
1630411800018,2050
1630411800022,2050
1630411800026,2050
1630411800030,2050
1630411800034,2050
1630411800038,2051
1630411800042,2053
1630411800046,2053
1630411800050,2054
1630411800054,2054
1630411800058,2055
1630411800062,2055
1630411800066,2055
1630411800070,2055
1630411800074,2056
1630411800078,2057
1630411800082,2059
1630411800086,2060
1630411800090,2061
1630411800094,2061
1630411800098,2062
1630411800102,2062
1630411800106,2063
1630411800110,2065
1630411800114,2067
1630411800118,2068
1630411800122,2070
1630411800126,2071
1630411800130,2072
1630411800134,2074
1630411800138,2075
1630411800142,2077
1630411800146,2078
1630411800150,2080
1630411800154,2081
1630411800158,2083
1630411800162,2084
1630411800166,2085
1630411800170,2085
1630411800174,2085
1630411800178,2085
1630411800182,2084
1630411800186,2084
1630411800190,2084
1630411800194,2084
1630411800198,2083
1630411800202,2082
1630411800206,2080
1630411800210,2077
1630411800214,2073
1630411800218,2070
1630411800222,2065
1630411800226,2062
1630411800230,2058
1630411800234,2056
1630411800238,2053
1630411800242,2051
1630411800246,2049
1630411800250,2048
1630411800254,2047
1630411800258,2046
1630411800262,2045
1630411800266,2044
1630411800270,2043
1630411800274,2043
1630411800278,2043
1630411800282,2043
1630411800286,2044
1630411800290,2045
1630411800294,2045
1630411800298,2045
1630411800302,2045
1630411800306,2044
1630411800310,2045
1630411800314,2045
1630411800318,2046
1630411800322,2046
1630411800326,2047
1630411800330,2047
1630411800334,2048
1630411800338,2047
1630411800342,2047
1630411800346,2047
1630411800350,2047
1630411800354,2048
1630411800358,2048
1630411800362,2048
1630411800366,2049
1630411800370,2049
1630411800374,2049
1630411800378,2049
1630411800382,2048
1630411800386,2048
1630411800390,2048
1630411800394,2048
1630411800398,2048
1630411800402,2048
1630411800406,2049
1630411800410,2049
1630411800414,2048
1630411800418,2048
1630411800422,2047
1630411800426,2047
1630411800430,2047
1630411800434,2047
1630411800438,2047
1630411800442,2048
1630411800446,2048
1630411800450,2048
1630411800454,2047
1630411800458,2047
1630411800462,2046
1630411800466,2046
1630411800470,2045
1630411800474,2045
1630411800478,2045
1630411800482,2046
1630411800486,2046
1630411800490,2046
1630411800494,2045
1630411800498,2045
1630411800502,2044
1630411800506,2044
1630411800510,2043
1630411800514,2043
1630411800518,2043
1630411800522,2043
1630411800526,2042
1630411800530,2042
1630411800534,2042
1630411800538,2041
1630411800542,2042
1630411800546,2044
1630411800550,2046
1630411800554,2048
1630411800558,2051
1630411800562,2051
1630411800566,2050
1630411800570,2049
1630411800574,2048
1630411800578,2046
1630411800582,2044
1630411800586,2044
1630411800590,2043
1630411800594,2043
1630411800598,2043
1630411800602,2043
1630411800606,2043
1630411800610,2043
1630411800614,2043
1630411800618,2042
1630411800622,2041
1630411800626,2041
1630411800630,2040
1630411800634,2040
1630411800638,2040
1630411800642,2041
1630411800646,2042
1630411800650,2043
1630411800654,2043
1630411800658,2040
1630411800662,2034
1630411800666,2028
1630411800670,2026
1630411800674,2035
1630411800678,2057
1630411800682,2097
1630411800686,2150
1630411800690,2203
1630411800694,2238
1630411800698,2241
1630411800702,2208
1630411800706,2147
1630411800710,2081
1630411800714,2031
1630411800718,2005
1630411800722,2005
1630411800726,2017
1630411800730,2030
1630411800734,2037
1630411800738,2038
1630411800742,2037
1630411800746,2036
1630411800750,2036
1630411800754,2035
1630411800758,2036
1630411800762,2036
1630411800766,2037
1630411800770,2038
1630411800774,2038
1630411800778,2038
1630411800782,2038
1630411800786,2039
1630411800790,2039
1630411800794,2039
1630411800798,2040
1630411800802,2040
1630411800806,2041
1630411800810,2041
1630411800814,2042
1630411800818,2042
1630411800822,2042
1630411800826,2043
1630411800830,2044
1630411800834,2045
1630411800838,2046
1630411800842,2047
1630411800846,2048
1630411800850,2049
1630411800854,2050
1630411800858,2050
1630411800862,2051
1630411800866,2052
1630411800870,2053
1630411800874,2055
1630411800878,2056
1630411800882,2058
1630411800886,2060
1630411800890,2062
1630411800894,2064
1630411800898,2066
1630411800902,2067
1630411800906,2067
1630411800910,2068
1630411800914,2069
1630411800918,2069
1630411800922,2070
1630411800926,2071
1630411800930,2071
1630411800934,2070
1630411800938,2069
1630411800942,2068
1630411800946,2067
1630411800950,2066
1630411800954,2065
1630411800958,2063
1630411800962,2061
1630411800966,2058
1630411800970,2054
1630411800974,2050
1630411800978,2047
1630411800982,2043
1630411800986,2040
1630411800990,2037
1630411800994,2035
1630411800998,2033
1630411801002,2032
1630411801006,2031
1630411801010,2030
1630411801014,2029
1630411801018,2028
1630411801022,2027
1630411801026,2027
1630411801030,2026
1630411801034,2026
1630411801038,2027
1630411801042,2028
1630411801046,2028
1630411801050,2028
1630411801054,2028
1630411801058,2028
1630411801062,2028
1630411801066,2028
1630411801070,2028
1630411801074,2029
1630411801078,2030
1630411801082,2031
1630411801086,2032
1630411801090,2032
1630411801094,2031
1630411801098,2031
1630411801102,2030
1630411801106,2030
1630411801110,2030
1630411801114,2031
1630411801118,2032
1630411801122,2032
1630411801126,2033
1630411801130,2033
1630411801134,2033
1630411801138,2033
1630411801142,2033
1630411801146,2032
1630411801150,2032
1630411801154,2032
1630411801158,2032
1630411801162,2031
1630411801166,2031
1630411801170,2031
1630411801174,2031
1630411801178,2031
1630411801182,2030
1630411801186,2030
1630411801190,2030
1630411801194,2030
1630411801198,2031
1630411801202,2030
1630411801206,2030
1630411801210,2029
1630411801214,2029
1630411801218,2029
1630411801222,2029
1630411801226,2029
1630411801230,2029
1630411801234,2029
1630411801238,2029
1630411801242,2029
1630411801246,2029
1630411801250,2029
1630411801254,2029
1630411801258,2029
1630411801262,2028
1630411801266,2028
1630411801270,2027
1630411801274,2027
1630411801278,2028
1630411801282,2029
1630411801286,2030
1630411801290,2032
1630411801294,2034
1630411801298,2035
1630411801302,2036
1630411801306,2036
1630411801310,2035
1630411801314,2034
1630411801318,2034
1630411801322,2033
1630411801326,2033
1630411801330,2033
1630411801334,2032
1630411801338,2032
1630411801342,2031
1630411801346,2031
1630411801350,2031
1630411801354,2032
1630411801358,2033
1630411801362,2033
1630411801366,2033
1630411801370,2033
1630411801374,2033
1630411801378,2032
1630411801382,2032
1630411801386,2032
1630411801390,2033
1630411801394,2034
1630411801398,2033
1630411801402,2029
1630411801406,2024
1630411801410,2022
1630411801414,2031
1630411801418,2053
1630411801422,2096
1630411801426,2151
1630411801430,2204
1630411801434,2235
1630411801438,2231
1630411801442,2190
1630411801446,2125
1630411801450,2059
1630411801454,2013
1630411801458,1993
1630411801462,1995
1630411801466,2008
1630411801470,2021
1630411801474,2028
1630411801478,2032
1630411801482,2034
1630411801486,2036
1630411801490,2037
1630411801494,2038
1630411801498,2038
1630411801502,2038
1630411801506,2039
1630411801510,2040
1630411801514,2041
1630411801518,2042
1630411801522,2043
1630411801526,2044
1630411801530,2045
1630411801534,2046
1630411801538,2046
1630411801542,2046
1630411801546,2046
1630411801550,2047
1630411801554,2048
1630411801558,2049
1630411801562,2050
1630411801566,2052
1630411801570,2053
1630411801574,2054
1630411801578,2054
1630411801582,2055
1630411801586,2055
1630411801590,2057
1630411801594,2058
1630411801598,2060
1630411801602,2061
1630411801606,2063
1630411801610,2064
1630411801614,2065
1630411801618,2066
1630411801622,2067
1630411801626,2069
1630411801630,2071
1630411801634,2073
1630411801638,2075
1630411801642,2077
1630411801646,2078
1630411801650,2078
1630411801654,2078
1630411801658,2078
1630411801662,2078
1630411801666,2078
1630411801670,2078
1630411801674,2077
1630411801678,2077
1630411801682,2076
1630411801686,2076
1630411801690,2075
1630411801694,2073
1630411801698,2070
1630411801702,2066
1630411801706,2063
1630411801710,2059
1630411801714,2056
1630411801718,2053
1630411801722,2050
1630411801726,2048
1630411801730,2046
1630411801734,2043
1630411801738,2041
1630411801742,2039
1630411801746,2038
1630411801750,2037
1630411801754,2037
1630411801758,2036
1630411801762,2036
1630411801766,2036
1630411801770,2036
1630411801774,2036
1630411801778,2036
1630411801782,2037
1630411801786,2037
1630411801790,2037
1630411801794,2038
1630411801798,2038
1630411801802,2039
1630411801806,2040
1630411801810,2041
1630411801814,2041
1630411801818,2042
1630411801822,2042
1630411801826,2042
1630411801830,2043
1630411801834,2044
1630411801838,2046
1630411801842,2047
1630411801846,2047
1630411801850,2048
1630411801854,2047
1630411801858,2047
1630411801862,2047
1630411801866,2047
1630411801870,2047
1630411801874,2047
1630411801878,2048
1630411801882,2048
1630411801886,2048
1630411801890,2048
1630411801894,2048
1630411801898,2048
1630411801902,2048
1630411801906,2048
1630411801910,2048
1630411801914,2048
1630411801918,2048
1630411801922,2048
1630411801926,2048
1630411801930,2048
1630411801934,2048
1630411801938,2048
1630411801942,2048
1630411801946,2048
1630411801950,2048
1630411801954,2048
1630411801958,2048
1630411801962,2048
1630411801966,2049
1630411801970,2049
1630411801974,2049
1630411801978,2049
1630411801982,2049
1630411801986,2048
1630411801990,2048
1630411801994,2048
1630411801998,2048
1630411802002,2048
1630411802006,2048
1630411802010,2048
1630411802014,2048
1630411802018,2048
1630411802022,2047
1630411802026,2047
1630411802030,2048
1630411802034,2050
1630411802038,2053
1630411802042,2056
1630411802046,2058
1630411802050,2058
1630411802054,2057
1630411802058,2055
1630411802062,2053
1630411802066,2052
1630411802070,2052
1630411802074,2052
1630411802078,2053
1630411802082,2053
1630411802086,2053
1630411802090,2053
1630411802094,2052
1630411802098,2052
1630411802102,2051
1630411802106,2051
1630411802110,2051
1630411802114,2051
1630411802118,2052
1630411802122,2052
1630411802126,2052
1630411802130,2052
1630411802134,2053
1630411802138,2054
1630411802142,2054
1630411802146,2050
1630411802150,2045
1630411802154,2039
1630411802158,2040
1630411802162,2053
1630411802166,2083
1630411802170,2130
1630411802174,2186
1630411802178,2238
1630411802182,2266
1630411802186,2259
1630411802190,2216
1630411802194,2149
1630411802198,2083
1630411802202,2038
1630411802206,2019
1630411802210,2023
1630411802214,2036
1630411802218,2048
1630411802222,2051
1630411802226,2051
1630411802230,2051
1630411802234,2051
1630411802238,2051
1630411802242,2051
1630411802246,2051
1630411802250,2052
1630411802254,2052
1630411802258,2052
1630411802262,2053
1630411802266,2053
1630411802270,2053
1630411802274,2054
1630411802278,2055
1630411802282,2055
1630411802286,2056
1630411802290,2056
1630411802294,2057
1630411802298,2058
1630411802302,2058
1630411802306,2059
1630411802310,2059
1630411802314,2060
1630411802318,2062
1630411802322,2063
1630411802326,2064
1630411802330,2064
1630411802334,2065
1630411802338,2066
1630411802342,2067
1630411802346,2068
1630411802350,2069
1630411802354,2071
1630411802358,2073
1630411802362,2074
1630411802366,2076
1630411802370,2077
1630411802374,2078
1630411802378,2079
1630411802382,2081
1630411802386,2082
1630411802390,2084
1630411802394,2086
1630411802398,2087
1630411802402,2088
1630411802406,2088
1630411802410,2088
1630411802414,2087
1630411802418,2086
1630411802422,2086
1630411802426,2085
1630411802430,2085
1630411802434,2084
1630411802438,2083
1630411802442,2081
1630411802446,2078
1630411802450,2075
1630411802454,2072
1630411802458,2069
1630411802462,2065
1630411802466,2061
1630411802470,2057
1630411802474,2054
1630411802478,2051
1630411802482,2049
1630411802486,2048
1630411802490,2047
1630411802494,2046
1630411802498,2045
1630411802502,2044
1630411802506,2044
1630411802510,2044
1630411802514,2044
1630411802518,2044
1630411802522,2045
1630411802526,2045
1630411802530,2045
1630411802534,2045
1630411802538,2045
1630411802542,2045
1630411802546,2045
1630411802550,2045
1630411802554,2045
1630411802558,2046
1630411802562,2047
1630411802566,2047
1630411802570,2047
1630411802574,2047
1630411802578,2047
1630411802582,2047
1630411802586,2048
1630411802590,2048
1630411802594,2048
1630411802598,2048
1630411802602,2048
1630411802606,2048
1630411802610,2049
1630411802614,2049
1630411802618,2050
1630411802622,2050
1630411802626,2049
1630411802630,2049
1630411802634,2049
1630411802638,2049
1630411802642,2050
1630411802646,2050
1630411802650,2050
1630411802654,2050
1630411802658,2049
1630411802662,2048
1630411802666,2048
1630411802670,2048
1630411802674,2048
1630411802678,2048
1630411802682,2048
1630411802686,2048
1630411802690,2048
1630411802694,2048
1630411802698,2048
1630411802702,2048
1630411802706,2048
1630411802710,2048
1630411802714,2048
1630411802718,2048
1630411802722,2048
1630411802726,2048
1630411802730,2048
1630411802734,2048
1630411802738,2048
1630411802742,2048
1630411802746,2048
1630411802750,2048
1630411802754,2048
1630411802758,2048
1630411802762,2048
1630411802766,2047
1630411802770,2047
1630411802774,2046
1630411802778,2046
1630411802782,2046
1630411802786,2045
1630411802790,2045
1630411802794,2045
1630411802798,2046
1630411802802,2047
1630411802806,2049
1630411802810,2052
1630411802814,2054
1630411802818,2054
1630411802822,2053
1630411802826,2051
1630411802830,2049
1630411802834,2048
1630411802838,2048
1630411802842,2049
1630411802846,2049
1630411802850,2049
1630411802854,2048
1630411802858,2048
1630411802862,2048
1630411802866,2048
1630411802870,2047
1630411802874,2047
1630411802878,2047
1630411802882,2047
1630411802886,2047
1630411802890,2047
1630411802894,2047
1630411802898,2047
1630411802902,2048
1630411802906,2048
1630411802910,2048
1630411802914,2047
1630411802918,2042
1630411802922,2037
1630411802926,2036
1630411802930,2045
1630411802934,2067
1630411802938,2107
1630411802942,2159
1630411802946,2211
1630411802950,2247
1630411802954,2250
1630411802958,2217
1630411802962,2157
1630411802966,2091
1630411802970,2040
1630411802974,2015
1630411802978,2014
1630411802982,2026
1630411802986,2039
1630411802990,2046
1630411802994,2048
1630411802998,2047
1630411803002,2047
1630411803006,2047
1630411803010,2047
1630411803014,2047
1630411803018,2047
1630411803022,2047
1630411803026,2047
1630411803030,2048
1630411803034,2048
1630411803038,2048
1630411803042,2049
1630411803046,2050
1630411803050,2051
1630411803054,2052
1630411803058,2052
1630411803062,2052
1630411803066,2053
1630411803070,2053
1630411803074,2054
1630411803078,2055
1630411803082,2056
1630411803086,2057
1630411803090,2057
1630411803094,2058
1630411803098,2059
1630411803102,2059
1630411803106,2060
1630411803110,2062
1630411803114,2063
1630411803118,2065
1630411803122,2066
1630411803126,2068
1630411803130,2069
1630411803134,2070
1630411803138,2071
1630411803142,2073
1630411803146,2074
1630411803150,2075
1630411803154,2077
1630411803158,2079
1630411803162,2080
1630411803166,2081
1630411803170,2082
1630411803174,2083
1630411803178,2083
1630411803182,2083
1630411803186,2083
1630411803190,2083
1630411803194,2083
1630411803198,2083
1630411803202,2082
1630411803206,2081
1630411803210,2079
1630411803214,2077
1630411803218,2074
1630411803222,2071
1630411803226,2067
1630411803230,2063
1630411803234,2060
1630411803238,2057
1630411803242,2054
1630411803246,2051
1630411803250,2049
1630411803254,2048
1630411803258,2046
1630411803262,2044
1630411803266,2042
1630411803270,2041
1630411803274,2041
1630411803278,2041
1630411803282,2040
1630411803286,2041
1630411803290,2041
1630411803294,2041
1630411803298,2041
1630411803302,2042
1630411803306,2042
1630411803310,2042
1630411803314,2042
1630411803318,2043
1630411803322,2044
1630411803326,2044
1630411803330,2044
1630411803334,2045
1630411803338,2044
1630411803342,2044
1630411803346,2044
1630411803350,2045
1630411803354,2046
1630411803358,2046
1630411803362,2047
1630411803366,2047
1630411803370,2047
1630411803374,2047
1630411803378,2047
1630411803382,2046
1630411803386,2046
1630411803390,2046
1630411803394,2046
1630411803398,2046
1630411803402,2047
1630411803406,2047
1630411803410,2047
1630411803414,2047
1630411803418,2046
1630411803422,2045
1630411803426,2045
1630411803430,2045
1630411803434,2045
1630411803438,2045
1630411803442,2045
1630411803446,2045
1630411803450,2045
1630411803454,2044
1630411803458,2044
1630411803462,2043
1630411803466,2043
1630411803470,2043
1630411803474,2043
1630411803478,2043
1630411803482,2043
1630411803486,2043
1630411803490,2043
1630411803494,2043
1630411803498,2042
1630411803502,2042
1630411803506,2042
1630411803510,2041
1630411803514,2041
1630411803518,2041
1630411803522,2041
1630411803526,2041
1630411803530,2042
1630411803534,2042
1630411803538,2042
1630411803542,2041
1630411803546,2041
1630411803550,2040
1630411803554,2040
1630411803558,2040
1630411803562,2040
1630411803566,2040
1630411803570,2040
1630411803574,2040
1630411803578,2039
1630411803582,2038
1630411803586,2038
1630411803590,2037
1630411803594,2037
1630411803598,2037
1630411803602,2037
1630411803606,2038
1630411803610,2039
1630411803614,2041
1630411803618,2043
1630411803622,2045
1630411803626,2046
1630411803630,2046
1630411803634,2044
1630411803638,2043
1630411803642,2042
1630411803646,2041
1630411803650,2041
1630411803654,2040
1630411803658,2039
1630411803662,2039
1630411803666,2038
1630411803670,2038
1630411803674,2038
1630411803678,2038
1630411803682,2038
1630411803686,2037
1630411803690,2037
1630411803694,2037
1630411803698,2038
1630411803702,2038
1630411803706,2038
1630411803710,2038
1630411803714,2039
1630411803718,2039
1630411803722,2037
1630411803726,2031
1630411803730,2025
1630411803734,2025
1630411803738,2035
1630411803742,2059
1630411803746,2101
1630411803750,2154
1630411803754,2205
1630411803758,2236
1630411803762,2233
1630411803766,2195
1630411803770,2134
1630411803774,2069
1630411803778,2024
1630411803782,2003
1630411803786,2006
1630411803790,2018
1630411803794,2030
1630411803798,2035
1630411803802,2036
1630411803806,2035
1630411803810,2035
1630411803814,2035
1630411803818,2036
1630411803822,2036
1630411803826,2036
1630411803830,2036
1630411803834,2037
1630411803838,2037
1630411803842,2038
1630411803846,2039
1630411803850,2039
1630411803854,2039
1630411803858,2039
1630411803862,2040
1630411803866,2040
1630411803870,2041
1630411803874,2042
1630411803878,2043
1630411803882,2044
1630411803886,2045
1630411803890,2046
1630411803894,2047
1630411803898,2047
1630411803902,2048
1630411803906,2048
1630411803910,2049
1630411803914,2050
1630411803918,2051
1630411803922,2053
1630411803926,2054
1630411803930,2056
1630411803934,2057
1630411803938,2058
1630411803942,2060
1630411803946,2061
1630411803950,2062
1630411803954,2064
1630411803958,2065
1630411803962,2067
1630411803966,2068
1630411803970,2069
1630411803974,2070
1630411803978,2070
1630411803982,2070
1630411803986,2070
1630411803990,2070
1630411803994,2070
1630411803998,2070
1630411804002,2070
1630411804006,2070
1630411804010,2070
1630411804014,2069
1630411804018,2068
1630411804022,2065
1630411804026,2063
1630411804030,2059
1630411804034,2056
1630411804038,2053
1630411804042,2049
1630411804046,2047
1630411804050,2044
1630411804054,2042
1630411804058,2039
1630411804062,2037
1630411804066,2035
1630411804070,2034
1630411804074,2032
1630411804078,2031
1630411804082,2031
1630411804086,2031
1630411804090,2031
1630411804094,2030
1630411804098,2030
1630411804102,2030
1630411804106,2030
1630411804110,2030
1630411804114,2031
1630411804118,2031
1630411804122,2032
1630411804126,2033
1630411804130,2033
1630411804134,2033
1630411804138,2033
1630411804142,2033
1630411804146,2033
1630411804150,2034
1630411804154,2034
1630411804158,2035
1630411804162,2036
1630411804166,2036
1630411804170,2036
1630411804174,2036
1630411804178,2036
1630411804182,2036
1630411804186,2035
1630411804190,2035
1630411804194,2035
1630411804198,2035
1630411804202,2035
1630411804206,2036
1630411804210,2036
1630411804214,2036
1630411804218,2035
1630411804222,2034
1630411804226,2034
1630411804230,2033
1630411804234,2033
1630411804238,2034
1630411804242,2034
1630411804246,2034
1630411804250,2034
1630411804254,2034
1630411804258,2033
1630411804262,2033
1630411804266,2032
1630411804270,2032
1630411804274,2033
1630411804278,2033
1630411804282,2033
1630411804286,2032
1630411804290,2032
1630411804294,2032
1630411804298,2031
1630411804302,2031
1630411804306,2031
1630411804310,2031
1630411804314,2032
1630411804318,2032
1630411804322,2032
1630411804326,2032
1630411804330,2032
1630411804334,2032
1630411804338,2031
1630411804342,2031
1630411804346,2031
1630411804350,2031
1630411804354,2032
1630411804358,2032
1630411804362,2032
1630411804366,2031
1630411804370,2031
1630411804374,2031
1630411804378,2030
1630411804382,2030
1630411804386,2029
1630411804390,2028
1630411804394,2028
1630411804398,2029
1630411804402,2032
1630411804406,2035
1630411804410,2037
1630411804414,2039
1630411804418,2039
1630411804422,2037
1630411804426,2035
1630411804430,2034
1630411804434,2033
1630411804438,2033
1630411804442,2034
1630411804446,2034
1630411804450,2034
1630411804454,2034
1630411804458,2034
1630411804462,2034
1630411804466,2033
1630411804470,2033
1630411804474,2033
1630411804478,2034
1630411804482,2035
1630411804486,2035
1630411804490,2035
1630411804494,2035
1630411804498,2034
1630411804502,2035
1630411804506,2036
1630411804510,2035
1630411804514,2031
1630411804518,2025
1630411804522,2023
1630411804526,2031
1630411804530,2052
1630411804534,2092
1630411804538,2145
1630411804542,2198
1630411804546,2232
1630411804550,2233
1630411804554,2197
1630411804558,2135
1630411804562,2070
1630411804566,2021
1630411804570,1997
1630411804574,1997
1630411804578,2008
1630411804582,2022
1630411804586,2029
1630411804590,2032
1630411804594,2033
1630411804598,2035
1630411804602,2036
1630411804606,2037
1630411804610,2038
1630411804614,2039
1630411804618,2039
1630411804622,2040
1630411804626,2040
1630411804630,2041
1630411804634,2042
1630411804638,2043
1630411804642,2043
1630411804646,2044
1630411804650,2045
1630411804654,2046
1630411804658,2046
1630411804662,2047
1630411804666,2048
1630411804670,2048
1630411804674,2049
1630411804678,2050
1630411804682,2051
1630411804686,2052
1630411804690,2053
1630411804694,2054
1630411804698,2055
1630411804702,2056
1630411804706,2057
1630411804710,2058
1630411804714,2060
1630411804718,2061
1630411804722,2063
1630411804726,2065
1630411804730,2067
1630411804734,2068
1630411804738,2069
1630411804742,2070
1630411804746,2072
1630411804750,2073
1630411804754,2075
1630411804758,2077
1630411804762,2078
1630411804766,2079
1630411804770,2079
1630411804774,2079
1630411804778,2078
1630411804782,2078
1630411804786,2077
1630411804790,2077
1630411804794,2077
1630411804798,2076
1630411804802,2076
1630411804806,2075
1630411804810,2073
1630411804814,2071
1630411804818,2068
1630411804822,2064
1630411804826,2060
1630411804830,2057
1630411804834,2054
1630411804838,2052
1630411804842,2050
1630411804846,2048
1630411804850,2047
1630411804854,2045
1630411804858,2043
1630411804862,2041
1630411804866,2040
1630411804870,2040
1630411804874,2040
1630411804878,2040
1630411804882,2040
1630411804886,2041
1630411804890,2041
1630411804894,2041
1630411804898,2041
1630411804902,2041
1630411804906,2040
1630411804910,2041
1630411804914,2042
1630411804918,2043
1630411804922,2045
1630411804926,2046
1630411804930,2047
1630411804934,2047
1630411804938,2047
1630411804942,2047
1630411804946,2047
1630411804950,2047
1630411804954,2048
1630411804958,2048
1630411804962,2049
1630411804966,2050
1630411804970,2050
1630411804974,2050
1630411804978,2050
1630411804982,2050
1630411804986,2049
1630411804990,2049
1630411804994,2050
1630411804998,2050
1630411805002,2051
1630411805006,2051
1630411805010,2051
1630411805014,2050
1630411805018,2050
1630411805022,2050
1630411805026,2050
1630411805030,2049
1630411805034,2049
1630411805038,2049
1630411805042,2049
1630411805046,2050
1630411805050,2050
1630411805054,2051
1630411805058,2050
1630411805062,2050
1630411805066,2050
1630411805070,2049
1630411805074,2050
1630411805078,2050
1630411805082,2051
1630411805086,2052
1630411805090,2052
1630411805094,2051
1630411805098,2050
1630411805102,2049
1630411805106,2049
1630411805110,2049
1630411805114,2049
1630411805118,2050
1630411805122,2051
1630411805126,2051
1630411805130,2051
1630411805134,2051
1630411805138,2050
1630411805142,2050
1630411805146,2050
1630411805150,2051
1630411805154,2051
1630411805158,2051
1630411805162,2051
1630411805166,2051
1630411805170,2050
1630411805174,2050
1630411805178,2050
1630411805182,2049
1630411805186,2049
1630411805190,2049
1630411805194,2050
1630411805198,2052
1630411805202,2054
1630411805206,2057
1630411805210,2060
1630411805214,2061
1630411805218,2060
1630411805222,2058
1630411805226,2056
1630411805230,2055
1630411805234,2055
1630411805238,2055
1630411805242,2055
1630411805246,2055
1630411805250,2054
1630411805254,2054
1630411805258,2054
1630411805262,2054
1630411805266,2054
1630411805270,2054
1630411805274,2054
1630411805278,2054
1630411805282,2054
1630411805286,2054
1630411805290,2054
1630411805294,2055
1630411805298,2055
1630411805302,2057
1630411805306,2057
1630411805310,2054
1630411805314,2048
1630411805318,2043
1630411805322,2043
1630411805326,2052
1630411805330,2077
1630411805334,2119
1630411805338,2172
1630411805342,2226
1630411805346,2261
1630411805350,2264
1630411805354,2230
1630411805358,2169
1630411805362,2102
1630411805366,2049
1630411805370,2025
1630411805374,2025
1630411805378,2037
1630411805382,2049
1630411805386,2054
1630411805390,2055
1630411805394,2054
1630411805398,2054
1630411805402,2054
1630411805406,2054
1630411805410,2055
1630411805414,2054
1630411805418,2054
1630411805422,2054
1630411805426,2055
1630411805430,2055
1630411805434,2056
1630411805438,2057
1630411805442,2057
1630411805446,2058
1630411805450,2058
1630411805454,2058
1630411805458,2059
1630411805462,2060
1630411805466,2060
1630411805470,2060
1630411805474,2061
1630411805478,2062
1630411805482,2063
1630411805486,2064
1630411805490,2066
1630411805494,2067
1630411805498,2067
1630411805502,2067
1630411805506,2068
1630411805510,2069
1630411805514,2070
1630411805518,2072
1630411805522,2074
1630411805526,2076
1630411805530,2077
1630411805534,2078
1630411805538,2079
1630411805542,2080
1630411805546,2081
1630411805550,2083
1630411805554,2085
1630411805558,2087
1630411805562,2088
1630411805566,2089
1630411805570,2090
1630411805574,2090
1630411805578,2089
1630411805582,2089
1630411805586,2088
1630411805590,2088
1630411805594,2087
1630411805598,2087
1630411805602,2086
1630411805606,2085
1630411805610,2083
1630411805614,2080
1630411805618,2076
1630411805622,2073
1630411805626,2070
1630411805630,2066
1630411805634,2063
1630411805638,2060
1630411805642,2057
1630411805646,2055
1630411805650,2053
1630411805654,2051
1630411805658,2050
1630411805662,2049
1630411805666,2048
1630411805670,2048
1630411805674,2047
1630411805678,2047
1630411805682,2048
1630411805686,2048
1630411805690,2048
1630411805694,2048
1630411805698,2048
1630411805702,2048
1630411805706,2048
1630411805710,2048
1630411805714,2048
1630411805718,2049
1630411805722,2049
1630411805726,2050
1630411805730,2050
1630411805734,2051
1630411805738,2051
1630411805742,2051
1630411805746,2051
1630411805750,2051
1630411805754,2052
1630411805758,2052
1630411805762,2053
1630411805766,2053
1630411805770,2053
1630411805774,2052
1630411805778,2052
1630411805782,2051
1630411805786,2051
1630411805790,2051
1630411805794,2052
1630411805798,2053
1630411805802,2053
1630411805806,2053
1630411805810,2053
1630411805814,2052
1630411805818,2052
1630411805822,2051
1630411805826,2051
1630411805830,2051
1630411805834,2050
1630411805838,2051
1630411805842,2051
1630411805846,2051
1630411805850,2050
1630411805854,2050
1630411805858,2050
1630411805862,2050
1630411805866,2050
1630411805870,2049
1630411805874,2049
1630411805878,2049
1630411805882,2049
1630411805886,2049
1630411805890,2049
1630411805894,2049
1630411805898,2049
1630411805902,2048
1630411805906,2048
1630411805910,2048
1630411805914,2048
1630411805918,2049
1630411805922,2049
1630411805926,2049
1630411805930,2049
1630411805934,2049
1630411805938,2048
1630411805942,2048
1630411805946,2048
1630411805950,2048
1630411805954,2048
1630411805958,2047
1630411805962,2047
1630411805966,2047
1630411805970,2047
1630411805974,2047
1630411805978,2046
1630411805982,2046
1630411805986,2045
1630411805990,2046
1630411805994,2047
1630411805998,2049
1630411806002,2052
1630411806006,2054
1630411806010,2055
1630411806014,2054
1630411806018,2052
1630411806022,2050
1630411806026,2049
1630411806030,2048
1630411806034,2048
1630411806038,2049
1630411806042,2049
1630411806046,2049
1630411806050,2049
1630411806054,2049
1630411806058,2048
1630411806062,2048
1630411806066,2048
1630411806070,2048
1630411806074,2048
1630411806078,2048
1630411806082,2048
1630411806086,2048
1630411806090,2049
1630411806094,2049
1630411806098,2050
1630411806102,2049
1630411806106,2046
1630411806110,2040
1630411806114,2036
1630411806118,2037
1630411806122,2049
1630411806126,2077
1630411806130,2121
1630411806134,2173
1630411806138,2221
1630411806142,2247
1630411806146,2240
1630411806150,2198
1630411806154,2136
1630411806158,2074
1630411806162,2032
1630411806166,2015
1630411806170,2020
1630411806174,2032
1630411806178,2044
1630411806182,2048
1630411806186,2048
1630411806190,2047
1630411806194,2047
1630411806198,2048
1630411806202,2048
1630411806206,2048
1630411806210,2049
1630411806214,2049
1630411806218,2049
1630411806222,2049
1630411806226,2049
1630411806230,2050
1630411806234,2050
1630411806238,2051
1630411806242,2052
1630411806246,2053
1630411806250,2054
1630411806254,2054
1630411806258,2054
1630411806262,2054
1630411806266,2054
1630411806270,2055
1630411806274,2056
1630411806278,2058
1630411806282,2059
1630411806286,2060
1630411806290,2061
1630411806294,2062
1630411806298,2063
1630411806302,2063
1630411806306,2064
1630411806310,2065
1630411806314,2066
1630411806318,2068
1630411806322,2069
1630411806326,2071
1630411806330,2073
1630411806334,2074
1630411806338,2075
1630411806342,2076
1630411806346,2078
1630411806350,2079
1630411806354,2080
1630411806358,2081
1630411806362,2082
1630411806366,2082
1630411806370,2082
1630411806374,2082
1630411806378,2082
1630411806382,2082
1630411806386,2081
1630411806390,2080
1630411806394,2079
1630411806398,2078
1630411806402,2077
1630411806406,2075
1630411806410,2073
1630411806414,2070
1630411806418,2066
1630411806422,2063
1630411806426,2059
1630411806430,2055
1630411806434,2053
1630411806438,2051
1630411806442,2049
1630411806446,2048
1630411806450,2046
1630411806454,2044
1630411806458,2042
1630411806462,2041
1630411806466,2040
1630411806470,2040
1630411806474,2040
1630411806478,2040
1630411806482,2041
1630411806486,2041
1630411806490,2042
1630411806494,2042
1630411806498,2042
1630411806502,2042
1630411806506,2042
1630411806510,2042
1630411806514,2042
1630411806518,2043
1630411806522,2043
1630411806526,2043
1630411806530,2044
1630411806534,2044
1630411806538,2044
1630411806542,2043
1630411806546,2043
1630411806550,2043
1630411806554,2043
1630411806558,2043
1630411806562,2044
1630411806566,2044
1630411806570,2044
1630411806574,2043
1630411806578,2043
1630411806582,2042
1630411806586,2042
1630411806590,2042
1630411806594,2042
1630411806598,2042
1630411806602,2042
1630411806606,2042
1630411806610,2041
1630411806614,2040
1630411806618,2040
1630411806622,2039
1630411806626,2038
1630411806630,2038
1630411806634,2038
1630411806638,2038
1630411806642,2038
1630411806646,2038
1630411806650,2038
1630411806654,2038
1630411806658,2037
1630411806662,2037
1630411806666,2036
1630411806670,2036
1630411806674,2036
1630411806678,2036
1630411806682,2036
1630411806686,2037
1630411806690,2037
1630411806694,2037
1630411806698,2037
1630411806702,2036
1630411806706,2036
1630411806710,2036
1630411806714,2035
1630411806718,2035
1630411806722,2035
1630411806726,2036
1630411806730,2036
1630411806734,2036
1630411806738,2035
1630411806742,2034
1630411806746,2033
1630411806750,2033
1630411806754,2033
1630411806758,2033
1630411806762,2033
1630411806766,2032
1630411806770,2033
1630411806774,2034
1630411806778,2036
1630411806782,2038
1630411806786,2040
1630411806790,2041
1630411806794,2040
1630411806798,2039
1630411806802,2038
1630411806806,2037
1630411806810,2037
1630411806814,2036
1630411806818,2036
1630411806822,2035
1630411806826,2034
1630411806830,2034
1630411806834,2034
1630411806838,2035
1630411806842,2035
1630411806846,2035
1630411806850,2034
1630411806854,2034
1630411806858,2034
1630411806862,2034
1630411806866,2033
1630411806870,2034
1630411806874,2035
1630411806878,2036
1630411806882,2037
1630411806886,2034
1630411806890,2028
1630411806894,2023
1630411806898,2022
1630411806902,2033
1630411806906,2059
1630411806910,2105
1630411806914,2159
1630411806918,2209
1630411806922,2234
1630411806926,2224
1630411806930,2180
1630411806934,2116
1630411806938,2054
1630411806942,2013
1630411806946,1998
1630411806950,2003
1630411806954,2016
1630411806958,2029
1630411806962,2034
1630411806966,2036
1630411806970,2037
1630411806974,2037
1630411806978,2037
1630411806982,2036
1630411806986,2036
1630411806990,2036
1630411806994,2037
1630411806998,2039
1630411807002,2040
1630411807006,2041
1630411807010,2042
1630411807014,2042
1630411807018,2042
1630411807022,2043
1630411807026,2043
1630411807030,2044
1630411807034,2045
1630411807038,2046
1630411807042,2047
1630411807046,2048
1630411807050,2048
1630411807054,2048
1630411807058,2049
1630411807062,2049
1630411807066,2050
1630411807070,2051
1630411807074,2052
1630411807078,2054
1630411807082,2056
1630411807086,2058
1630411807090,2059
1630411807094,2060
1630411807098,2060
1630411807102,2061
1630411807106,2062
1630411807110,2063
1630411807114,2065
1630411807118,2067
1630411807122,2068
1630411807126,2070
1630411807130,2071
1630411807134,2072
1630411807138,2073
1630411807142,2073
1630411807146,2072
1630411807150,2072
1630411807154,2072
1630411807158,2071
1630411807162,2071
1630411807166,2071
1630411807170,2070
1630411807174,2069
1630411807178,2068
1630411807182,2067
1630411807186,2065
1630411807190,2063
1630411807194,2060
1630411807198,2057
1630411807202,2054
1630411807206,2051
1630411807210,2048
1630411807214,2045
1630411807218,2042
1630411807222,2039
1630411807226,2037
1630411807230,2035
1630411807234,2034
1630411807238,2034
1630411807242,2034
1630411807246,2033
1630411807250,2033
1630411807254,2032
1630411807258,2031
1630411807262,2031
1630411807266,2030
1630411807270,2031
1630411807274,2032
1630411807278,2033
1630411807282,2034
1630411807286,2034
1630411807290,2034
1630411807294,2034
1630411807298,2034
1630411807302,2034
1630411807306,2035
1630411807310,2035
1630411807314,2036
1630411807318,2036
1630411807322,2037
1630411807326,2037
1630411807330,2037
1630411807334,2037
1630411807338,2037
1630411807342,2037
1630411807346,2037
1630411807350,2037
1630411807354,2038
1630411807358,2038
1630411807362,2038
1630411807366,2038
1630411807370,2038
1630411807374,2038
1630411807378,2038
1630411807382,2037
1630411807386,2036
1630411807390,2036
1630411807394,2036
1630411807398,2036
1630411807402,2036
1630411807406,2036
1630411807410,2036
1630411807414,2036
1630411807418,2035
1630411807422,2035
1630411807426,2035
1630411807430,2035
1630411807434,2035
1630411807438,2035
1630411807442,2036
1630411807446,2036
1630411807450,2036
1630411807454,2036
1630411807458,2036
1630411807462,2035
1630411807466,2034
1630411807470,2033
1630411807474,2033
1630411807478,2033
1630411807482,2034
1630411807486,2034
1630411807490,2034
1630411807494,2034
1630411807498,2035
1630411807502,2037
1630411807506,2039
1630411807510,2041
1630411807514,2043
1630411807518,2044
1630411807522,2043
1630411807526,2042
1630411807530,2041
1630411807534,2040
1630411807538,2039
1630411807542,2039
1630411807546,2038
1630411807550,2038
1630411807554,2039
1630411807558,2039
1630411807562,2040
1630411807566,2040
1630411807570,2040
1630411807574,2040
1630411807578,2040
1630411807582,2039
1630411807586,2039
1630411807590,2039
1630411807594,2040
1630411807598,2041
1630411807602,2042
1630411807606,2044
1630411807610,2044
1630411807614,2040
1630411807618,2033
1630411807622,2028
1630411807626,2032
1630411807630,2048
1630411807634,2082
1630411807638,2134
1630411807642,2189
1630411807646,2232
1630411807650,2246
1630411807654,2221
1630411807658,2165
1630411807662,2097
1630411807666,2041
1630411807670,2008
1630411807674,2001
1630411807678,2012
1630411807682,2027
1630411807686,2038
1630411807690,2042
1630411807694,2043
1630411807698,2044
1630411807702,2044
1630411807706,2045
1630411807710,2046
1630411807714,2046
1630411807718,2047
1630411807722,2048
1630411807726,2048
1630411807730,2049
1630411807734,2050
1630411807738,2051
1630411807742,2051
1630411807746,2051
1630411807750,2052
1630411807754,2053
1630411807758,2054
1630411807762,2056
1630411807766,2057
1630411807770,2058
1630411807774,2058
1630411807778,2059
1630411807782,2059
1630411807786,2060
1630411807790,2061
1630411807794,2063
1630411807798,2064
1630411807802,2065
1630411807806,2067
1630411807810,2069
1630411807814,2070
1630411807818,2072
1630411807822,2073
1630411807826,2074
1630411807830,2075
1630411807834,2077
1630411807838,2079
1630411807842,2081
1630411807846,2083
1630411807850,2085
1630411807854,2086
1630411807858,2087
1630411807862,2087
1630411807866,2087
1630411807870,2088
1630411807874,2088
1630411807878,2088
1630411807882,2089
1630411807886,2088
1630411807890,2088
1630411807894,2087
1630411807898,2086
1630411807902,2084
1630411807906,2083
1630411807910,2080
1630411807914,2078
1630411807918,2076
1630411807922,2073
1630411807926,2070
1630411807930,2067
1630411807934,2064
1630411807938,2060
1630411807942,2057
1630411807946,2055
1630411807950,2053
1630411807954,2052
1630411807958,2051
1630411807962,2050
1630411807966,2049
1630411807970,2048
1630411807974,2048
1630411807978,2048
1630411807982,2048
1630411807986,2048
1630411807990,2048
1630411807994,2048
1630411807998,2048
1630411808002,2049
1630411808006,2049
1630411808010,2050
1630411808014,2050
1630411808018,2050
1630411808022,2050
1630411808026,2051
1630411808030,2051
1630411808034,2052
1630411808038,2053
1630411808042,2053
1630411808046,2054
1630411808050,2054
1630411808054,2054
1630411808058,2054
1630411808062,2054
1630411808066,2053
1630411808070,2054
1630411808074,2054
1630411808078,2055
1630411808082,2055
1630411808086,2055
1630411808090,2055
1630411808094,2055
1630411808098,2054
1630411808102,2053
1630411808106,2053
1630411808110,2053
1630411808114,2054
1630411808118,2054
1630411808122,2054
1630411808126,2053
1630411808130,2053
1630411808134,2053
1630411808138,2052
1630411808142,2052
1630411808146,2051
1630411808150,2051
1630411808154,2051
1630411808158,2052
1630411808162,2052
1630411808166,2051
1630411808170,2051
1630411808174,2051
1630411808178,2050
1630411808182,2050
1630411808186,2050
1630411808190,2050
1630411808194,2051
1630411808198,2051
1630411808202,2051
1630411808206,2051
1630411808210,2050
1630411808214,2049
1630411808218,2048
1630411808222,2048
1630411808226,2048
1630411808230,2047
1630411808234,2047
1630411808238,2047
1630411808242,2048
1630411808246,2048
1630411808250,2051
1630411808254,2053
1630411808258,2055
1630411808262,2056
1630411808266,2055
1630411808270,2054
1630411808274,2053
1630411808278,2052
1630411808282,2052
1630411808286,2052
1630411808290,2052
1630411808294,2051
1630411808298,2051
1630411808302,2050
1630411808306,2050
1630411808310,2050
1630411808314,2050
1630411808318,2050
1630411808322,2051
1630411808326,2051
1630411808330,2051
1630411808334,2051
1630411808338,2050
1630411808342,2050
1630411808346,2051
1630411808350,2052
1630411808354,2052
1630411808358,2049
1630411808362,2044
1630411808366,2039
1630411808370,2038
1630411808374,2048
1630411808378,2073
1630411808382,2116
1630411808386,2169
1630411808390,2222
1630411808394,2254
1630411808398,2254
1630411808402,2217
1630411808406,2155
1630411808410,2089
1630411808414,2041
1630411808418,2018
1630411808422,2019
1630411808426,2031
1630411808430,2044
1630411808434,2049
1630411808438,2051
1630411808442,2050
1630411808446,2050
1630411808450,2050
1630411808454,2050
1630411808458,2050
1630411808462,2050
1630411808466,2050
1630411808470,2050
1630411808474,2051
1630411808478,2052
1630411808482,2053
1630411808486,2054
1630411808490,2055
1630411808494,2055
1630411808498,2055
1630411808502,2054
1630411808506,2055
1630411808510,2055
1630411808514,2056
1630411808518,2058
1630411808522,2059
1630411808526,2060
1630411808530,2061
1630411808534,2062
1630411808538,2062
1630411808542,2063
1630411808546,2064
1630411808550,2064
1630411808554,2066
1630411808558,2067
1630411808562,2069
1630411808566,2070
1630411808570,2072
1630411808574,2073
1630411808578,2074
1630411808582,2075
1630411808586,2076
1630411808590,2078
1630411808594,2079
1630411808598,2081
1630411808602,2083
1630411808606,2084
1630411808610,2085
1630411808614,2086
1630411808618,2086
1630411808622,2086
1630411808626,2086
1630411808630,2086
1630411808634,2086
1630411808638,2085
1630411808642,2085
1630411808646,2084
1630411808650,2083
1630411808654,2082
1630411808658,2080
1630411808662,2076
1630411808666,2073
1630411808670,2069
1630411808674,2065
1630411808678,2062
1630411808682,2059
1630411808686,2057
1630411808690,2054
1630411808694,2052
1630411808698,2050
1630411808702,2048
1630411808706,2048
1630411808710,2047
1630411808714,2046
1630411808718,2046
1630411808722,2046
1630411808726,2046
1630411808730,2046
1630411808734,2046
1630411808738,2046
1630411808742,2046
1630411808746,2046
1630411808750,2046
1630411808754,2047
1630411808758,2048
1630411808762,2048
1630411808766,2048
1630411808770,2048
1630411808774,2048
1630411808778,2048
1630411808782,2048
1630411808786,2049
1630411808790,2049
1630411808794,2049
1630411808798,2049
1630411808802,2050
1630411808806,2051
1630411808810,2051
1630411808814,2051
1630411808818,2051
1630411808822,2051
1630411808826,2050
1630411808830,2050
1630411808834,2050
1630411808838,2050
1630411808842,2050
1630411808846,2050
1630411808850,2050
1630411808854,2050
1630411808858,2049
1630411808862,2048
1630411808866,2048
1630411808870,2048
1630411808874,2048
1630411808878,2049
1630411808882,2049
1630411808886,2049
1630411808890,2048
1630411808894,2048
1630411808898,2047
1630411808902,2047
1630411808906,2047
1630411808910,2047
1630411808914,2047
1630411808918,2047
1630411808922,2047
1630411808926,2047
1630411808930,2047
1630411808934,2046
1630411808938,2046
1630411808942,2046
1630411808946,2045
1630411808950,2045
1630411808954,2045
1630411808958,2044
1630411808962,2044
1630411808966,2044
1630411808970,2043
1630411808974,2043
1630411808978,2042
1630411808982,2042
1630411808986,2042
1630411808990,2044
1630411808994,2046
1630411808998,2049
1630411809002,2051
1630411809006,2052
1630411809010,2051
1630411809014,2049
1630411809018,2047
1630411809022,2046
1630411809026,2045
1630411809030,2045
1630411809034,2045
1630411809038,2045
1630411809042,2045
1630411809046,2045
1630411809050,2044
1630411809054,2044
1630411809058,2044
1630411809062,2043
1630411809066,2043
1630411809070,2043
1630411809074,2043
1630411809078,2044
1630411809082,2044
1630411809086,2045
1630411809090,2045
1630411809094,2046
1630411809098,2046
1630411809102,2043
1630411809106,2037
1630411809110,2031
1630411809114,2030
1630411809118,2040
1630411809122,2064
1630411809126,2106
1630411809130,2160
1630411809134,2211
1630411809138,2242
1630411809142,2239
1630411809146,2201
1630411809150,2139
1630411809154,2075
1630411809158,2030
1630411809162,2010
1630411809166,2012
1630411809170,2025
1630411809174,2038
1630411809178,2044
1630411809182,2045
1630411809186,2044
1630411809190,2044
1630411809194,2044
1630411809198,2044
1630411809202,2044
1630411809206,2044
1630411809210,2045
1630411809214,2045
1630411809218,2046
1630411809222,2047
1630411809226,2047
1630411809230,2047
1630411809234,2048
1630411809238,2048
1630411809242,2049
1630411809246,2049
1630411809250,2050
1630411809254,2051
1630411809258,2051
1630411809262,2051
1630411809266,2052
1630411809270,2052
1630411809274,2053
1630411809278,2054
1630411809282,2056
1630411809286,2057
1630411809290,2058
1630411809294,2059
1630411809298,2059
1630411809302,2060
1630411809306,2061
1630411809310,2062
1630411809314,2064
1630411809318,2066
1630411809322,2067
1630411809326,2069
1630411809330,2071
1630411809334,2072
1630411809338,2073
1630411809342,2074
1630411809346,2075
1630411809350,2076
1630411809354,2077
1630411809358,2077
1630411809362,2078
1630411809366,2078
1630411809370,2078
1630411809374,2078
1630411809378,2077
1630411809382,2076
1630411809386,2075
1630411809390,2074
1630411809394,2073
1630411809398,2072
1630411809402,2069
1630411809406,2066
1630411809410,2063
1630411809414,2059
1630411809418,2055
1630411809422,2051
1630411809426,2048
1630411809430,2046
1630411809434,2043
1630411809438,2041
1630411809442,2039
1630411809446,2038
1630411809450,2037
1630411809454,2036
1630411809458,2035
1630411809462,2034
1630411809466,2033
1630411809470,2033
1630411809474,2032
1630411809478,2033
1630411809482,2033
1630411809486,2034
1630411809490,2034
1630411809494,2034
1630411809498,2034
1630411809502,2034
1630411809506,2034
1630411809510,2034
1630411809514,2035
1630411809518,2036
1630411809522,2036
1630411809526,2037
1630411809530,2037
1630411809534,2036
1630411809538,2036
1630411809542,2035
1630411809546,2035
1630411809550,2035
1630411809554,2036
1630411809558,2036
1630411809562,2037
1630411809566,2037
1630411809570,2037
1630411809574,2037
1630411809578,2037
1630411809582,2036
1630411809586,2036
1630411809590,2035
1630411809594,2035
1630411809598,2035
1630411809602,2035
1630411809606,2035
1630411809610,2034
1630411809614,2034
1630411809618,2033
1630411809622,2033
1630411809626,2032
1630411809630,2032
1630411809634,2032
1630411809638,2032
1630411809642,2031
1630411809646,2031
1630411809650,2031
1630411809654,2031
1630411809658,2031
1630411809662,2030
1630411809666,2030
1630411809670,2030
1630411809674,2030
1630411809678,2030
1630411809682,2030
1630411809686,2030
1630411809690,2030
1630411809694,2029
1630411809698,2029
1630411809702,2028
1630411809706,2028
1630411809710,2027
1630411809714,2027
1630411809718,2027
1630411809722,2027
1630411809726,2027
1630411809730,2028
1630411809734,2030
1630411809738,2032
1630411809742,2034
1630411809746,2036
1630411809750,2036
1630411809754,2036
1630411809758,2035
1630411809762,2034
1630411809766,2033
1630411809770,2033
1630411809774,2032
1630411809778,2032
1630411809782,2031
1630411809786,2030
1630411809790,2029
1630411809794,2030
1630411809798,2030
1630411809802,2031
1630411809806,2031
1630411809810,2031
1630411809814,2031
1630411809818,2030
1630411809822,2030
1630411809826,2029
1630411809830,2029
1630411809834,2031
1630411809838,2033
1630411809842,2034
1630411809846,2033
1630411809850,2028
1630411809854,2021
1630411809858,2018
1630411809862,2024
1630411809866,2046
1630411809870,2085
1630411809874,2139
1630411809878,2193
1630411809882,2228
1630411809886,2230
1630411809890,2195
1630411809894,2134
1630411809898,2068
1630411809902,2019
1630411809906,1995
1630411809910,1995
1630411809914,2007
1630411809918,2021
1630411809922,2029
1630411809926,2032
1630411809930,2032
1630411809934,2032
1630411809938,2033
1630411809942,2032
1630411809946,2032
1630411809950,2033
1630411809954,2033
1630411809958,2034
1630411809962,2035
1630411809966,2036
1630411809970,2037
1630411809974,2037
1630411809978,2037
1630411809982,2038
1630411809986,2038
1630411809990,2039
1630411809994,2039
1630411809998,2041
1630411810002,2042
1630411810006,2044
1630411810010,2045
1630411810014,2045
1630411810018,2046
1630411810022,2046
1630411810026,2047
1630411810030,2048
1630411810034,2048
1630411810038,2050
1630411810042,2052
1630411810046,2054
1630411810050,2055
1630411810054,2057
1630411810058,2057
1630411810062,2058
1630411810066,2060
1630411810070,2062
1630411810074,2063
1630411810078,2065
1630411810082,2067
1630411810086,2068
1630411810090,2069
1630411810094,2071
1630411810098,2071
1630411810102,2071
1630411810106,2072
1630411810110,2072
1630411810114,2072
1630411810118,2071
1630411810122,2071
1630411810126,2071
1630411810130,2071
1630411810134,2070
1630411810138,2069
1630411810142,2067
1630411810146,2064
1630411810150,2061
1630411810154,2058
1630411810158,2055
1630411810162,2052
1630411810166,2049
1630411810170,2047
1630411810174,2044
1630411810178,2041
1630411810182,2038
1630411810186,2036
1630411810190,2034
1630411810194,2033
1630411810198,2032
1630411810202,2032
1630411810206,2031
1630411810210,2030
1630411810214,2030
1630411810218,2029
1630411810222,2029
1630411810226,2029
1630411810230,2029
1630411810234,2030
1630411810238,2031
1630411810242,2032
1630411810246,2033
1630411810250,2033
1630411810254,2033
1630411810258,2033
1630411810262,2033
1630411810266,2033
1630411810270,2034
1630411810274,2035
1630411810278,2036
1630411810282,2037
1630411810286,2037
1630411810290,2038
1630411810294,2038
1630411810298,2037
1630411810302,2037
1630411810306,2037
1630411810310,2037
1630411810314,2038
1630411810318,2038
1630411810322,2039
1630411810326,2039
1630411810330,2039
1630411810334,2039
1630411810338,2038
1630411810342,2038
1630411810346,2037
1630411810350,2037
1630411810354,2037
1630411810358,2037
1630411810362,2037
1630411810366,2037
1630411810370,2037
1630411810374,2037
1630411810378,2037
1630411810382,2036
1630411810386,2036
1630411810390,2036
1630411810394,2036
1630411810398,2037
1630411810402,2038
1630411810406,2038
1630411810410,2038
1630411810414,2037
1630411810418,2037
1630411810422,2036
1630411810426,2036
1630411810430,2036
1630411810434,2036
1630411810438,2036
1630411810442,2035
1630411810446,2035
1630411810450,2035
1630411810454,2036
1630411810458,2038
1630411810462,2040
1630411810466,2042
1630411810470,2044
1630411810474,2044
1630411810478,2044
1630411810482,2043
1630411810486,2042
1630411810490,2041
1630411810494,2041
1630411810498,2040
1630411810502,2039
1630411810506,2039
1630411810510,2039
1630411810514,2039
1630411810518,2040
1630411810522,2041
1630411810526,2042
1630411810530,2042
1630411810534,2042
1630411810538,2042
1630411810542,2041
1630411810546,2041
1630411810550,2041
1630411810554,2042
1630411810558,2044
1630411810562,2046
1630411810566,2046
1630411810570,2043
1630411810574,2037
1630411810578,2031
1630411810582,2031
1630411810586,2043
1630411810590,2071
1630411810594,2119
1630411810598,2175
1630411810602,2225
1630411810606,2249
1630411810610,2237
1630411810614,2190
1630411810618,2123
1630411810622,2060
1630411810626,2020
1630411810630,2005
1630411810634,2011
1630411810638,2025
1630411810642,2038
1630411810646,2044
1630411810650,2047
1630411810654,2047
1630411810658,2048
1630411810662,2048
1630411810666,2048
1630411810670,2048
1630411810674,2049
1630411810678,2050
1630411810682,2051
1630411810686,2052
1630411810690,2052
1630411810694,2053
1630411810698,2053
1630411810702,2054
1630411810706,2054
1630411810710,2055
1630411810714,2056
1630411810718,2057
1630411810722,2058
1630411810726,2059
1630411810730,2060
1630411810734,2061
1630411810738,2062
1630411810742,2063
1630411810746,2064
1630411810750,2065
1630411810754,2067
1630411810758,2068
1630411810762,2070
1630411810766,2071
1630411810770,2072
1630411810774,2073
1630411810778,2074
1630411810782,2075
1630411810786,2076
1630411810790,2078
1630411810794,2081
1630411810798,2083
1630411810802,2085
1630411810806,2086
1630411810810,2088
1630411810814,2089
1630411810818,2090
1630411810822,2090
1630411810826,2090
1630411810830,2090
1630411810834,2090
1630411810838,2091
1630411810842,2091
1630411810846,2091
1630411810850,2091
1630411810854,2090
1630411810858,2089
1630411810862,2087
1630411810866,2084
1630411810870,2081
1630411810874,2078
1630411810878,2075
1630411810882,2072
1630411810886,2069
1630411810890,2066
1630411810894,2063
1630411810898,2059
1630411810902,2057
1630411810906,2055
1630411810910,2053
1630411810914,2052
1630411810918,2052
1630411810922,2051
1630411810926,2051
1630411810930,2051
1630411810934,2051
1630411810938,2051
1630411810942,2050
1630411810946,2050
1630411810950,2050
1630411810954,2050
1630411810958,2051
1630411810962,2052
1630411810966,2052
1630411810970,2053
1630411810974,2053
1630411810978,2053
1630411810982,2053
1630411810986,2053
1630411810990,2054
1630411810994,2054
1630411810998,2055
1630411811002,2056
1630411811006,2056
1630411811010,2057
1630411811014,2057
1630411811018,2057
1630411811022,2057
1630411811026,2057
1630411811030,2057
1630411811034,2057
1630411811038,2058
1630411811042,2059
1630411811046,2059
1630411811050,2059
1630411811054,2059
1630411811058,2058
1630411811062,2057
1630411811066,2057
1630411811070,2056
1630411811074,2057
1630411811078,2057
1630411811082,2057
1630411811086,2057
1630411811090,2057
1630411811094,2056
1630411811098,2055
1630411811102,2054
1630411811106,2054
1630411811110,2054
1630411811114,2054
1630411811118,2054
1630411811122,2055
1630411811126,2054
1630411811130,2054
1630411811134,2053
1630411811138,2053
1630411811142,2053
1630411811146,2052
1630411811150,2052
1630411811154,2052
1630411811158,2053
1630411811162,2053
1630411811166,2053
1630411811170,2053
1630411811174,2053
1630411811178,2052
1630411811182,2051
1630411811186,2050
1630411811190,2049
1630411811194,2049
1630411811198,2050
1630411811202,2050
1630411811206,2050
1630411811210,2050
1630411811214,2050
1630411811218,2051
1630411811222,2052
1630411811226,2055
1630411811230,2057
1630411811234,2058
1630411811238,2057
1630411811242,2056
1630411811246,2055
1630411811250,2054
1630411811254,2054
1630411811258,2053
1630411811262,2052
1630411811266,2052
1630411811270,2051
1630411811274,2051
1630411811278,2051
1630411811282,2051
1630411811286,2052
1630411811290,2051
1630411811294,2051
1630411811298,2051
1630411811302,2050
1630411811306,2050
1630411811310,2049
1630411811314,2050
1630411811318,2052
1630411811322,2054
1630411811326,2054
1630411811330,2051
1630411811334,2045
1630411811338,2039
1630411811342,2037
1630411811346,2048
1630411811350,2072
1630411811354,2116
1630411811358,2171
1630411811362,2224
1630411811366,2256
1630411811370,2256
1630411811374,2218
1630411811378,2155
1630411811382,2089
1630411811386,2041
1630411811390,2019
1630411811394,2020
1630411811398,2033
1630411811402,2046
1630411811406,2051
1630411811410,2051
1630411811414,2050
1630411811418,2049
1630411811422,2049
1630411811426,2049
1630411811430,2049
1630411811434,2049
1630411811438,2050
1630411811442,2050
1630411811446,2051
1630411811450,2051
1630411811454,2052
1630411811458,2052
1630411811462,2053
1630411811466,2053
1630411811470,2053
1630411811474,2054
1630411811478,2055
1630411811482,2056
1630411811486,2057
1630411811490,2057
1630411811494,2057
1630411811498,2057
1630411811502,2057
1630411811506,2058
1630411811510,2060
1630411811514,2062
1630411811518,2064
1630411811522,2065
1630411811526,2066
1630411811530,2067
1630411811534,2068
1630411811538,2068
1630411811542,2069
1630411811546,2070
1630411811550,2072
1630411811554,2074
1630411811558,2076
1630411811562,2078
1630411811566,2079
1630411811570,2080
1630411811574,2081
1630411811578,2082
1630411811582,2083
1630411811586,2083
1630411811590,2084
1630411811594,2085
1630411811598,2086
1630411811602,2086
1630411811606,2085
1630411811610,2085
1630411811614,2084
1630411811618,2083
1630411811622,2081
1630411811626,2079
1630411811630,2076
1630411811634,2073
1630411811638,2070
1630411811642,2067
1630411811646,2064
1630411811650,2060
1630411811654,2057
1630411811658,2053
1630411811662,2050
1630411811666,2048
1630411811670,2047
1630411811674,2046
1630411811678,2046
1630411811682,2045
1630411811686,2044
1630411811690,2044
1630411811694,2044
1630411811698,2043
1630411811702,2043
1630411811706,2043
1630411811710,2043
1630411811714,2043
1630411811718,2044
1630411811722,2044
1630411811726,2044
1630411811730,2044
1630411811734,2044
1630411811738,2044
1630411811742,2044
1630411811746,2044
1630411811750,2044
1630411811754,2044
1630411811758,2045
1630411811762,2046
1630411811766,2046
1630411811770,2047
1630411811774,2048
1630411811778,2048
1630411811782,2048
1630411811786,2048
1630411811790,2048
1630411811794,2048
1630411811798,2048
1630411811802,2048
1630411811806,2048
1630411811810,2048
1630411811814,2048
1630411811818,2048
1630411811822,2048
1630411811826,2048
1630411811830,2047
1630411811834,2048
1630411811838,2048
1630411811842,2048
1630411811846,2048
1630411811850,2047
1630411811854,2047
1630411811858,2046
1630411811862,2046
1630411811866,2045
1630411811870,2045
1630411811874,2045
1630411811878,2045
1630411811882,2045
1630411811886,2045
1630411811890,2045
1630411811894,2045
1630411811898,2045
1630411811902,2044
1630411811906,2044
1630411811910,2044
1630411811914,2044
1630411811918,2044
1630411811922,2044
1630411811926,2044
1630411811930,2044
1630411811934,2044
1630411811938,2044
1630411811942,2043
1630411811946,2043
1630411811950,2042
1630411811954,2042
1630411811958,2042
1630411811962,2041
1630411811966,2041
1630411811970,2041
1630411811974,2040
1630411811978,2040
1630411811982,2039
1630411811986,2038
1630411811990,2039
1630411811994,2041
1630411811998,2045
1630411812002,2048
1630411812006,2049
1630411812010,2048
1630411812014,2047
1630411812018,2045
1630411812022,2043
1630411812026,2042
1630411812030,2042
1630411812034,2042
1630411812038,2042
1630411812042,2042
1630411812046,2042
1630411812050,2042
1630411812054,2041
1630411812058,2041
1630411812062,2040
1630411812066,2040
1630411812070,2040
1630411812074,2040
1630411812078,2040
1630411812082,2040
1630411812086,2040
1630411812090,2040
1630411812094,2040
1630411812098,2040
1630411812102,2039
1630411812106,2035
1630411812110,2028
1630411812114,2024
1630411812118,2027
1630411812122,2042
1630411812126,2072
1630411812130,2119
1630411812134,2174
1630411812138,2220
1630411812142,2242
1630411812146,2227
1630411812150,2179
1630411812154,2113
1630411812158,2053
1630411812162,2016
1630411812166,2004
1630411812170,2011
1630411812174,2024
1630411812178,2034
1630411812182,2037
1630411812186,2037
1630411812190,2036
1630411812194,2036
1630411812198,2037
1630411812202,2037
1630411812206,2037
1630411812210,2037
1630411812214,2038
1630411812218,2038
1630411812222,2038
1630411812226,2038
1630411812230,2038
1630411812234,2038
1630411812238,2039
1630411812242,2040
1630411812246,2042
1630411812250,2043
1630411812254,2043
1630411812258,2043
1630411812262,2043
1630411812266,2044
1630411812270,2044
1630411812274,2045
1630411812278,2046
1630411812282,2047
1630411812286,2048
1630411812290,2049
1630411812294,2050
1630411812298,2051
1630411812302,2052
1630411812306,2053
1630411812310,2054
1630411812314,2056
1630411812318,2057
1630411812322,2059
1630411812326,2061
1630411812330,2062
1630411812334,2064
1630411812338,2065
1630411812342,2066
1630411812346,2068
1630411812350,2069
1630411812354,2071
1630411812358,2072
1630411812362,2073
1630411812366,2074
1630411812370,2074
1630411812374,2074
1630411812378,2074
1630411812382,2073
1630411812386,2072
1630411812390,2072
1630411812394,2071
1630411812398,2069
1630411812402,2068
1630411812406,2065
1630411812410,2062
1630411812414,2059
1630411812418,2055
1630411812422,2051
1630411812426,2048
1630411812430,2044
1630411812434,2042
1630411812438,2039
1630411812442,2037
1630411812446,2036
1630411812450,2034
1630411812454,2033
1630411812458,2032
1630411812462,2031
1630411812466,2030
1630411812470,2030
1630411812474,2030
1630411812478,2031
1630411812482,2031
1630411812486,2031
1630411812490,2031
1630411812494,2030
1630411812498,2030
1630411812502,2030
1630411812506,2031
1630411812510,2032
1630411812514,2032
1630411812518,2032
1630411812522,2033
1630411812526,2033
1630411812530,2034
1630411812534,2034
1630411812538,2034
1630411812542,2034
1630411812546,2034
1630411812550,2034
1630411812554,2034
1630411812558,2035
1630411812562,2035
1630411812566,2036
1630411812570,2036
1630411812574,2036
1630411812578,2036
1630411812582,2035
1630411812586,2035
1630411812590,2035
1630411812594,2035
1630411812598,2035
1630411812602,2036
1630411812606,2036
1630411812610,2036
1630411812614,2035
1630411812618,2034
1630411812622,2034
1630411812626,2034
1630411812630,2034
1630411812634,2034
1630411812638,2034
1630411812642,2034
1630411812646,2034
1630411812650,2034
1630411812654,2034
1630411812658,2034
1630411812662,2034
1630411812666,2033
1630411812670,2033
1630411812674,2033
1630411812678,2033
1630411812682,2034
1630411812686,2034
1630411812690,2034
1630411812694,2033
1630411812698,2032
1630411812702,2032
1630411812706,2032
1630411812710,2032
1630411812714,2033
1630411812718,2034
1630411812722,2035
1630411812726,2035
1630411812730,2034
1630411812734,2033
1630411812738,2033
1630411812742,2032
1630411812746,2032
1630411812750,2032
1630411812754,2032
1630411812758,2032
1630411812762,2032
1630411812766,2032
1630411812770,2033
1630411812774,2034
1630411812778,2036
1630411812782,2038
1630411812786,2040
1630411812790,2040
1630411812794,2039
1630411812798,2038
1630411812802,2037
1630411812806,2036
1630411812810,2036
1630411812814,2036
1630411812818,2036
1630411812822,2035
1630411812826,2035
1630411812830,2034
1630411812834,2034
1630411812838,2035
1630411812842,2035
1630411812846,2036
1630411812850,2037
1630411812854,2036
1630411812858,2036
1630411812862,2035
1630411812866,2035
1630411812870,2035
1630411812874,2037
1630411812878,2039
1630411812882,2038
1630411812886,2034
1630411812890,2028
1630411812894,2023
1630411812898,2027
1630411812902,2044
1630411812906,2079
1630411812910,2131
1630411812914,2188
1630411812918,2231
1630411812922,2243
1630411812926,2218
1630411812930,2161
1630411812934,2093
1630411812938,2037
1630411812942,2005
1630411812946,1999
1630411812950,2009
1630411812954,2023
1630411812958,2032
1630411812962,2036
1630411812966,2038
1630411812970,2039
1630411812974,2039
1630411812978,2040
1630411812982,2040
1630411812986,2040
1630411812990,2041
1630411812994,2042
1630411812998,2044
1630411813002,2045
1630411813006,2046
1630411813010,2047
1630411813014,2047
1630411813018,2046
1630411813022,2046
1630411813026,2047
1630411813030,2048
1630411813034,2048
1630411813038,2050
1630411813042,2051
1630411813046,2052
1630411813050,2053
1630411813054,2053
1630411813058,2054
1630411813062,2055
1630411813066,2057
1630411813070,2058
1630411813074,2060
1630411813078,2061
1630411813082,2063
1630411813086,2064
1630411813090,2065
1630411813094,2066
1630411813098,2067
1630411813102,2068
1630411813106,2069
1630411813110,2071
1630411813114,2073
1630411813118,2075
1630411813122,2077
1630411813126,2078
1630411813130,2080
1630411813134,2081
1630411813138,2081
1630411813142,2082
1630411813146,2082
1630411813150,2082
1630411813154,2082
1630411813158,2081
1630411813162,2081
1630411813166,2081
1630411813170,2080
1630411813174,2079
1630411813178,2077
1630411813182,2074
1630411813186,2071
1630411813190,2068
1630411813194,2065
1630411813198,2062
1630411813202,2058
1630411813206,2055
1630411813210,2052
1630411813214,2049
1630411813218,2047
1630411813222,2044
1630411813226,2042
1630411813230,2041
1630411813234,2040
1630411813238,2040
1630411813242,2040
1630411813246,2040
1630411813250,2040
1630411813254,2040
1630411813258,2039
1630411813262,2039
1630411813266,2039
1630411813270,2039
1630411813274,2039
1630411813278,2040
1630411813282,2041
1630411813286,2042
1630411813290,2042
1630411813294,2043
1630411813298,2043
1630411813302,2043
1630411813306,2043
1630411813310,2044
1630411813314,2045
1630411813318,2046
1630411813322,2047
1630411813326,2047
1630411813330,2048
1630411813334,2048
1630411813338,2048
1630411813342,2048
1630411813346,2048
1630411813350,2048
1630411813354,2048
1630411813358,2049
1630411813362,2050
1630411813366,2051
1630411813370,2051
1630411813374,2051
1630411813378,2050
1630411813382,2050
1630411813386,2049
1630411813390,2049
1630411813394,2049
1630411813398,2049
1630411813402,2049
1630411813406,2049
1630411813410,2049
1630411813414,2049
1630411813418,2049
1630411813422,2048
1630411813426,2048
1630411813430,2048
1630411813434,2048
1630411813438,2049
1630411813442,2049
1630411813446,2049
1630411813450,2049
1630411813454,2048
1630411813458,2048
1630411813462,2048
1630411813466,2048
1630411813470,2048
1630411813474,2048
1630411813478,2049
1630411813482,2050
1630411813486,2050
1630411813490,2050
1630411813494,2050
1630411813498,2049
1630411813502,2049
1630411813506,2048
1630411813510,2049
1630411813514,2049
1630411813518,2050
1630411813522,2050
1630411813526,2050
1630411813530,2049
1630411813534,2048
1630411813538,2048
1630411813542,2048
1630411813546,2048
1630411813550,2048
1630411813554,2048
1630411813558,2049
1630411813562,2052
1630411813566,2055
1630411813570,2058
1630411813574,2059
1630411813578,2058
1630411813582,2056
1630411813586,2054
1630411813590,2053
1630411813594,2053
1630411813598,2053
1630411813602,2054
1630411813606,2053
1630411813610,2053
1630411813614,2052
1630411813618,2052
1630411813622,2052
1630411813626,2052
1630411813630,2052
1630411813634,2052
1630411813638,2052
1630411813642,2052
1630411813646,2053
1630411813650,2053
1630411813654,2053
1630411813658,2053
1630411813662,2054
1630411813666,2054
1630411813670,2052
1630411813674,2048
1630411813678,2042
1630411813682,2039
1630411813686,2047
1630411813690,2066
1630411813694,2103
1630411813698,2154
1630411813702,2209
1630411813706,2252
1630411813710,2265
1630411813714,2242
1630411813718,2186
1630411813722,2118
1630411813726,2059
1630411813730,2027
1630411813734,2020
1630411813738,2030
1630411813742,2044
1630411813746,2051
1630411813750,2053
1630411813754,2052
1630411813758,2051
1630411813762,2052
1630411813766,2052
1630411813770,2052
1630411813774,2053
1630411813778,2053
1630411813782,2053
1630411813786,2053
1630411813790,2053
1630411813794,2054
1630411813798,2055
1630411813802,2056
1630411813806,2056
1630411813810,2057
1630411813814,2057
1630411813818,2058
1630411813822,2058
1630411813826,2059
1630411813830,2060
1630411813834,2061
1630411813838,2061
1630411813842,2062
1630411813846,2063
1630411813850,2063
1630411813854,2064
1630411813858,2065
1630411813862,2066
1630411813866,2068
1630411813870,2069
1630411813874,2070
1630411813878,2072
1630411813882,2073
1630411813886,2075
1630411813890,2077
1630411813894,2079
1630411813898,2080
1630411813902,2081
1630411813906,2082
1630411813910,2084
1630411813914,2086
1630411813918,2088
1630411813922,2089
1630411813926,2090
1630411813930,2091
1630411813934,2091
1630411813938,2090
1630411813942,2090
1630411813946,2090
1630411813950,2090
1630411813954,2090
1630411813958,2090
1630411813962,2089
1630411813966,2088
1630411813970,2085
1630411813974,2082
1630411813978,2078
1630411813982,2074
1630411813986,2070
1630411813990,2067
1630411813994,2064
1630411813998,2061
1630411814002,2058
1630411814006,2055
1630411814010,2053
1630411814014,2051
1630411814018,2049
1630411814022,2048
1630411814026,2048
1630411814030,2048
1630411814034,2047
1630411814038,2047
1630411814042,2047
1630411814046,2048
1630411814050,2048
1630411814054,2048
1630411814058,2048
1630411814062,2048
1630411814066,2048
1630411814070,2048
1630411814074,2048
1630411814078,2048
1630411814082,2048
1630411814086,2049
1630411814090,2049
1630411814094,2048
1630411814098,2048
1630411814102,2048
1630411814106,2048
1630411814110,2049
1630411814114,2049
1630411814118,2049
1630411814122,2050
1630411814126,2050
1630411814130,2051
1630411814134,2051
1630411814138,2051
1630411814142,2051
1630411814146,2051
1630411814150,2050
1630411814154,2050
1630411814158,2050
1630411814162,2051
1630411814166,2051
1630411814170,2052
1630411814174,2052
1630411814178,2051
1630411814182,2050
1630411814186,2050
1630411814190,2049
1630411814194,2049
1630411814198,2049
1630411814202,2049
1630411814206,2049
1630411814210,2049
1630411814214,2049
1630411814218,2049
1630411814222,2048
1630411814226,2048
1630411814230,2048
1630411814234,2048
1630411814238,2048
1630411814242,2048
1630411814246,2048
1630411814250,2048
1630411814254,2048
1630411814258,2048
1630411814262,2047
1630411814266,2047
1630411814270,2047
1630411814274,2047
1630411814278,2047
1630411814282,2047
1630411814286,2048
1630411814290,2048
1630411814294,2047
1630411814298,2047
1630411814302,2046
1630411814306,2046
1630411814310,2045
1630411814314,2045
1630411814318,2044
1630411814322,2044
1630411814326,2044
1630411814330,2044
1630411814334,2044
1630411814338,2043
1630411814342,2042
1630411814346,2043
1630411814350,2045
1630411814354,2047
1630411814358,2049
1630411814362,2051
1630411814366,2052
1630411814370,2051
1630411814374,2049
1630411814378,2048
1630411814382,2047
1630411814386,2047
1630411814390,2046
1630411814394,2046
1630411814398,2046
1630411814402,2046
1630411814406,2046
1630411814410,2046
1630411814414,2046
1630411814418,2046
1630411814422,2045
1630411814426,2045
1630411814430,2045
1630411814434,2045
1630411814438,2045
1630411814442,2045
1630411814446,2045
1630411814450,2046
1630411814454,2048
1630411814458,2047
1630411814462,2044
1630411814466,2038
1630411814470,2033
1630411814474,2034
1630411814478,2047
1630411814482,2074
1630411814486,2119
1630411814490,2172
1630411814494,2221
1630411814498,2247
1630411814502,2239
1630411814506,2197
1630411814510,2134
1630411814514,2072
1630411814518,2030
1630411814522,2013
1630411814526,2017
1630411814530,2030
1630411814534,2042
1630411814538,2045
1630411814542,2045
1630411814546,2044
1630411814550,2044
1630411814554,2044
1630411814558,2045
1630411814562,2046
1630411814566,2046
1630411814570,2046
1630411814574,2047
1630411814578,2047
1630411814582,2047
1630411814586,2048
1630411814590,2048
1630411814594,2048
1630411814598,2049
1630411814602,2049
1630411814606,2050
1630411814610,2051
1630411814614,2052
1630411814618,2052
1630411814622,2052
1630411814626,2053
1630411814630,2053
1630411814634,2054
1630411814638,2056
1630411814642,2058
1630411814646,2059
1630411814650,2060
1630411814654,2060
1630411814658,2061
1630411814662,2062
1630411814666,2063
1630411814670,2065
1630411814674,2066
1630411814678,2068
1630411814682,2070
1630411814686,2071
1630411814690,2072
1630411814694,2074
1630411814698,2075
1630411814702,2076
1630411814706,2077
1630411814710,2079
1630411814714,2080
1630411814718,2081
1630411814722,2081
1630411814726,2082
1630411814730,2083
1630411814734,2083
1630411814738,2082
1630411814742,2081
1630411814746,2081
1630411814750,2080
1630411814754,2079
1630411814758,2078
1630411814762,2075
1630411814766,2072
1630411814770,2069
1630411814774,2065
1630411814778,2061
1630411814782,2057
1630411814786,2053
1630411814790,2050
1630411814794,2048
1630411814798,2046
1630411814802,2045
1630411814806,2044
1630411814810,2042
1630411814814,2041
1630411814818,2039
1630411814822,2038
1630411814826,2037
1630411814830,2037
1630411814834,2037
1630411814838,2037
1630411814842,2038
1630411814846,2039
1630411814850,2039
1630411814854,2039
1630411814858,2038
1630411814862,2037
1630411814866,2037
1630411814870,2037
1630411814874,2038
1630411814878,2039
1630411814882,2039
1630411814886,2040
1630411814890,2040
1630411814894,2040
1630411814898,2040
1630411814902,2040
1630411814906,2039
1630411814910,2039
1630411814914,2039
1630411814918,2040
1630411814922,2040
1630411814926,2040
1630411814930,2040
1630411814934,2040
1630411814938,2039
1630411814942,2039
1630411814946,2038
1630411814950,2038
1630411814954,2038
1630411814958,2038
1630411814962,2037
1630411814966,2037
1630411814970,2036
1630411814974,2036
1630411814978,2035
1630411814982,2035
1630411814986,2034
1630411814990,2034
1630411814994,2033
1630411814998,2033
1630411815002,2033
1630411815006,2033
1630411815010,2033
1630411815014,2033
1630411815018,2033
1630411815022,2032
1630411815026,2032
1630411815030,2031
1630411815034,2030
1630411815038,2030
1630411815042,2031
1630411815046,2032
1630411815050,2032
1630411815054,2031
1630411815058,2030
1630411815062,2029
1630411815066,2029
1630411815070,2029
1630411815074,2029
1630411815078,2029
1630411815082,2030
1630411815086,2030
1630411815090,2029
1630411815094,2029
1630411815098,2027
1630411815102,2026
1630411815106,2025
1630411815110,2024
1630411815114,2024
1630411815118,2024
1630411815122,2025
1630411815126,2027
1630411815130,2030
1630411815134,2033
1630411815138,2035
1630411815142,2035
1630411815146,2035
1630411815150,2033
1630411815154,2032
1630411815158,2031
1630411815162,2031
1630411815166,2031
1630411815170,2031
1630411815174,2030
1630411815178,2029
1630411815182,2028
1630411815186,2028
1630411815190,2028
1630411815194,2028
1630411815198,2029
1630411815202,2029
1630411815206,2030
1630411815210,2030
1630411815214,2029
1630411815218,2029
1630411815222,2029
1630411815226,2030
1630411815230,2031
1630411815234,2031
1630411815238,2029
1630411815242,2022
1630411815246,2017
1630411815250,2017
1630411815254,2029
1630411815258,2056
1630411815262,2102
1630411815266,2158
1630411815270,2207
1630411815274,2234
1630411815278,2225
1630411815282,2181
1630411815286,2116
1630411815290,2054
1630411815294,2012
1630411815298,1995
1630411815302,1999
1630411815306,2012
1630411815310,2024
1630411815314,2029
1630411815318,2030
1630411815322,2031
1630411815326,2032
1630411815330,2033
1630411815334,2033
1630411815338,2033
1630411815342,2032
1630411815346,2032
1630411815350,2033
1630411815354,2034
1630411815358,2035
1630411815362,2036
1630411815366,2037
1630411815370,2038
1630411815374,2038
1630411815378,2038
1630411815382,2038
1630411815386,2038
1630411815390,2039
1630411815394,2040
1630411815398,2041
1630411815402,2043
1630411815406,2044
1630411815410,2045
1630411815414,2046
1630411815418,2047
1630411815422,2047
1630411815426,2048
1630411815430,2048
1630411815434,2049
1630411815438,2051
1630411815442,2053
1630411815446,2055
1630411815450,2057
1630411815454,2059
1630411815458,2060
1630411815462,2061
1630411815466,2062
1630411815470,2063
1630411815474,2064
1630411815478,2065
1630411815482,2067
1630411815486,2069
1630411815490,2070
1630411815494,2071
1630411815498,2071
1630411815502,2071
1630411815506,2071
1630411815510,2070
1630411815514,2070
1630411815518,2070
1630411815522,2069
1630411815526,2069
1630411815530,2068
1630411815534,2066
1630411815538,2063
1630411815542,2060
1630411815546,2056
1630411815550,2053
1630411815554,2049
1630411815558,2047
1630411815562,2043
1630411815566,2041
1630411815570,2039
1630411815574,2036
1630411815578,2034
1630411815582,2032
1630411815586,2030
1630411815590,2029
1630411815594,2028
1630411815598,2028
1630411815602,2028
1630411815606,2028
1630411815610,2028
1630411815614,2027
1630411815618,2027
1630411815622,2027
1630411815626,2027
1630411815630,2027
1630411815634,2027
1630411815638,2028
1630411815642,2029
1630411815646,2030
1630411815650,2031
1630411815654,2031
1630411815658,2031
1630411815662,2031
1630411815666,2031
1630411815670,2032
1630411815674,2032
1630411815678,2033
1630411815682,2033
1630411815686,2034
1630411815690,2035
1630411815694,2035
1630411815698,2035
1630411815702,2035
1630411815706,2035
1630411815710,2035
1630411815714,2034
1630411815718,2035
1630411815722,2035
1630411815726,2035
1630411815730,2035
1630411815734,2035
1630411815738,2035
1630411815742,2034
1630411815746,2033
1630411815750,2033
1630411815754,2033
1630411815758,2033
1630411815762,2033
1630411815766,2034
1630411815770,2034
1630411815774,2034
1630411815778,2033
1630411815782,2033
1630411815786,2032
1630411815790,2032
1630411815794,2032
1630411815798,2033
1630411815802,2033
1630411815806,2033
1630411815810,2033
1630411815814,2033
1630411815818,2033
1630411815822,2032
1630411815826,2031
1630411815830,2031
1630411815834,2031
1630411815838,2032
1630411815842,2034
1630411815846,2037
1630411815850,2039
1630411815854,2041
1630411815858,2041
1630411815862,2040
1630411815866,2039
1630411815870,2037
1630411815874,2037
1630411815878,2037
1630411815882,2037
1630411815886,2037
1630411815890,2037
1630411815894,2037
1630411815898,2036
1630411815902,2036
1630411815906,2036
1630411815910,2036
1630411815914,2037
1630411815918,2037
1630411815922,2038
1630411815926,2038
1630411815930,2038
1630411815934,2038
1630411815938,2038
1630411815942,2039
1630411815946,2040
1630411815950,2040
1630411815954,2038
1630411815958,2033
1630411815962,2028
1630411815966,2029
1630411815970,2041
1630411815974,2069
1630411815978,2116
1630411815982,2173
1630411815986,2222
1630411815990,2246
1630411815994,2232
1630411815998,2184
1630411816002,2116
1630411816006,2053
1630411816010,2013
1630411816014,1999
1630411816018,2005
1630411816022,2019
1630411816026,2032
1630411816030,2037
1630411816034,2040
1630411816038,2042
1630411816042,2043
1630411816046,2044
1630411816050,2045
1630411816054,2046
1630411816058,2046
1630411816062,2046
1630411816066,2046
1630411816070,2047
1630411816074,2048
1630411816078,2049
1630411816082,2050
1630411816086,2052
1630411816090,2052
1630411816094,2052
1630411816098,2053
1630411816102,2053
1630411816106,2054
1630411816110,2056
1630411816114,2057
1630411816118,2058
1630411816122,2059
1630411816126,2060
1630411816130,2061
1630411816134,2062
1630411816138,2063
1630411816142,2064
1630411816146,2065
1630411816150,2066
1630411816154,2067
1630411816158,2069
1630411816162,2071
1630411816166,2073
1630411816170,2075
1630411816174,2076
1630411816178,2077
1630411816182,2078
1630411816186,2080
1630411816190,2081
1630411816194,2083
1630411816198,2085
1630411816202,2087
1630411816206,2088
1630411816210,2088
1630411816214,2088
1630411816218,2088
1630411816222,2087
1630411816226,2087
1630411816230,2086
1630411816234,2086
1630411816238,2086
1630411816242,2085
1630411816246,2083
1630411816250,2081
1630411816254,2078
1630411816258,2074
1630411816262,2070
1630411816266,2067
1630411816270,2063
1630411816274,2060
1630411816278,2057
1630411816282,2054
1630411816286,2052
1630411816290,2051
1630411816294,2050
1630411816298,2048
1630411816302,2048
1630411816306,2047
1630411816310,2045
1630411816314,2045
1630411816318,2045
1630411816322,2046
1630411816326,2046
1630411816330,2047
1630411816334,2047
1630411816338,2047
1630411816342,2046
1630411816346,2046
1630411816350,2047
1630411816354,2048
1630411816358,2048
1630411816362,2049
1630411816366,2050
1630411816370,2050
1630411816374,2050
1630411816378,2050
1630411816382,2050
1630411816386,2050
1630411816390,2050
1630411816394,2051
1630411816398,2052
1630411816402,2052
1630411816406,2053
1630411816410,2053
1630411816414,2053
1630411816418,2053
1630411816422,2052
1630411816426,2052
1630411816430,2052
1630411816434,2052
1630411816438,2053
1630411816442,2053
1630411816446,2053
1630411816450,2053
1630411816454,2052
1630411816458,2052
1630411816462,2051
1630411816466,2051
1630411816470,2050
1630411816474,2050
1630411816478,2050
1630411816482,2050
1630411816486,2051
1630411816490,2051
1630411816494,2051
1630411816498,2050
1630411816502,2050
1630411816506,2049
1630411816510,2049
1630411816514,2049
1630411816518,2049
1630411816522,2050
1630411816526,2050
1630411816530,2050
1630411816534,2050
1630411816538,2049
1630411816542,2048
1630411816546,2047
1630411816550,2046
1630411816554,2046
1630411816558,2046
1630411816562,2046
1630411816566,2047
1630411816570,2048
1630411816574,2048
1630411816578,2050
1630411816582,2053
1630411816586,2055
1630411816590,2056
1630411816594,2056
1630411816598,2054
1630411816602,2053
1630411816606,2051
1630411816610,2051
1630411816614,2051
1630411816618,2051
1630411816622,2050
1630411816626,2050
1630411816630,2050
1630411816634,2050
1630411816638,2050
1630411816642,2050
1630411816646,2050
1630411816650,2050
1630411816654,2049
1630411816658,2049
1630411816662,2049
1630411816666,2048
1630411816670,2049
1630411816674,2050
1630411816678,2051
1630411816682,2052
1630411816686,2049
1630411816690,2045
1630411816694,2038
1630411816698,2037
1630411816702,2046
1630411816706,2068
1630411816710,2109
1630411816714,2163
1630411816718,2219
1630411816722,2257
1630411816726,2263
1630411816730,2232
1630411816734,2171
1630411816738,2102
1630411816742,2048
1630411816746,2021
1630411816750,2019
1630411816754,2030
1630411816758,2044
1630411816762,2050
1630411816766,2052
1630411816770,2051
1630411816774,2050
1630411816778,2050
1630411816782,2049
1630411816786,2049
1630411816790,2049
1630411816794,2050
1630411816798,2051
1630411816802,2052
1630411816806,2053
1630411816810,2054
1630411816814,2054
1630411816818,2054
1630411816822,2053
1630411816826,2054
1630411816830,2054
1630411816834,2055
1630411816838,2056
1630411816842,2057
1630411816846,2058
1630411816850,2059
1630411816854,2059
1630411816858,2059
1630411816862,2059
1630411816866,2060
1630411816870,2061
1630411816874,2063
1630411816878,2065
1630411816882,2066
1630411816886,2068
1630411816890,2069
1630411816894,2070
1630411816898,2070
1630411816902,2071
1630411816906,2073
1630411816910,2074
1630411816914,2076
1630411816918,2078
1630411816922,2080
1630411816926,2082
1630411816930,2083
1630411816934,2084
1630411816938,2085
1630411816942,2085
1630411816946,2086
1630411816950,2086
1630411816954,2086
1630411816958,2087
1630411816962,2086
1630411816966,2086
1630411816970,2086
1630411816974,2085
1630411816978,2084
1630411816982,2081
1630411816986,2079
1630411816990,2075
1630411816994,2071
1630411816998,2068
1630411817002,2065
1630411817006,2062
1630411817010,2059
1630411817014,2056
1630411817018,2053
1630411817022,2050
1630411817026,2048
1630411817030,2047
1630411817034,2046
1630411817038,2046
1630411817042,2046
1630411817046,2046
1630411817050,2045
1630411817054,2045
1630411817058,2045
1630411817062,2045
1630411817066,2045
1630411817070,2045
1630411817074,2046
1630411817078,2047
1630411817082,2047
1630411817086,2048
1630411817090,2047
1630411817094,2046
1630411817098,2046
1630411817102,2046
1630411817106,2046
1630411817110,2047
1630411817114,2048
1630411817118,2048
1630411817122,2048
1630411817126,2048
1630411817130,2048
1630411817134,2049
1630411817138,2049
1630411817142,2049
1630411817146,2048
1630411817150,2048
1630411817154,2048
1630411817158,2048
1630411817162,2048
1630411817166,2048
1630411817170,2048
1630411817174,2048
1630411817178,2048
1630411817182,2047
1630411817186,2047
1630411817190,2047
1630411817194,2048
1630411817198,2048
1630411817202,2048
1630411817206,2048
1630411817210,2048
1630411817214,2047
1630411817218,2047
1630411817222,2046
1630411817226,2046
1630411817230,2045
1630411817234,2046
1630411817238,2046
1630411817242,2046
1630411817246,2046
1630411817250,2046
1630411817254,2045
1630411817258,2045
1630411817262,2044
1630411817266,2044
1630411817270,2043
1630411817274,2043
1630411817278,2043
1630411817282,2043
1630411817286,2042
1630411817290,2042
1630411817294,2041
1630411817298,2042
1630411817302,2043
1630411817306,2045
1630411817310,2048
1630411817314,2049
1630411817318,2050
1630411817322,2050
1630411817326,2049
1630411817330,2048
1630411817334,2048
1630411817338,2046
1630411817342,2045
1630411817346,2045
1630411817350,2044
1630411817354,2044
1630411817358,2044
1630411817362,2044
1630411817366,2044
1630411817370,2045
1630411817374,2044
1630411817378,2044
1630411817382,2044
1630411817386,2043
1630411817390,2043
1630411817394,2043
1630411817398,2044
1630411817402,2045
1630411817406,2047
1630411817410,2047
1630411817414,2046
1630411817418,2040
1630411817422,2033
1630411817426,2029
1630411817430,2035
1630411817434,2053
1630411817438,2090
1630411817442,2141
1630411817446,2196
1630411817450,2237
1630411817454,2249
1630411817458,2223
1630411817462,2167
1630411817466,2100
1630411817470,2044
1630411817474,2013
1630411817478,2008
1630411817482,2020
1630411817486,2034
1630411817490,2043
1630411817494,2045
1630411817498,2044
1630411817502,2043
1630411817506,2043
1630411817510,2043
1630411817514,2043
1630411817518,2043
1630411817522,2044
1630411817526,2045
1630411817530,2046
1630411817534,2046
1630411817538,2046
1630411817542,2046
1630411817546,2046
1630411817550,2046
1630411817554,2047
1630411817558,2048
1630411817562,2048
1630411817566,2049
1630411817570,2050
1630411817574,2050
1630411817578,2051
1630411817582,2050
1630411817586,2050
1630411817590,2051
1630411817594,2051
1630411817598,2053
1630411817602,2054
1630411817606,2055
1630411817610,2056
1630411817614,2057
1630411817618,2058
1630411817622,2059
1630411817626,2060
1630411817630,2061
1630411817634,2063
1630411817638,2065
1630411817642,2066
1630411817646,2068
1630411817650,2069
1630411817654,2071
1630411817658,2072
1630411817662,2073
1630411817666,2074
1630411817670,2074
1630411817674,2075
1630411817678,2075
1630411817682,2076
1630411817686,2076
1630411817690,2075
1630411817694,2075
1630411817698,2074
1630411817702,2073
1630411817706,2071
1630411817710,2070
1630411817714,2067
1630411817718,2065
1630411817722,2062
1630411817726,2058
1630411817730,2055
1630411817734,2051
1630411817738,2048
1630411817742,2044
1630411817746,2041
1630411817750,2039
1630411817754,2037
1630411817758,2036
1630411817762,2035
1630411817766,2034
1630411817770,2033
1630411817774,2033
1630411817778,2032
1630411817782,2031
1630411817786,2031
1630411817790,2031
1630411817794,2031
1630411817798,2032
1630411817802,2032
1630411817806,2032
1630411817810,2032
1630411817814,2032
1630411817818,2032
1630411817822,2032
1630411817826,2032
1630411817830,2033
1630411817834,2033
1630411817838,2034
1630411817842,2034
1630411817846,2034
1630411817850,2035
1630411817854,2035
1630411817858,2035
1630411817862,2034
1630411817866,2034
1630411817870,2034
1630411817874,2034
1630411817878,2035
1630411817882,2035
1630411817886,2036
1630411817890,2036
1630411817894,2035
1630411817898,2035
1630411817902,2034
1630411817906,2033
1630411817910,2033
1630411817914,2033
1630411817918,2033
1630411817922,2033
1630411817926,2033
1630411817930,2032
1630411817934,2032
1630411817938,2032
1630411817942,2031
1630411817946,2031
1630411817950,2031
1630411817954,2030
1630411817958,2030
1630411817962,2031
1630411817966,2031
1630411817970,2031
1630411817974,2031
1630411817978,2030
1630411817982,2030
1630411817986,2029
1630411817990,2029
1630411817994,2029
1630411817998,2029
1630411818002,2030
1630411818006,2029
1630411818010,2029
1630411818014,2028
1630411818018,2027
1630411818022,2027
1630411818026,2027
1630411818030,2028
1630411818034,2028
1630411818038,2030
1630411818042,2031
1630411818046,2034
1630411818050,2036
1630411818054,2037
1630411818058,2037
1630411818062,2036
1630411818066,2035
1630411818070,2033
1630411818074,2033
1630411818078,2033
1630411818082,2033
1630411818086,2034
1630411818090,2033
1630411818094,2033
1630411818098,2032
1630411818102,2031
1630411818106,2031
1630411818110,2031
1630411818114,2032
1630411818118,2032
1630411818122,2033
1630411818126,2033
1630411818130,2033
1630411818134,2033
1630411818138,2033
1630411818142,2034
1630411818146,2035
1630411818150,2034
1630411818154,2030
1630411818158,2024
1630411818162,2020
1630411818166,2023
1630411818170,2040
1630411818174,2075
1630411818178,2127
1630411818182,2184
1630411818186,2228
1630411818190,2241
1630411818194,2217
1630411818198,2161
1630411818202,2093
1630411818206,2037
1630411818210,2004
1630411818214,1997
1630411818218,2006
1630411818222,2020
1630411818226,2029
1630411818230,2033
1630411818234,2034
1630411818238,2035
1630411818242,2035
1630411818246,2036
1630411818250,2036
1630411818254,2037
1630411818258,2037
1630411818262,2037
1630411818266,2037
1630411818270,2038
1630411818274,2039
1630411818278,2040
1630411818282,2041
1630411818286,2042
1630411818290,2043
1630411818294,2044
1630411818298,2044
1630411818302,2044
1630411818306,2044
1630411818310,2045
1630411818314,2047
1630411818318,2048
1630411818322,2049
1630411818326,2050
1630411818330,2051
1630411818334,2051
1630411818338,2052
1630411818342,2052
1630411818346,2053
1630411818350,2055
1630411818354,2057
1630411818358,2058
1630411818362,2060
1630411818366,2062
1630411818370,2064
1630411818374,2065
1630411818378,2066
1630411818382,2067
