timestamp,green,ir,red
1630411793136,35260,257849,306753
1630411793146,35215,257834,306712
1630411793156,35165,257809,306727
1630411793166,35125,257791,306681
1630411793176,35081,257721,306681
1630411793186,35047,257709,306644
1630411793196,35011,257662,306643
1630411793206,34989,257655,306620
1630411793216,34984,257678,306607
1630411793226,34982,257729,306636
1630411793236,34977,257728,306670
1630411793246,34978,257716,306600
1630411793256,34975,257707,306650
1630411793266,34959,257720,306639
1630411793276,34961,257702,306625
1630411793286,34958,257721,306632
1630411793296,34954,257729,306656
1630411793306,34953,257688,306626
1630411793316,34953,257701,306661
1630411793326,34946,257726,306638
1630411793336,34955,257713,306619
1630411793346,34951,257752,306665
1630411793356,34959,257771,306647
1630411793366,34972,257752,306653
1630411793376,34984,257821,306653
1630411793386,35010,257817,306682
1630411793396,35016,257795,306676
1630411793406,35030,257825,306719
1630411793416,35054,257884,306736
1630411793426,35072,257922,306754
1630411793436,35096,257903,306767
1630411793446,35113,257928,306752
1630411793456,35133,257987,306819
1630411793466,35162,258006,306784
1630411793476,35186,258031,306800
1630411793486,35207,258052,306821
1630411793496,35234,258093,306822
1630411793506,35258,258118,306840
1630411793516,35290,258141,306838
1630411793526,35314,258179,306868
1630411793536,35341,258207,306898
1630411793546,35361,258249,306904
1630411793556,35394,258236,306904
1630411793566,35414,258269,306937
1630411793576,35439,258313,306930
1630411793586,35466,258359,306943
1630411793596,35495,258377,306964
1630411793606,35518,258443,306969
1630411793616,35537,258504,306973
1630411793626,35576,258454,306988
1630411793636,35607,258479,306987
1630411793646,35628,258506,307043
1630411793656,35661,258541,307023
1630411793666,35694,258592,307053
1630411793676,35711,258613,307055
1630411793686,35759,258689,307091
1630411793696,35783,258705,307105
1630411793706,35816,258737,307120
1630411793716,35841,258780,307129
1630411793726,35871,258788,307126
1630411793736,35911,258843,307132
1630411793746,35940,258866,307177
1630411793756,35971,258939,307168
1630411793766,36002,258897,307206
1630411793776,36032,258989,307191
1630411793786,36048,258956,307221
1630411793796,36048,258890,307167
1630411793806,36000,258769,307106
1630411793816,35928,258651,307070
1630411793826,35849,258613,306998
1630411793836,35769,258500,307002
1630411793846,35704,258428,306955
1630411793856,35634,258369,306958
1630411793866,35583,258279,306887
1630411793876,35525,258257,306912
1630411793886,35489,258210,306897
1630411793896,35436,258164,306886
1630411793906,35392,258111,306885
1630411793916,35350,258059,306863
1630411793926,35303,258056,306819
1630411793936,35276,258011,306799
1630411793946,35227,257974,306793
1630411793956,35185,257951,306758
1630411793966,35141,257924,306739
1630411793976,35108,257871,306728
1630411793986,35077,257891,306723
1630411793996,35049,257857,306710
1630411794006,35024,257819,306702
1630411794016,35010,257848,306709
1630411794026,34997,257899,306710
1630411794036,35002,257890,306750
1630411794046,35006,257898,306700
1630411794056,35007,257930,306723
1630411794066,35003,257877,306737
1630411794076,35000,257870,306686
1630411794086,34993,257926,306703
1630411794096,34995,257879,306723
1630411794106,34994,257910,306717
1630411794116,34999,257908,306726
1630411794126,35004,257905,306721
1630411794136,34999,257928,306740
1630411794146,35006,257904,306709
1630411794156,35013,257902,306722
1630411794166,35020,257972,306732
1630411794176,35035,257958,306711
1630411794186,35052,257958,306736
1630411794196,35070,257976,306757
1630411794206,35091,258046,306772
1630411794216,35117,258069,306806
1630411794226,35135,258076,306806
1630411794236,35156,258104,306808
1630411794246,35175,258134,306822
1630411794256,35207,258206,306829
1630411794266,35228,258200,306855
1630411794276,35268,258258,306826
1630411794286,35282,258280,306929
1630411794296,35317,258310,306893
1630411794306,35347,258275,306889
1630411794316,35375,258319,306950
1630411794326,35408,258423,306997
1630411794336,35437,258449,306932
1630411794346,35463,258458,306976
1630411794356,35494,258503,306985
1630411794366,35523,258544,307002
1630411794376,35554,258557,307023
1630411794386,35582,258584,307020
1630411794396,35611,258587,307047
1630411794406,35660,258630,307063
1630411794416,35669,258665,307029
1630411794426,35702,258694,307058
1630411794436,35727,258746,307089
1630411794446,35765,258775,307105
1630411794456,35791,258824,307127
1630411794466,35809,258872,307136
1630411794476,35855,258844,307163
1630411794486,35875,258932,307157
1630411794496,35909,258926,307147
1630411794506,35940,258988,307200
1630411794516,35975,259016,307200
1630411794526,36002,259040,307229
1630411794536,36042,259073,307281
1630411794546,36067,259100,307246
1630411794556,36103,259171,307269
1630411794566,36138,259158,307276
1630411794576,36172,259222,307267
1630411794586,36205,259253,307328
1630411794596,36242,259312,307345
1630411794606,36285,259347,307369
1630411794616,36304,259380,307353
1630411794626,36312,259301,307350
1630411794636,36309,259250,307302
1630411794646,36255,259187,307264
1630411794656,36173,259043,307198
1630411794666,36104,258884,307169
1630411794676,36012,258787,307100
1630411794686,35931,258730,307045
1630411794696,35854,258666,307011
1630411794706,35800,258597,306976
1630411794716,35739,258533,306987
1630411794726,35683,258489,306940
1630411794736,35650,258469,306920
1630411794746,35582,258360,306949
1630411794756,35523,258359,306867
1630411794766,35467,258261,306812
1630411794776,35419,258242,306782
1630411794786,35368,258183,306744
1630411794796,35315,258123,306728
1630411794806,35278,258113,306696
1630411794816,35224,258083,306680
1630411794826,35177,258013,306665
1630411794836,35139,258017,306617
1630411794846,35092,257946,306590
1630411794856,35069,257907,306581
1630411794866,35045,257882,306561
1630411794876,35028,257885,306576
1630411794886,35025,257911,306569
1630411794896,35040,257933,306576
1630411794906,35026,257944,306557
1630411794916,35028,257921,306581
1630411794926,35034,257914,306540
1630411794936,35027,257890,306517
1630411794946,35022,257900,306504
1630411794956,35024,257877,306505
1630411794966,35015,257862,306482
1630411794976,35026,257903,306509
1630411794986,35015,257900,306497
1630411794996,35024,257912,306479
1630411795006,35029,257926,306476
1630411795016,35035,257890,306512
1630411795026,35040,257924,306483
1630411795036,35052,257948,306503
1630411795046,35075,257961,306518
1630411795056,35095,257977,306545
1630411795066,35119,258010,306533
1630411795076,35146,258040,306540
1630411795086,35155,258038,306585
1630411795096,35172,258080,306609
1630411795106,35206,258092,306593
1630411795116,35240,258115,306620
1630411795126,35270,258122,306637
1630411795136,35302,258120,306657
1630411795146,35327,258180,306654
1630411795156,35352,258178,306704
1630411795166,35375,258173,306661
1630411795176,35415,258247,306702
1630411795186,35445,258286,306692
1630411795196,35479,258316,306710
1630411795206,35518,258320,306733
1630411795216,35557,258376,306737
1630411795226,35599,258410,306746
1630411795236,35629,258449,306768
1630411795246,35659,258473,306785
1630411795256,35713,258533,306788
1630411795266,35726,258539,306806
1630411795276,35770,258532,306788
1630411795286,35800,258604,306819
1630411795296,35835,258637,306824
1630411795306,35873,258653,306836
1630411795316,35920,258680,306837
1630411795326,35953,258721,306895
1630411795336,35987,258773,306849
1630411795346,36031,258829,306896
1630411795356,36062,258851,306893
1630411795366,36108,258886,306869
1630411795376,36155,258947,306883
1630411795386,36187,258976,306896
1630411795396,36236,259057,306883
1630411795406,36291,259058,306895
1630411795416,36332,259108,306898
1630411795426,36370,259160,306946
1630411795436,36407,259181,306908
1630411795446,36439,259206,306909
1630411795456,36444,259182,306959
1630411795466,36435,259165,306888
1630411795476,36388,259062,306887
1630411795486,36318,258948,306781
1630411795496,36230,258797,306751
1630411795506,36154,258716,306718
1630411795516,36081,258652,306656
1630411795526,36009,258582,306649
1630411795536,35965,258522,306649
1630411795546,35897,258512,306602
1630411795556,35868,258482,306618
1630411795566,35827,258425,306557
1630411795576,35787,258408,306562
1630411795586,35768,258308,306524
1630411795596,35737,258310,306523
1630411795606,35718,258267,306509
1630411795616,35692,258250,306472
1630411795626,35670,258121,306446
1630411795636,35640,258121,306391
1630411795646,35617,258104,306390
1630411795656,35592,258041,306386
1630411795666,35565,258013,306361
1630411795676,35544,257967,306362
1630411795686,35528,257934,306361
1630411795696,35512,257900,306322
1630411795706,35507,257902,306297
1630411795716,35516,257911,306337
1630411795726,35519,257926,306306
1630411795736,35520,257863,306314
1630411795746,35509,257885,306332
1630411795756,35498,257856,306299
1630411795766,35490,257878,306274
1630411795776,35488,257857,306251
1630411795786,35477,257840,306269
1630411795796,35474,257865,306257
1630411795806,35475,257841,306228
1630411795816,35476,257857,306222
1630411795826,35478,257813,306221
1630411795836,35476,257844,306194
1630411795846,35487,257872,306225
1630411795856,35494,257863,306247
1630411795866,35495,257927,306235
1630411795876,35505,257887,306267
1630411795886,35523,257938,306264
1630411795896,35532,257951,306261
1630411795906,35538,257998,306314
1630411795916,35549,258027,306305
1630411795926,35566,258049,306311
1630411795936,35581,258058,306333
1630411795946,35605,258076,306363
1630411795956,35619,258090,306331
1630411795966,35628,258135,306431
1630411795976,35655,258160,306456
1630411795986,35672,258208,306468
1630411795996,35686,258224,306483
1630411796006,35706,258235,306523
1630411796016,35717,258320,306490
1630411796026,35746,258337,306528
1630411796036,35764,258380,306588
1630411796046,35781,258356,306588
1630411796056,35796,258416,306613
1630411796066,35815,258411,306628
1630411796076,35840,258435,306622
1630411796086,35861,258465,306667
1630411796096,35882,258507,306677
1630411796106,35911,258507,306674
1630411796116,35929,258562,306658
1630411796126,35964,258564,306717
1630411796136,35994,258640,306718
1630411796146,36024,258626,306696
1630411796156,36050,258672,306722
1630411796166,36085,258725,306722
1630411796176,36118,258709,306755
1630411796186,36142,258749,306767
1630411796196,36169,258752,306699
1630411796206,36148,258649,306664
1630411796216,36117,258559,306659
1630411796226,36057,258460,306613
1630411796236,35976,258348,306541
1630411796246,35905,258238,306532
1630411796256,35842,258189,306528
1630411796266,35780,258119,306455
1630411796276,35732,258100,306453
1630411796286,35693,258081,306453
1630411796296,35649,258069,306473
1630411796306,35613,258033,306504
1630411796316,35576,258053,306464
1630411796326,35535,258003,306472
1630411796336,35495,257958,306446
1630411796346,35473,257930,306441
1630411796356,35421,257925,306458
1630411796366,35378,257888,306465
1630411796376,35355,257871,306472
1630411796386,35310,257844,306480
1630411796396,35281,257858,306476
1630411796406,35258,257840,306488
1630411796416,35235,257854,306509
1630411796426,35227,257912,306495
1630411796436,35236,257862,306485
1630411796446,35217,257909,306531
1630411796456,35215,257925,306530
1630411796466,35210,257887,306565
1630411796476,35201,257865,306534
1630411796486,35192,257902,306589
1630411796496,35175,257863,306567
1630411796506,35170,257926,306592
1630411796516,35152,257915,306582
1630411796526,35159,257911,306598
1630411796536,35158,257865,306603
1630411796546,35140,257865,306551
1630411796556,35137,257936,306617
1630411796566,35155,257875,306582
1630411796576,35166,257892,306622
1630411796586,35170,257907,306604
1630411796596,35183,257977,306623
1630411796606,35192,257990,306619
1630411796616,35214,257991,306632
1630411796626,35227,258014,306656
1630411796636,35237,258035,306668
1630411796646,35263,258075,306658
1630411796656,35284,258092,306659
1630411796666,35306,258096,306662
1630411796676,35311,258147,306690
1630411796686,35365,258170,306707
1630411796696,35386,258223,306747
1630411796706,35406,258274,306774
1630411796716,35437,258265,306773
1630411796726,35461,258271,306793
1630411796736,35488,258304,306779
1630411796746,35515,258292,306813
1630411796756,35545,258373,306832
1630411796766,35570,258372,306843
1630411796776,35598,258409,306867
1630411796786,35618,258429,306873
1630411796796,35640,258433,306882
1630411796806,35671,258507,306928
1630411796816,35689,258518,306872
1630411796826,35709,258562,306930
1630411796836,35742,258594,306909
1630411796846,35761,258585,306920
1630411796856,35798,258614,306958
1630411796866,35822,258657,306993
1630411796876,35854,258712,306983
1630411796886,35878,258731,306995
1630411796896,35908,258778,307011
1630411796906,35929,258781,307003
1630411796916,35943,258753,307047
1630411796926,35927,258723,306997
1630411796936,35895,258640,306927
1630411796946,35835,258502,306895
1630411796956,35754,258414,306833
1630411796966,35672,258304,306815
1630411796976,35590,258231,306739
1630411796986,35511,258126,306721
1630411796996,35439,258024,306732
1630411797006,35378,258026,306680
1630411797016,35321,257916,306680
1630411797026,35268,257930,306639
1630411797036,35204,257850,306605
1630411797046,35149,257805,306579
1630411797056,35089,257724,306519
1630411797066,35041,257721,306504
1630411797076,34989,257668,306483
1630411797086,34936,257627,306452
1630411797096,34891,257551,306405
1630411797106,34840,257544,306379
1630411797116,34802,257457,306321
1630411797126,34758,257458,306283
1630411797136,34718,257424,306246
1630411797146,34689,257382,306213
1630411797156,34659,257383,306197
1630411797166,34659,257377,306183
1630411797176,34655,257394,306173
1630411797186,34643,257409,306136
1630411797196,34659,257406,306193
1630411797206,34663,257435,306197
1630411797216,34666,257477,306158
1630411797226,34661,257440,306146
1630411797236,34668,257466,306118
1630411797246,34666,257438,306156
1630411797256,34668,257439,306109
1630411797266,34682,257448,306122
1630411797276,34675,257474,306123
1630411797286,34683,257477,306159
1630411797296,34696,257498,306137
1630411797306,34710,257533,306133
1630411797316,34725,257573,306148
1630411797326,34747,257554,306169
1630411797336,34764,257607,306179
1630411797346,34786,257651,306176
1630411797356,34810,257681,306166
1630411797366,34827,257678,306236
1630411797376,34865,257760,306200
1630411797386,34890,257788,306239
1630411797396,34916,257846,306258
1630411797406,34950,257847,306306
1630411797416,34974,257884,306334
1630411797426,35008,257889,306270
1630411797436,35030,257950,306308
1630411797446,35067,258000,306316
1630411797456,35101,258057,306386
1630411797466,35129,258046,306390
1630411797476,35158,258073,306371
1630411797486,35205,258130,306430
1630411797496,35230,258136,306461
1630411797506,35252,258200,306426
1630411797516,35288,258193,306463
1630411797526,35318,258241,306462
1630411797536,35349,258327,306488
1630411797546,35382,258335,306505
1630411797556,35406,258385,306550
1630411797566,35441,258415,306558
1630411797576,35474,258444,306546
1630411797586,35504,258481,306593
1630411797596,35538,258505,306599
1630411797606,35575,258522,306593
1630411797616,35604,258592,306602
1630411797626,35638,258612,306629
1630411797636,35667,258661,306631
1630411797646,35704,258695,306675
1630411797656,35721,258727,306650
1630411797666,35744,258685,306666
1630411797676,35725,258605,306656
1630411797686,35684,258513,306605
1630411797696,35626,258418,306558
1630411797706,35535,258276,306496
1630411797716,35460,258233,306431
1630411797726,35383,258154,306394
1630411797736,35310,258065,306376
1630411797746,35257,258021,306391
1630411797756,35202,257973,306325
1630411797766,35154,257903,306313
1630411797776,35092,257852,306301
1630411797786,35045,257841,306256
1630411797796,34998,257762,306266
1630411797806,34950,257733,306261
1630411797816,34892,257704,306259
1630411797826,34854,257720,306232
1630411797836,34814,257668,306254
1630411797846,34772,257648,306245
1630411797856,34732,257616,306281
1630411797866,34697,257573,306271
1630411797876,34660,257586,306254
1630411797886,34630,257571,306279
1630411797896,34609,257517,306262
1630411797906,34598,257515,306264
1630411797916,34601,257544,306271
1630411797926,34609,257559,306257
1630411797936,34617,257551,306284
1630411797946,34623,257554,306266
1630411797956,34628,257562,306279
1630411797966,34639,257557,306276
1630411797976,34626,257585,306245
1630411797986,34632,257575,306222
1630411797996,34641,257525,306243
1630411798006,34655,257583,306251
1630411798016,34656,257583,306275
1630411798026,34661,257613,306258
1630411798036,34673,257634,306278
1630411798046,34699,257677,306311
1630411798056,34715,257704,306317
1630411798066,34727,257701,306353
1630411798076,34747,257728,306351
1630411798086,34769,257728,306324
1630411798096,34787,257795,306342
1630411798106,34811,257797,306363
1630411798116,34840,257829,306383
1630411798126,34859,257857,306374
1630411798136,34897,257893,306371
1630411798146,34916,257915,306434
1630411798156,34952,257983,306429
1630411798166,34987,257995,306435
1630411798176,35016,258027,306469
1630411798186,35049,258078,306485
1630411798196,35075,258123,306490
1630411798206,35113,258179,306491
1630411798216,35144,258203,306509
1630411798226,35169,258224,306511
1630411798236,35208,258297,306569
1630411798246,35239,258294,306597
1630411798256,35270,258316,306645
1630411798266,35294,258352,306596
1630411798276,35330,258432,306614
1630411798286,35360,258466,306640
1630411798296,35398,258507,306642
1630411798306,35431,258473,306672
1630411798316,35459,258516,306685
1630411798326,35494,258610,306698
1630411798336,35527,258639,306717
1630411798346,35548,258681,306702
1630411798356,35582,258719,306731
1630411798366,35621,258766,306764
1630411798376,35656,258799,306756
1630411798386,35692,258843,306761
1630411798396,35724,258897,306798
1630411798406,35751,258913,306841
1630411798416,35790,258937,306841
1630411798426,35826,259003,306870
1630411798436,35850,259014,306881
1630411798446,35881,259027,306867
1630411798456,35886,258982,306878
1630411798466,35861,258911,306831
1630411798476,35798,258753,306806
1630411798486,35735,258672,306703
1630411798496,35656,258515,306684
1630411798506,35578,258416,306666
1630411798516,35508,258342,306607
1630411798526,35452,258335,306623
1630411798536,35391,258273,306603
1630411798546,35343,258228,306560
1630411798556,35303,258193,306538
1630411798566,35256,258124,306516
1630411798576,35216,258080,306484
1630411798586,35169,258077,306452
1630411798596,35127,258037,306458
1630411798606,35088,257992,306443
1630411798616,35048,257935,306409
1630411798626,35013,257937,306403
1630411798636,34978,257908,306388
1630411798646,34942,257859,306384
1630411798656,34915,257871,306353
1630411798666,34881,257812,306343
1630411798676,34866,257809,306332
1630411798686,34853,257834,306350
1630411798696,34854,257858,306368
1630411798706,34860,257872,306377
1630411798716,34874,257874,306370
1630411798726,34876,257845,306359
1630411798736,34879,257887,306361
1630411798746,34883,257876,306348
1630411798756,34888,257884,306337
1630411798766,34883,257876,306379
1630411798776,34888,257880,306370
1630411798786,34890,257888,306372
1630411798796,34906,257927,306358
1630411798806,34904,257920,306356
1630411798816,34914,257901,306372
1630411798826,34931,257973,306375
1630411798836,34940,257987,306382
1630411798846,34957,258002,306404
1630411798856,34980,258009,306441
1630411798866,35001,258030,306429
1630411798876,35027,258097,306467
1630411798886,35048,258120,306476
1630411798896,35080,258086,306456
1630411798906,35098,258169,306481
1630411798916,35126,258148,306546
1630411798926,35145,258230,306522
1630411798936,35180,258216,306548
1630411798946,35201,258286,306540
1630411798956,35222,258289,306507
1630411798966,35263,258373,306546
1630411798976,35296,258348,306581
1630411798986,35321,258412,306641
1630411798996,35349,258469,306671
1630411799006,35387,258528,306623
1630411799016,35422,258537,306700
1630411799026,35453,258579,306675
1630411799036,35480,258634,306684
1630411799046,35512,258615,306704
1630411799056,35541,258658,306713
1630411799066,35584,258685,306690
1630411799076,35607,258733,306693
1630411799086,35641,258791,306731
1630411799096,35665,258801,306774
1630411799106,35698,258815,306766
1630411799116,35730,258855,306798
1630411799126,35768,258898,306762
1630411799136,35803,258901,306755
1630411799146,35822,258916,306762
1630411799156,35855,258979,306707
1630411799166,35894,258997,306705
1630411799176,35934,259037,306631
1630411799186,35972,259027,306616
1630411799196,36003,259107,306643
1630411799206,36048,259083,306632
1630411799216,36081,259184,306616
1630411799226,36111,259163,306580
1630411799236,36118,259128,306605
1630411799246,36100,259037,306517
1630411799256,36042,258926,306422
1630411799266,35983,258814,306423
1630411799276,35912,258695,306340
1630411799286,35843,258627,306347
1630411799296,35790,258597,306313
1630411799306,35730,258557,306336
1630411799316,35690,258528,306308
1630411799326,35660,258486,306315
1630411799336,35617,258444,306315
1630411799346,35583,258413,306321
1630411799356,35551,258434,306254
1630411799366,35512,258365,306318
1630411799376,35477,258315,306301
1630411799386,35444,258352,306270
1630411799396,35408,258315,306280
1630411799406,35376,258341,306231
1630411799416,35353,258292,306274
1630411799426,35322,258257,306290
1630411799436,35291,258266,306309
1630411799446,35284,258221,306270
1630411799456,35273,258231,306255
1630411799466,35264,258292,306244
1630411799476,35281,258295,306264
1630411799486,35281,258321,306293
1630411799496,35289,258260,306252
1630411799506,35287,258353,306270
1630411799516,35288,258305,306258
1630411799526,35280,258298,306225
1630411799536,35289,258272,306141
1630411799546,35277,258270,306055
1630411799556,35293,258277,305990
1630411799566,35291,258310,305959
1630411799576,35302,258321,305944
1630411799586,35315,258383,305885
1630411799596,35347,258369,305881
1630411799606,35363,258408,305877
1630411799616,35367,258431,305921
1630411799626,35403,258449,305922
1630411799636,35440,258529,305916
1630411799646,35461,258500,305934
1630411799656,35491,258585,305964
1630411799666,35519,258630,305964
1630411799676,35552,258666,306016
1630411799686,35582,258708,306070
1630411799696,35606,258766,306110
1630411799706,35643,258803,306154
1630411799716,35678,258831,306186
1630411799726,35707,258846,306212
1630411799736,35734,258894,306240
1630411799746,35764,258958,306236
1630411799756,35787,258975,306282
1630411799766,35814,258997,306316
1630411799776,35852,259060,306322
1630411799786,35885,259119,306370
1630411799796,35914,259089,306368
1630411799806,35935,259158,306422
1630411799816,35971,259171,306419
1630411799826,35990,259180,306441
1630411799836,36018,259226,306459
1630411799846,36050,259243,306506
1630411799856,36076,259303,306510
1630411799866,36110,259362,306535
1630411799876,36143,259365,306586
1630411799886,36162,259413,306621
1630411799896,36198,259416,306630
1630411799906,36228,259496,306654
1630411799916,36261,259516,306714
1630411799926,36297,259576,306716
1630411799936,36324,259592,306791
1630411799946,36366,259688,306839
1630411799956,36385,259653,306893
1630411799966,36412,259699,306898
1630411799976,36421,259671,306909
1630411799986,36390,259577,306860
1630411799996,36342,259478,306806
1630411800006,36270,259386,306791
1630411800016,36184,259273,306774
1630411800026,36101,259145,306731
1630411800036,36005,259094,306684
1630411800046,35941,258993,306724
1630411800056,35875,258944,306679
1630411800066,35810,258926,306671
1630411800076,35745,258851,306660
1630411800086,35691,258794,306604
1630411800096,35629,258755,306606
1630411800106,35570,258685,306581
1630411800116,35500,258627,306590
1630411800126,35430,258601,306572
1630411800136,35370,258553,306543
1630411800146,35307,258506,306491
1630411800156,35248,258439,306487
1630411800166,35197,258382,306456
1630411800176,35137,258313,306385
1630411800186,35082,258313,306320
1630411800196,35039,258298,306278
1630411800206,35008,258232,306314
1630411800216,34978,258209,306245
1630411800226,34960,258224,306193
1630411800236,34963,258213,306152
1630411800246,34962,258213,306116
1630411800256,34958,258204,306061
1630411800266,34970,258194,305966
1630411800276,34954,258236,305928
1630411800286,34951,258176,305877
1630411800296,34962,258215,305833
1630411800306,34966,258182,305727
1630411800316,34970,258226,305704
1630411800326,34973,258204,305692
1630411800336,34991,258243,305636
1630411800346,35010,258293,305585
1630411800356,35029,258320,305528
1630411800366,35050,258322,305554
1630411800376,35072,258351,305539
1630411800386,35098,258418,305539
1630411800396,35130,258467,305484
1630411800406,35153,258499,305444
1630411800416,35199,258494,305500
1630411800426,35233,258551,305479
1630411800436,35259,258647,305462
1630411800446,35290,258680,305474
1630411800456,35329,258681,305455
1630411800466,35366,258759,305444
1630411800476,35408,258813,305453
1630411800486,35449,258858,305439
1630411800496,35488,258908,305447
1630411800506,35534,258923,305483
1630411800516,35572,258987,305527
1630411800526,35612,259047,305526
1630411800536,35649,259110,305580
1630411800546,35695,259128,305570
1630411800556,35729,259154,305625
1630411800566,35775,259211,305604
1630411800576,35813,259248,305642
1630411800586,35839,259327,305645
1630411800596,35875,259322,305724
1630411800606,35928,259358,305739
1630411800616,35954,259442,305765
1630411800626,35989,259447,305779
1630411800636,36021,259495,305796
1630411800646,36052,259515,305820
1630411800656,36092,259568,305832
1630411800666,36133,259600,305881
1630411800676,36171,259647,305900
1630411800686,36202,259657,305930
1630411800696,36246,259760,305939
1630411800706,36287,259775,305966
1630411800716,36324,259795,306047
1630411800726,36352,259848,306054
1630411800736,36381,259849,306093
1630411800746,36383,259829,306058
1630411800756,36364,259734,306048
1630411800766,36304,259633,305967
1630411800776,36217,259487,305906
1630411800786,36127,259363,305909
1630411800796,36037,259287,305867
1630411800806,35954,259195,305852
1630411800816,35877,259110,305834
1630411800826,35813,259095,305813
1630411800836,35753,259018,305803
1630411800846,35683,259004,305840
1630411800856,35633,258924,305768
1630411800866,35564,258889,305767
1630411800876,35509,258846,305802
1630411800886,35445,258800,305779
1630411800896,35381,258739,305777
1630411800906,35329,258649,305718
1630411800916,35273,258653,305709
1630411800926,35217,258597,305625
1630411800936,35169,258533,305679
1630411800946,35121,258531,305662
1630411800956,35075,258470,305651
1630411800966,35042,258441,305669
1630411800976,35021,258461,305706
1630411800986,34996,258476,305738
1630411800996,34988,258480,305804
1630411801006,34989,258525,305847
1630411801016,34974,258508,305876
1630411801026,34966,258496,305868
1630411801036,34963,258518,305904
1630411801046,34951,258453,305876
1630411801056,34933,258517,305929
1630411801066,34940,258499,305875
1630411801076,34913,258469,305903
1630411801086,34923,258467,305892
1630411801096,34910,258474,305865
1630411801106,34914,258493,305897
1630411801116,34913,258452,305914
1630411801126,34926,258489,305899
1630411801136,34933,258508,305912
1630411801146,34941,258524,305946
1630411801156,34952,258543,305931
1630411801166,34976,258553,305939
1630411801176,34991,258571,305904
1630411801186,35015,258583,305955
1630411801196,35034,258607,305926
1630411801206,35064,258671,305935
1630411801216,35097,258682,305946
1630411801226,35121,258718,305971
1630411801236,35135,258717,305954
1630411801246,35167,258790,305964
1630411801256,35197,258768,305956
1630411801266,35234,258823,305921
1630411801276,35259,258873,305963
1630411801286,35296,258860,305964
1630411801296,35327,258929,305954
1630411801306,35364,258931,305969
1630411801316,35402,259000,305967
1630411801326,35438,259029,306003
1630411801336,35480,259051,306036
1630411801346,35507,259094,306036
1630411801356,35546,259110,306055
1630411801366,35575,259145,306071
1630411801376,35608,259167,306085
1630411801386,35645,259187,306075
1630411801396,35672,259283,306095
1630411801406,35719,259289,306134
1630411801416,35755,259318,306194
1630411801426,35785,259362,306214
1630411801436,35814,259409,306280
1630411801446,35850,259445,306275
1630411801456,35889,259486,306368
1630411801466,35928,259527,306374
1630411801476,35951,259544,306442
1630411801486,35993,259612,306451
1630411801496,36021,259608,306530
1630411801506,36050,259666,306571
1630411801516,36081,259700,306621
1630411801526,36101,259729,306611
1630411801536,36122,259687,306630
1630411801546,36123,259663,306628
1630411801556,36082,259589,306615
1630411801566,36022,259471,306598
1630411801576,35924,259315,306585
1630411801586,35831,259239,306527
1630411801596,35752,259146,306534
1630411801606,35669,259093,306515
1630411801616,35596,258980,306464
1630411801626,35538,258963,306455
1630411801636,35480,258909,306459
1630411801646,35415,258880,306447
1630411801656,35363,258800,306373
1630411801666,35301,258720,306372
1630411801676,35252,258687,306363
1630411801686,35191,258637,306331
1630411801696,35140,258583,306329
1630411801706,35097,258572,306299
1630411801716,35045,258503,306293
1630411801726,34991,258469,306287
1630411801736,34952,258407,306278
1630411801746,34907,258386,306253
1630411801756,34865,258351,306248
1630411801766,34835,258285,306241
1630411801776,34811,258286,306194
1630411801786,34810,258287,306233
1630411801796,34810,258305,306217
1630411801806,34808,258323,306209
1630411801816,34811,258332,306219
1630411801826,34813,258300,306225
1630411801836,34809,258302,306205
1630411801846,34794,258253,306194
1630411801856,34793,258314,306192
1630411801866,34790,258280,306203
1630411801876,34779,258318,306204
1630411801886,34804,258278,306198
1630411801896,34794,258310,306191
1630411801906,34803,258332,306184
1630411801916,34814,258326,306207
1630411801926,34823,258292,306210
1630411801936,34837,258375,306207
1630411801946,34858,258351,306201
1630411801956,34869,258370,306259
1630411801966,34889,258381,306207
1630411801976,34911,258435,306253
1630411801986,34933,258477,306212
1630411801996,34962,258463,306213
1630411802006,34978,258486,306264
1630411802016,35012,258547,306280
1630411802026,35031,258584,306298
1630411802036,35068,258638,306288
1630411802046,35099,258617,306287
1630411802056,35126,258665,306327
1630411802066,35157,258684,306314
1630411802076,35184,258676,306363
1630411802086,35220,258709,306337
1630411802096,35244,258764,306384
1630411802106,35271,258754,306388
1630411802116,35303,258829,306407
1630411802126,35332,258869,306409
1630411802136,35359,258918,306456
1630411802146,35390,258882,306465
1630411802156,35414,258980,306490
1630411802166,35453,258958,306500
1630411802176,35479,259022,306500
1630411802186,35514,259070,306512
1630411802196,35555,259092,306567
1630411802206,35584,259089,306586
1630411802216,35611,259159,306583
1630411802226,35638,259152,306548
1630411802236,35663,259168,306564
1630411802246,35698,259221,306609
1630411802256,35736,259257,306612
1630411802266,35762,259301,306611
1630411802276,35805,259312,306634
1630411802286,35842,259340,306631
1630411802296,35866,259407,306688
1630411802306,35879,259342,306647
1630411802316,35886,259307,306659
1630411802326,35846,259204,306592
1630411802336,35786,259107,306555
1630411802346,35714,259017,306461
1630411802356,35643,258894,306484
1630411802366,35592,258840,306405
1630411802376,35514,258796,306401
1630411802386,35474,258734,306361
1630411802396,35429,258744,306371
1630411802406,35387,258683,306328
1630411802416,35352,258648,306351
1630411802426,35311,258598,306309
1630411802436,35273,258557,306313
1630411802446,35245,258524,306284
1630411802456,35203,258515,306290
1630411802466,35154,258478,306254
1630411802476,35137,258419,306229
1630411802486,35104,258407,306245
1630411802496,35082,258374,306230
1630411802506,35049,258361,306198
1630411802516,35030,258347,306223
1630411802526,35022,258360,306186
1630411802536,35012,258334,306223
1630411802546,35008,258366,306208
1630411802556,35027,258392,306235
1630411802566,35023,258394,306244
1630411802576,35032,258407,306209
1630411802586,35028,258403,306221
1630411802596,35021,258398,306233
1630411802606,35029,258379,306222
1630411802616,35024,258392,306214
1630411802626,35019,258389,306200
1630411802636,35037,258426,306245
1630411802646,35029,258430,306234
1630411802656,35041,258389,306240
1630411802666,35048,258418,306267
1630411802676,35049,258430,306272
1630411802686,35077,258437,306320
1630411802696,35080,258480,306285
1630411802706,35095,258491,306273
1630411802716,35118,258537,306349
1630411802726,35129,258544,306316
1630411802736,35152,258560,306344
1630411802746,35170,258555,306342
1630411802756,35191,258622,306380
1630411802766,35230,258622,306389
1630411802776,35257,258701,306366
1630411802786,35275,258705,306407
1630411802796,35302,258700,306428
1630411802806,35328,258706,306430
1630411802816,35362,258778,306414
1630411802826,35388,258853,306472
1630411802836,35428,258841,306505
1630411802846,35456,258846,306450
1630411802856,35486,258892,306476
1630411802866,35511,258918,306516
1630411802876,35541,258957,306555
1630411802886,35571,258983,306535
1630411802896,35594,259007,306586
1630411802906,35623,259048,306607
1630411802916,35656,259059,306614
1630411802926,35691,259088,306588
1630411802936,35712,259117,306646
1630411802946,35744,259186,306661
1630411802956,35770,259189,306657
1630411802966,35810,259219,306640
1630411802976,35842,259267,306673
1630411802986,35875,259313,306737
1630411802996,35909,259314,306712
1630411803006,35940,259372,306727
1630411803016,35973,259381,306697
1630411803026,35986,259398,306715
1630411803036,35989,259338,306734
1630411803046,35964,259282,306635
1630411803056,35913,259160,306602
1630411803066,35844,259079,306541
1630411803076,35768,258939,306554
1630411803086,35700,258858,306498
1630411803096,35651,258825,306417
1630411803106,35589,258796,306419
1630411803116,35548,258740,306473
1630411803126,35502,258733,306411
1630411803136,35460,258702,306427
1630411803146,35411,258645,306362
1630411803156,35369,258616,306360
1630411803166,35329,258558,306355
1630411803176,35285,258454,306328
1630411803186,35246,258422,306328
1630411803196,35204,258440,306332
1630411803206,35157,258395,306320
1630411803216,35124,258395,306308
1630411803226,35087,258345,306337
1630411803236,35057,258318,306300
1630411803246,35026,258262,306253
1630411803256,35006,258292,306283
1630411803266,35006,258275,306312
1630411803276,34996,258327,306305
1630411803286,34992,258337,306335
1630411803296,35007,258338,306391
1630411803306,35003,258339,306401
1630411803316,34993,258345,306403
1630411803326,34984,258293,306409
1630411803336,34989,258349,306416
1630411803346,34992,258335,306406
1630411803356,34984,258338,306446
1630411803366,34993,258345,306419
1630411803376,34987,258344,306415
1630411803386,34988,258341,306425
1630411803396,34997,258342,306462
1630411803406,35013,258353,306447
1630411803416,35025,258351,306476
1630411803426,35042,258379,306473
1630411803436,35064,258421,306445
1630411803446,35088,258462,306432
1630411803456,35116,258420,306483
1630411803466,35143,258479,306493
1630411803476,35165,258497,306490
1630411803486,35193,258517,306531
1630411803496,35224,258555,306500
1630411803506,35249,258592,306541
1630411803516,35267,258646,306566
1630411803526,35311,258636,306565
1630411803536,35331,258702,306587
1630411803546,35363,258691,306584
1630411803556,35391,258731,306608
1630411803566,35419,258752,306648
1630411803576,35448,258801,306659
1630411803586,35475,258842,306669
1630411803596,35504,258855,306664
1630411803606,35525,258887,306674
1630411803616,35564,258905,306675
1630411803626,35580,258942,306716
1630411803636,35609,258973,306742
1630411803646,35637,258965,306749
1630411803656,35664,259031,306715
1630411803666,35708,259047,306753
1630411803676,35724,259069,306783
1630411803686,35755,259130,306833
1630411803696,35792,259172,306795
1630411803706,35817,259164,306768
1630411803716,35850,259243,306861
1630411803726,35894,259244,306853
1630411803736,35914,259282,306887
1630411803746,35948,259295,306880
1630411803756,35971,259302,306895
1630411803766,35996,259348,306907
1630411803776,36002,259330,306926
1630411803786,35984,259266,306819
1630411803796,35940,259123,306799
1630411803806,35870,259080,306729
1630411803816,35788,258935,306718
1630411803826,35723,258808,306659
1630411803836,35638,258788,306646
1630411803846,35581,258684,306643
1630411803856,35526,258640,306579
1630411803866,35470,258603,306581
1630411803876,35414,258562,306549
1630411803886,35361,258492,306554
1630411803896,35302,258451,306542
1630411803906,35255,258448,306510
1630411803916,35191,258396,306489
1630411803926,35135,258341,306488
1630411803936,35084,258247,306445
1630411803946,35033,258264,306440
1630411803956,34984,258190,306414
1630411803966,34939,258168,306420
1630411803976,34893,258169,306380
1630411803986,34860,258115,306352
1630411803996,34828,258058,306344
1630411804006,34796,258060,306384
1630411804016,34778,258077,306378
1630411804026,34787,258046,306366
1630411804036,34788,258080,306423
1630411804046,34788,258051,306392
1630411804056,34783,258086,306365
1630411804066,34779,258103,306398
1630411804076,34771,258081,306356
1630411804086,34776,258079,306403
1630411804096,34769,258059,306385
1630411804106,34769,258068,306380
1630411804116,34767,258029,306387
1630411804126,34767,258102,306386
1630411804136,34770,258074,306356
1630411804146,34786,258090,306411
1630411804156,34781,258097,306430
1630411804166,34796,258109,306423
1630411804176,34822,258142,306432
1630411804186,34836,258175,306416
1630411804196,34848,258190,306455
1630411804206,34874,258209,306464
1630411804216,34894,258268,306459
1630411804226,34916,258250,306506
1630411804236,34943,258289,306532
1630411804246,34964,258292,306497
1630411804256,34984,258353,306508
1630411804266,35021,258356,306551
1630411804276,35035,258405,306566
1630411804286,35059,258439,306609
1630411804296,35087,258434,306604
1630411804306,35125,258454,306599
1630411804316,35148,258512,306614
1630411804326,35169,258545,306643
1630411804336,35203,258578,306678
1630411804346,35234,258553,306702
1630411804356,35253,258592,306702
1630411804366,35279,258634,306706
1630411804376,35306,258657,306728
1630411804386,35331,258671,306731
1630411804396,35359,258735,306709
1630411804406,35390,258732,306743
1630411804416,35424,258775,306750
1630411804426,35459,258821,306788
1630411804436,35480,258865,306806
1630411804446,35510,258879,306803
1630411804456,35547,258926,306822
1630411804466,35580,258921,306845
1630411804476,35614,258970,306858
1630411804486,35646,258993,306861
1630411804496,35679,259024,306889
1630411804506,35708,259074,306924
1630411804516,35731,259093,306910
1630411804526,35746,259092,306950
1630411804536,35736,259020,306906
1630411804546,35694,258916,306847
1630411804556,35643,258818,306801
1630411804566,35574,258714,306763
1630411804576,35497,258626,306736
1630411804586,35435,258535,306739
1630411804596,35369,258509,306693
1630411804606,35305,258415,306696
1630411804616,35254,258452,306687
1630411804626,35184,258346,306664
1630411804636,35149,258340,306664
1630411804646,35097,258243,306640
1630411804656,35059,258187,306629
1630411804666,35004,258174,306640
1630411804676,34955,258167,306588
1630411804686,34907,258066,306588
1630411804696,34866,258074,306570
1630411804706,34817,258017,306537
1630411804716,34786,258016,306543
1630411804726,34746,257966,306518
1630411804736,34711,257886,306509
1630411804746,34685,257905,306486
1630411804756,34661,257897,306484
1630411804766,34655,257904,306487
1630411804776,34655,257938,306487
1630411804786,34656,257871,306502
1630411804796,34661,257893,306496
1630411804806,34649,257895,306509
1630411804816,34649,257937,306523
1630411804826,34633,257908,306519
1630411804836,34643,257892,306499
1630411804846,34651,257880,306539
1630411804856,34644,257885,306523
1630411804866,34645,257896,306564
1630411804876,34641,257920,306528
1630411804886,34643,257935,306538
1630411804896,34657,257912,306541
1630411804906,34659,257929,306527
1630411804916,34672,257964,306541
1630411804926,34685,257934,306608
1630411804936,34698,257971,306597
1630411804946,34725,257999,306598
1630411804956,34736,258042,306614
1630411804966,34761,258047,306625
1630411804976,34788,258070,306619
1630411804986,34801,258082,306649
1630411804996,34828,258142,306675
1630411805006,34854,258137,306722
1630411805016,34875,258190,306729
1630411805026,34905,258172,306735
1630411805036,34929,258231,306740
1630411805046,34956,258268,306715
1630411805056,34977,258302,306740
1630411805066,35010,258307,306765
1630411805076,35040,258328,306782
1630411805086,35063,258342,306796
1630411805096,35089,258366,306789
1630411805106,35101,258434,306848
1630411805116,35148,258453,306850
1630411805126,35173,258465,306826
1630411805136,35198,258493,306870
1630411805146,35208,258540,306859
1630411805156,35250,258562,306882
1630411805166,35277,258573,306925
1630411805176,35305,258609,306900
1630411805186,35331,258622,306925
1630411805196,35365,258680,306932
1630411805206,35393,258707,306948
1630411805216,35420,258725,306940
1630411805226,35455,258738,306979
1630411805236,35488,258808,306992
1630411805246,35521,258846,306979
1630411805256,35550,258837,307006
1630411805266,35578,258841,307016
1630411805276,35582,258814,307018
1630411805286,35554,258742,306942
1630411805296,35521,258663,306938
1630411805306,35455,258560,306851
1630411805316,35386,258500,306853
1630411805326,35321,258429,306839
1630411805336,35259,258305,306823
1630411805346,35206,258287,306781
1630411805356,35159,258253,306761
1630411805366,35109,258236,306777
1630411805376,35065,258175,306777
1630411805386,35027,258123,306757
1630411805396,34990,258107,306756
1630411805406,34953,258075,306712
1630411805416,34911,258056,306703
1630411805426,34875,258052,306676
1630411805436,34847,258009,306664
1630411805446,34815,257963,306669
1630411805456,34786,257947,306638
1630411805466,34761,257929,306652
1630411805476,34745,257921,306620
1630411805486,34716,257894,306659
1630411805496,34710,257880,306609
1630411805506,34717,257951,306633
1630411805516,34731,257929,306656
1630411805526,34741,257964,306654
1630411805536,34741,257961,306673
1630411805546,34735,257971,306644
1630411805556,34753,257965,306646
1630411805566,34737,257955,306641
1630411805576,34738,257932,306631
1630411805586,34740,257945,306696
1630411805596,34743,257937,306632
1630411805606,34747,257983,306646
1630411805616,34758,257933,306638
1630411805626,34764,257951,306686
1630411805636,34784,257965,306672
1630411805646,34795,257972,306676
1630411805656,34807,257996,306662
1630411805666,34822,258044,306689
1630411805676,34843,258075,306711
1630411805686,34862,258101,306714
1630411805696,34892,258081,306744
1630411805706,34908,258153,306734
1630411805716,34944,258135,306769
1630411805726,34965,258183,306783
1630411805736,34992,258213,306771
1630411805746,35020,258268,306797
1630411805756,35043,258254,306783
1630411805766,35081,258315,306844
1630411805776,35096,258354,306855
1630411805786,35130,258398,306827
1630411805796,35167,258462,306868
1630411805806,35198,258426,306896
1630411805816,35222,258467,306908
1630411805826,35257,258536,306956
1630411805836,35283,258542,306975
1630411805846,35319,258592,306975
1630411805856,35341,258589,306989
1630411805866,35377,258600,307004
1630411805876,35408,258668,306995
1630411805886,35434,258678,307017
1630411805896,35459,258683,307050
1630411805906,35487,258760,307044
1630411805916,35517,258807,307112
1630411805926,35545,258785,307081
1630411805936,35585,258842,307084
1630411805946,35615,258873,307105
1630411805956,35645,258895,307131
1630411805966,35684,258930,307140
1630411805976,35714,259003,307146
1630411805986,35746,259018,307176
1630411805996,35766,259059,307222
1630411806006,35797,259018,307229
1630411806016,35802,259013,307190
1630411806026,35771,258945,307153
1630411806036,35738,258850,307140
1630411806046,35659,258733,307058
1630411806056,35591,258642,307021
1630411806066,35530,258554,307015
1630411806076,35452,258526,306989
1630411806086,35400,258488,306954
1630411806096,35343,258393,306925
1630411806106,35286,258388,306913
1630411806116,35246,258312,306858
1630411806126,35184,258266,306863
1630411806136,35142,258213,306823
1630411806146,35086,258152,306833
1630411806156,35039,258089,306767
1630411806166,34990,258078,306813
1630411806176,34943,258004,306773
1630411806186,34902,258032,306760
1630411806196,34864,257937,306710
1630411806206,34825,257948,306719
1630411806216,34782,257878,306699
1630411806226,34744,257876,306693
1630411806236,34723,257872,306695
1630411806246,34725,257825,306676
1630411806256,34690,257805,306677
1630411806266,34699,257869,306710
1630411806276,34715,257879,306700
1630411806286,34717,257851,306714
1630411806296,34716,257890,306682
1630411806306,34726,257887,306669
1630411806316,34719,257899,306680
1630411806326,34715,257868,306650
1630411806336,34724,257855,306645
1630411806346,34729,257904,306646
1630411806356,34731,257911,306663
1630411806366,34751,257886,306681
1630411806376,34750,257918,306692
1630411806386,34766,257958,306697
1630411806396,34775,257964,306648
1630411806406,34795,257963,306722
1630411806416,34800,257991,306739
1630411806426,34835,258026,306725
1630411806436,34850,258037,306735
1630411806446,34881,258059,306754
1630411806456,34894,258079,306751
1630411806466,34926,258091,306809
1630411806476,34945,258143,306818
1630411806486,34974,258152,306825
1630411806496,34999,258196,306824
1630411806506,35026,258230,306865
1630411806516,35058,258266,306910
1630411806526,35094,258270,306911
1630411806536,35119,258308,306920
1630411806546,35149,258341,306930
1630411806556,35174,258380,306949
1630411806566,35205,258432,306955
1630411806576,35243,258462,306970
1630411806586,35259,258485,306981
1630411806596,35307,258494,306987
1630411806606,35320,258556,307016
1630411806616,35347,258573,307022
1630411806626,35385,258576,307064
1630411806636,35415,258598,307079
1630411806646,35439,258661,307095
1630411806656,35478,258652,307059
1630411806666,35509,258717,307126
1630411806676,35535,258722,307125
1630411806686,35564,258754,307101
1630411806696,35599,258821,307212
1630411806706,35629,258808,307151
1630411806716,35662,258846,307152
1630411806726,35696,258869,307198
1630411806736,35741,258940,307226
1630411806746,35760,259013,307200
1630411806756,35791,259020,307284
1630411806766,35836,259007,307234
1630411806776,35851,259042,307252
1630411806786,35854,258995,307223
1630411806796,35833,258938,307190
1630411806806,35790,258827,307146
1630411806816,35724,258727,307135
1630411806826,35656,258623,307073
1630411806836,35584,258555,307020
1630411806846,35520,258513,307060
1630411806856,35456,258442,307014
1630411806866,35393,258370,306960
1630411806876,35347,258331,306979
1630411806886,35290,258287,306936
1630411806896,35242,258266,306895
1630411806906,35192,258197,306898
1630411806916,35145,258176,306914
1630411806926,35099,258104,306860
1630411806936,35042,258099,306868
1630411806946,34988,258039,306857
1630411806956,34941,258037,306835
1630411806966,34903,257986,306834
1630411806976,34866,257937,306791
1630411806986,34826,257899,306828
1630411806996,34792,257882,306779
1630411807006,34767,257869,306764
1630411807016,34742,257887,306770
1630411807026,34746,257870,306792
1630411807036,34743,257920,306787
1630411807046,34745,257871,306790
1630411807056,34747,257929,306806
1630411807066,34754,257914,306800
1630411807076,34737,257877,306766
1630411807086,34744,257874,306769
1630411807096,34745,257874,306791
1630411807106,34741,257847,306799
1630411807116,34736,257911,306802
1630411807126,34746,257899,306798
1630411807136,34748,257929,306822
1630411807146,34760,257921,306801
1630411807156,34776,257908,306810
1630411807166,34785,257933,306776
1630411807176,34793,258002,306803
1630411807186,34816,258010,306836
1630411807196,34828,258033,306843
1630411807206,34854,258089,306845
1630411807216,34872,258084,306874
1630411807226,34905,258085,306886
1630411807236,34936,258124,306951
1630411807246,34961,258155,306898
1630411807256,34987,258176,306950
1630411807266,35007,258240,306922
1630411807276,35026,258203,306972
1630411807286,35070,258313,306975
1630411807296,35095,258287,306953
1630411807306,35134,258358,306988
1630411807316,35154,258342,306996
1630411807326,35186,258428,306993
1630411807336,35218,258464,307008
1630411807346,35252,258448,307051
1630411807356,35278,258467,307053
1630411807366,35302,258509,307067
1630411807376,35339,258586,307063
1630411807386,35361,258597,307098
1630411807396,35402,258588,307092
1630411807406,35441,258651,307106
1630411807416,35464,258671,307168
1630411807426,35482,258698,307167
1630411807436,35519,258748,307194
1630411807446,35548,258768,307179
1630411807456,35579,258775,307239
1630411807466,35613,258830,307205
1630411807476,35636,258865,307240
1630411807486,35675,258890,307233
1630411807496,35698,258912,307250
1630411807506,35734,258981,307284
1630411807516,35772,259028,307280
1630411807526,35803,259036,307336
1630411807536,35831,259036,307349
1630411807546,35879,259095,307355
1630411807556,35911,259135,307363
1630411807566,35937,259158,307351
1630411807576,35972,259165,307424
1630411807586,35996,259183,307400
1630411807596,35981,259099,307356
1630411807606,35950,259075,307284
1630411807616,35900,258937,307281
1630411807626,35837,258880,307202
1630411807636,35759,258781,307190
1630411807646,35684,258695,307156
1630411807656,35614,258630,307178
1630411807666,35564,258552,307132
1630411807676,35498,258507,307112
1630411807686,35438,258429,307071
1630411807696,35391,258399,307055
1630411807706,35343,258379,307016
1630411807716,35286,258344,307005
1630411807726,35245,258290,307009
1630411807736,35199,258248,306986
1630411807746,35160,258190,307000
1630411807756,35116,258156,306990
1630411807766,35070,258127,306920
1630411807776,35039,258126,306939
1630411807786,35002,258070,306908
1630411807796,34974,258055,306880
1630411807806,34939,258030,306889
1630411807816,34925,258073,306890
1630411807826,34909,258009,306866
1630411807836,34909,258046,306866
1630411807846,34918,258039,306869
1630411807856,34918,258030,306897
1630411807866,34910,258024,306895
1630411807876,34925,258088,306848
1630411807886,34927,258064,306894
1630411807896,34913,258036,306884
1630411807906,34914,258060,306888
1630411807916,34908,258082,306897
1630411807926,34912,258037,306886
1630411807936,34916,258064,306838
1630411807946,34915,258053,306878
1630411807956,34932,258098,306895
1630411807966,34940,258062,306884
1630411807976,34950,258122,306903
1630411807986,34959,258130,306891
1630411807996,34981,258170,306892
1630411808006,34994,258181,306932
1630411808016,35012,258197,306935
1630411808026,35032,258243,306947
1630411808036,35064,258235,306992
1630411808046,35079,258255,306958
1630411808056,35098,258309,307008
1630411808066,35138,258321,307025
1630411808076,35166,258374,307003
1630411808086,35192,258374,307017
1630411808096,35219,258422,307043
1630411808106,35248,258450,307047
1630411808116,35272,258496,307035
1630411808126,35294,258514,307059
1630411808136,35332,258489,307091
1630411808146,35364,258546,307086
1630411808156,35392,258577,307076
1630411808166,35418,258634,307115
1630411808176,35448,258663,307145
1630411808186,35481,258659,307168
1630411808196,35522,258706,307186
1630411808206,35537,258773,307194
1630411808216,35565,258714,307225
1630411808226,35589,258815,307208
1630411808236,35626,258835,307195
1630411808246,35658,258857,307232
1630411808256,35680,258909,307259
1630411808266,35709,258899,307247
1630411808276,35736,258911,307263
1630411808286,35765,258964,307308
1630411808296,35809,259000,307282
1630411808306,35829,258993,307303
1630411808316,35864,259016,307331
1630411808326,35889,259090,307350
1630411808336,35924,259113,307367
1630411808346,35960,259145,307401
1630411808356,35981,259223,307396
1630411808366,36028,259259,307415
1630411808376,36044,259234,307420
1630411808386,36055,259213,307394
1630411808396,36031,259167,307342
1630411808406,35986,259045,307319
1630411808416,35926,258922,307257
1630411808426,35858,258816,307197
1630411808436,35791,258755,307182
1630411808446,35721,258701,307145
1630411808456,35663,258606,307136
1630411808466,35617,258607,307097
1630411808476,35565,258526,307144
1630411808486,35530,258490,307099
1630411808496,35486,258450,307069
1630411808506,35448,258430,307055
1630411808516,35409,258406,307058
1630411808526,35367,258342,307036
1630411808536,35323,258333,307046
1630411808546,35302,258301,306996
1630411808556,35263,258308,307020
1630411808566,35226,258274,306995
1630411808576,35198,258257,306953
1630411808586,35177,258229,306955
1630411808596,35151,258182,306977
1630411808606,35145,258189,306971
1630411808616,35148,258209,306986
1630411808626,35155,258259,306977
1630411808636,35161,258259,306964
1630411808646,35166,258248,306963
1630411808656,35163,258244,306977
1630411808666,35165,258274,306945
1630411808676,35152,258269,306934
1630411808686,35160,258262,306944
1630411808696,35155,258297,306963
1630411808706,35161,258255,306943
1630411808716,35157,258274,306986
1630411808726,35171,258286,306964
1630411808736,35176,258273,307003
1630411808746,35185,258314,306956
1630411808756,35196,258306,306968
1630411808766,35209,258352,306986
1630411808776,35219,258362,307022
1630411808786,35240,258407,307001
1630411808796,35264,258439,307022
1630411808806,35285,258408,307015
1630411808816,35311,258467,307057
1630411808826,35328,258509,307034
1630411808836,35360,258502,307061
1630411808846,35382,258538,307064
1630411808856,35410,258587,307077
1630411808866,35436,258589,307118
1630411808876,35479,258633,307109
1630411808886,35496,258692,307143
1630411808896,35519,258754,307132
1630411808906,35556,258784,307123
1630411808916,35580,258751,307170
1630411808926,35610,258807,307193
1630411808936,35645,258817,307203
1630411808946,35676,258831,307205
1630411808956,35714,258882,307282
1630411808966,35739,258932,307205
1630411808976,35768,258901,307259
1630411808986,35803,258946,307274
1630411808996,35830,259017,307266
1630411809006,35860,259033,307284
1630411809016,35893,259045,307276
1630411809026,35920,259107,307332
1630411809036,35959,259121,307346
1630411809046,35987,259135,307328
1630411809056,36020,259195,307346
1630411809066,36052,259227,307346
1630411809076,36087,259244,307339
1630411809086,36125,259300,307389
1630411809096,36149,259306,307380
1630411809106,36195,259341,307395
1630411809116,36227,259431,307419
1630411809126,36260,259428,307417
1630411809136,36292,259488,307451
1630411809146,36332,259489,307471
1630411809156,36367,259550,307505
1630411809166,36394,259554,307489
1630411809176,36414,259565,307487
1630411809186,36396,259471,307501
1630411809196,36379,259404,307430
1630411809206,36301,259260,307407
1630411809216,36225,259125,307317
1630411809226,36150,259083,307282
1630411809236,36078,258988,307225
1630411809246,36005,258910,307215
1630411809256,35951,258876,307198
1630411809266,35902,258799,307171
1630411809276,35828,258698,307155
1630411809286,35778,258705,307150
1630411809296,35730,258659,307106
1630411809306,35675,258629,307069
1630411809316,35625,258608,307095
1630411809326,35562,258517,307068
1630411809336,35524,258517,307042
1630411809346,35484,258473,307032
1630411809356,35439,258442,307009
1630411809366,35396,258386,307029
1630411809376,35356,258372,306971
1630411809386,35321,258347,306954
1630411809396,35283,258300,306995
1630411809406,35256,258289,306946
1630411809416,35245,258326,306934
1630411809426,35235,258316,306923
1630411809436,35231,258306,306968
1630411809446,35233,258336,306924
1630411809456,35234,258319,306942
1630411809466,35233,258345,306954
1630411809476,35228,258347,306954
1630411809486,35217,258330,306897
1630411809496,35220,258323,306928
1630411809506,35215,258325,306907
1630411809516,35222,258315,306916
1630411809526,35225,258336,306950
1630411809536,35222,258323,306961
1630411809546,35229,258362,306919
1630411809556,35240,258321,306921
1630411809566,35247,258387,306937
1630411809576,35269,258415,306954
1630411809586,35270,258401,306967
1630411809596,35298,258439,306981
1630411809606,35317,258503,306969
1630411809616,35334,258522,306980
1630411809626,35360,258502,307002
1630411809636,35385,258567,307042
1630411809646,35406,258546,307029
1630411809656,35425,258584,307048
1630411809666,35473,258589,307081
1630411809676,35499,258661,307046
1630411809686,35524,258686,307094
1630411809696,35547,258724,307079
1630411809706,35580,258790,307128
1630411809716,35601,258812,307120
1630411809726,35633,258800,307145
1630411809736,35664,258846,307156
1630411809746,35694,258872,307195
1630411809756,35722,258910,307177
1630411809766,35758,258968,307206
1630411809776,35786,258965,307218
1630411809786,35812,258990,307232
1630411809796,35837,259047,307213
1630411809806,35877,259079,307242
1630411809816,35895,259096,307261
1630411809826,35939,259126,307305
1630411809836,35965,259116,307322
1630411809846,35990,259162,307272
1630411809856,36018,259226,307303
1630411809866,36048,259247,307330
1630411809876,36074,259241,307350
1630411809886,36104,259289,307386
1630411809896,36144,259346,307383
1630411809906,36183,259345,307400
1630411809916,36210,259385,307407
1630411809926,36244,259441,307457
1630411809936,36284,259528,307417
1630411809946,36318,259516,307420
1630411809956,36347,259557,307431
1630411809966,36372,259567,307475
1630411809976,36393,259505,307439
1630411809986,36362,259447,307423
1630411809996,36312,259320,307384
1630411810006,36243,259211,307320
1630411810016,36174,259140,307262
1630411810026,36085,259050,307211
1630411810036,36017,258930,307214
1630411810046,35955,258884,307194
1630411810056,35897,258814,307136
1630411810066,35843,258805,307120
1630411810076,35782,258766,307126
1630411810086,35732,258740,307114
1630411810096,35690,258708,307097
1630411810106,35636,258623,307041
1630411810116,35589,258568,307056
1630411810126,35537,258516,307018
1630411810136,35506,258524,307008
1630411810146,35450,258484,306971
1630411810156,35404,258475,306985
1630411810166,35375,258427,306986
1630411810176,35350,258395,306934
1630411810186,35304,258391,306915
1630411810196,35282,258380,306914
1630411810206,35263,258379,306933
1630411810216,35254,258382,306958
1630411810226,35256,258437,306950
1630411810236,35256,258391,306936
1630411810246,35261,258460,306953
1630411810256,35247,258386,306942
1630411810266,35250,258415,306938
1630411810276,35247,258416,306878
1630411810286,35241,258392,306936
1630411810296,35232,258388,306939
1630411810306,35229,258403,306956
1630411810316,35232,258367,306924
1630411810326,35238,258408,306950
1630411810336,35239,258402,306926
1630411810346,35249,258403,306936
1630411810356,35259,258453,306937
1630411810366,35265,258446,306945
1630411810376,35283,258494,306967
1630411810386,35298,258518,306956
1630411810396,35317,258479,306992
1630411810406,35337,258533,307021
1630411810416,35352,258573,307011
1630411810426,35375,258592,307040
1630411810436,35394,258600,307015
1630411810446,35420,258659,307084
1630411810456,35448,258672,307019
1630411810466,35479,258671,307041
1630411810476,35509,258767,307068
1630411810486,35525,258741,307063
1630411810496,35555,258766,307095
1630411810506,35592,258841,307110
1630411810516,35618,258868,307142
1630411810526,35637,258860,307140
1630411810536,35673,258930,307188
1630411810546,35698,258964,307172
1630411810556,35731,258956,307163
1630411810566,35755,258986,307179
1630411810576,35785,259080,307215
1630411810586,35821,259077,307228
1630411810596,35842,259112,307228
1630411810606,35880,259149,307255
1630411810616,35894,259199,307271
1630411810626,35935,259192,307261
1630411810636,35959,259233,307285
1630411810646,35992,259251,307254
1630411810656,36018,259265,307323
1630411810666,36053,259328,307378
1630411810676,36081,259401,307369
1630411810686,36109,259369,307348
1630411810696,36140,259403,307396
1630411810706,36175,259450,307396
1630411810716,36207,259494,307391
1630411810726,36248,259503,307437
1630411810736,36278,259524,307460
1630411810746,36304,259592,307482
1630411810756,36318,259548,307438
1630411810766,36300,259474,307417
1630411810776,36266,259419,307361
1630411810786,36203,259292,307301
1630411810796,36126,259160,307288
1630411810806,36044,259053,307219
1630411810816,35960,258953,307236
1630411810826,35896,258895,307184
1630411810836,35824,258859,307127
1630411810846,35779,258823,307141
1630411810856,35730,258761,307129
1630411810866,35684,258740,307093
1630411810876,35638,258727,307064
1630411810886,35600,258683,307066
1630411810896,35557,258636,307062
1630411810906,35507,258642,306998
1630411810916,35468,258560,306998
1630411810926,35429,258511,306991
1630411810936,35402,258512,306946
1630411810946,35377,258514,306970
1630411810956,35335,258490,306934
1630411810966,35311,258482,306916
1630411810976,35293,258456,306932
1630411810986,35279,258467,306902
1630411810996,35283,258464,306901
1630411811006,35287,258486,306954
1630411811016,35291,258485,306906
1630411811026,35290,258467,306933
1630411811036,35282,258460,306955
1630411811046,35274,258473,306940
1630411811056,35266,258473,306940
1630411811066,35268,258486,306913
1630411811076,35264,258449,306962
1630411811086,35257,258466,306936
1630411811096,35261,258456,306963
1630411811106,35265,258467,306900
1630411811116,35257,258464,306932
1630411811126,35282,258474,306936
1630411811136,35277,258504,306957
1630411811146,35293,258495,306971
1630411811156,35308,258554,306935
1630411811166,35324,258549,306914
1630411811176,35342,258549,306944
1630411811186,35359,258561,306965
1630411811196,35378,258638,306984
1630411811206,35402,258663,306965
1630411811216,35436,258673,306987
1630411811226,35452,258697,307011
1630411811236,35479,258688,307005
1630411811246,35500,258710,307016
1630411811256,35521,258762,307033
1630411811266,35548,258780,307059
1630411811276,35575,258809,307092
1630411811286,35598,258839,307060
1630411811296,35621,258844,307062
1630411811306,35658,258872,307111
1630411811316,35666,258903,307109
1630411811326,35707,258953,307124
1630411811336,35739,258988,307136
1630411811346,35762,258983,307173
1630411811356,35792,259048,307169
1630411811366,35814,259049,307155
1630411811376,35844,259081,307170
1630411811386,35870,259114,307188
1630411811396,35900,259174,307206
1630411811406,35931,259186,307225
1630411811416,35960,259230,307252
1630411811426,35989,259244,307257
1630411811436,36021,259304,307279
1630411811446,36052,259294,307286
1630411811456,36093,259350,307276
1630411811466,36112,259382,307299
1630411811476,36132,259390,307298
1630411811486,36145,259349,307281
1630411811496,36129,259264,307246
1630411811506,36079,259181,307223
1630411811516,36013,259053,307148
1630411811526,35938,258952,307077
1630411811536,35850,258851,307043
1630411811546,35782,258782,307050
1630411811556,35705,258742,307019
1630411811566,35650,258641,306957
1630411811576,35598,258629,306976
1630411811586,35550,258589,306981
1630411811596,35506,258532,306935
1630411811606,35475,258541,306902
1630411811616,35413,258504,306886
1630411811626,35386,258423,306892
1630411811636,35352,258412,306870
1630411811646,35295,258322,306831
1630411811656,35259,258322,306831
1630411811666,35227,258271,306775
1630411811676,35200,258262,306789
1630411811686,35166,258238,306791
1630411811696,35150,258222,306785
1630411811706,35131,258258,306796
1630411811716,35120,258249,306781
1630411811726,35121,258301,306810
1630411811736,35122,258266,306788
1630411811746,35123,258322,306787
1630411811756,35125,258260,306777
1630411811766,35122,258230,306807
1630411811776,35119,258258,306764
1630411811786,35109,258254,306780
1630411811796,35112,258259,306742
1630411811806,35113,258241,306784
1630411811816,35105,258270,306779
1630411811826,35106,258276,306787
1630411811836,35113,258271,306762
1630411811846,35120,258296,306767
1630411811856,35133,258275,306759
1630411811866,35140,258306,306803
1630411811876,35153,258324,306811
1630411811886,35176,258321,306778
1630411811896,35183,258351,306810
1630411811906,35205,258379,306822
1630411811916,35229,258425,306831
1630411811926,35246,258454,306824
1630411811936,35270,258448,306858
1630411811946,35309,258482,306871
1630411811956,35323,258518,306867
1630411811966,35355,258533,306868
1630411811976,35377,258526,306892
1630411811986,35397,258570,306935
1630411811996,35428,258635,306893
1630411812006,35454,258625,306921
1630411812016,35482,258632,306986
1630411812026,35509,258725,306933
1630411812036,35534,258742,306956
1630411812046,35563,258778,306978
1630411812056,35589,258818,307008
1630411812066,35608,258809,307028
1630411812076,35639,258854,307038
1630411812086,35665,258866,307042
1630411812096,35686,258868,307069
1630411812106,35715,258901,307099
1630411812116,35747,258968,307082
1630411812126,35772,258955,307094
1630411812136,35793,259015,307110
1630411812146,35824,259034,307131
1630411812156,35854,259037,307133
1630411812166,35882,259065,307153
1630411812176,35913,259096,307169
1630411812186,35956,259138,307179
1630411812196,35985,259174,307215
1630411812206,36007,259233,307215
1630411812216,36026,259238,307222
1630411812226,36036,259192,307210
1630411812236,36009,259113,307125
1630411812246,35961,259030,307116
1630411812256,35881,258909,307067
1630411812266,35792,258797,306954
1630411812276,35716,258698,306952
1630411812286,35635,258596,306899
1630411812296,35551,258526,306886
1630411812306,35494,258492,306866
1630411812316,35437,258377,306852
1630411812326,35375,258346,306819
1630411812336,35325,258325,306795
1630411812346,35266,258242,306789
1630411812356,35218,258199,306745
1630411812366,35162,258136,306727
1630411812376,35098,258049,306707
1630411812386,35055,258064,306685
1630411812396,35000,258002,306664
1630411812406,34960,257977,306625
1630411812416,34923,257945,306652
1630411812426,34874,257871,306606
1630411812436,34834,257856,306555
1630411812446,34797,257854,306586
1630411812456,34784,257840,306571
1630411812466,34776,257812,306580
1630411812476,34771,257832,306578
1630411812486,34778,257850,306609
1630411812496,34783,257830,306592
1630411812506,34780,257866,306596
1630411812516,34780,257828,306562
1630411812526,34774,257801,306573
1630411812536,34766,257837,306557
1630411812546,34758,257818,306533
1630411812556,34764,257823,306540
1630411812566,34764,257819,306589
1630411812576,34768,257836,306569
1630411812586,34763,257832,306541
1630411812596,34779,257832,306555
1630411812606,34791,257858,306589
1630411812616,34809,257891,306593
1630411812626,34817,257859,306542
1630411812636,34834,257901,306628
1630411812646,34854,257948,306612
1630411812656,34871,257951,306639
1630411812666,34891,257982,306624
1630411812676,34917,258001,306631
1630411812686,34936,258030,306634
1630411812696,34963,258055,306708
1630411812706,34991,258086,306702
1630411812716,35018,258110,306700
1630411812726,35040,258137,306737
1630411812736,35069,258184,306735
1630411812746,35089,258207,306766
1630411812756,35124,258234,306751
1630411812766,35145,258206,306780
1630411812776,35179,258307,306798
1630411812786,35212,258321,306783
1630411812796,35233,258291,306810
1630411812806,35264,258368,306838
1630411812816,35298,258409,306825
1630411812826,35323,258393,306875
1630411812836,35344,258419,306867
1630411812846,35370,258477,306850
1630411812856,35404,258520,306896
1630411812866,35426,258557,306929
1630411812876,35459,258589,306947
1630411812886,35485,258609,306930
1630411812896,35516,258655,306965
1630411812906,35548,258685,306993
1630411812916,35587,258689,307001
1630411812926,35612,258726,306997
1630411812936,35647,258760,307037
1630411812946,35677,258789,307002
1630411812956,35702,258810,307034
1630411812966,35718,258819,307051
1630411812976,35725,258758,307021
1630411812986,35691,258700,306966
1630411812996,35632,258574,306919
1630411813006,35559,258474,306867
1630411813016,35484,258385,306854
1630411813026,35400,258290,306813
1630411813036,35328,258167,306756
1630411813046,35268,258144,306722
1630411813056,35205,258100,306741
1630411813066,35155,258060,306731
1630411813076,35101,257990,306725
1630411813086,35055,257978,306692
1630411813096,35002,257902,306654
1630411813106,34948,257886,306634
1630411813116,34897,257780,306620
1630411813126,34849,257753,306595
1630411813136,34803,257724,306587
1630411813146,34756,257696,306592
1630411813156,34720,257657,306561
1630411813166,34686,257566,306546
1630411813176,34638,257603,306505
1630411813186,34614,257548,306514
1630411813196,34596,257537,306504
1630411813206,34591,257545,306528
1630411813216,34589,257557,306475
1630411813226,34609,257557,306535
1630411813236,34612,257579,306549
1630411813246,34590,257598,306538
1630411813256,34599,257552,306563
1630411813266,34606,257593,306542
1630411813276,34601,257540,306540
1630411813286,34602,257578,306530
1630411813296,34581,257577,306528
1630411813306,34593,257577,306524
1630411813316,34601,257581,306526
1630411813326,34601,257569,306543
1630411813336,34618,257614,306550
1630411813346,34630,257598,306579
1630411813356,34639,257622,306582
1630411813366,34655,257643,306578
1630411813376,34669,257660,306606
1630411813386,34694,257677,306613
1630411813396,34715,257719,306624
1630411813406,34740,257711,306622
1630411813416,34759,257734,306621
1630411813426,34792,257782,306642
1630411813436,34810,257812,306678
1630411813446,34839,257810,306667
1630411813456,34858,257884,306714
1630411813466,34885,257889,306765
1630411813476,34916,257871,306704
1630411813486,34938,257949,306750
1630411813496,34965,258012,306800
1630411813506,35001,258000,306785
1630411813516,35027,258065,306811
1630411813526,35051,258072,306818
1630411813536,35086,258079,306843
1630411813546,35123,258110,306874
1630411813556,35139,258152,306837
1630411813566,35157,258205,306861
1630411813576,35181,258236,306892
1630411813586,35219,258245,306903
1630411813596,35249,258301,306922
1630411813606,35274,258335,306942
1630411813616,35306,258354,306944
1630411813626,35339,258416,306980
1630411813636,35360,258435,306993
1630411813646,35397,258428,306973
1630411813656,35433,258516,306967
1630411813666,35460,258525,307037
1630411813676,35497,258558,307039
1630411813686,35528,258549,307083
1630411813696,35553,258617,307087
1630411813706,35590,258627,307097
1630411813716,35595,258612,307094
1630411813726,35596,258557,307025
1630411813736,35559,258499,307005
1630411813746,35494,258390,306984
1630411813756,35422,258241,306912
1630411813766,35345,258178,306903
1630411813776,35270,258144,306846
1630411813786,35209,258059,306889
1630411813796,35148,257986,306850
1630411813806,35102,257914,306816
1630411813816,35050,257904,306784
1630411813826,35007,257862,306768
1630411813836,34971,257844,306783
1630411813846,34922,257791,306766
1630411813856,34880,257744,306752
1630411813866,34838,257728,306708
1630411813876,34796,257665,306712
1630411813886,34751,257649,306695
1630411813896,34739,257625,306681
1630411813906,34699,257572,306641
1630411813916,34659,257519,306629
1630411813926,34638,257585,306623
1630411813936,34618,257546,306625
1630411813946,34612,257526,306636
1630411813956,34619,257562,306654
1630411813966,34626,257584,306672
1630411813976,34632,257600,306648
1630411813986,34638,257575,306668
1630411813996,34639,257555,306662
1630411814006,34632,257576,306659
1630411814016,34628,257564,306623
1630411814026,34626,257583,306674
1630411814036,34624,257611,306645
1630411814046,34621,257565,306662
1630411814056,34631,257553,306691
1630411814066,34647,257561,306697
1630411814076,34658,257568,306681
1630411814086,34657,257621,306687
1630411814096,34673,257608,306688
1630411814106,34685,257634,306690
1630411814116,34711,257679,306742
1630411814126,34726,257662,306750
1630411814136,34749,257728,306763
1630411814146,34773,257740,306729
1630411814156,34793,257790,306772
1630411814166,34821,257791,306764
1630411814176,34838,257816,306804
1630411814186,34867,257831,306763
1630411814196,34898,257921,306792
1630411814206,34907,257920,306794
1630411814216,34937,257922,306856
1630411814226,34979,257986,306839
1630411814236,35009,257973,306837
1630411814246,35043,257988,306886
1630411814256,35070,258018,306868
1630411814266,35105,258099,306897
1630411814276,35127,258089,306901
1630411814286,35154,258096,306925
1630411814296,35185,258149,306969
1630411814306,35216,258173,306916
1630411814316,35239,258201,306983
1630411814326,35259,258248,306975
1630411814336,35289,258270,306968
1630411814346,35321,258299,307004
1630411814356,35350,258310,307007
1630411814366,35376,258378,307025
1630411814376,35417,258410,306998
1630411814386,35453,258432,307078
1630411814396,35472,258508,307129
1630411814406,35511,258490,307079
1630411814416,35543,258535,307124
1630411814426,35567,258570,307125
1630411814436,35595,258588,307127
1630411814446,35592,258543,307108
1630411814456,35572,258472,307068
1630411814466,35528,258359,307035
1630411814476,35461,258262,306972
1630411814486,35380,258157,306958
1630411814496,35307,258034,306894
1630411814506,35246,258029,306898
1630411814516,35197,257999,306876
1630411814526,35141,257991,306903
1630411814536,35096,257923,306841
1630411814546,35063,257890,306824
1630411814556,35024,257851,306792
1630411814566,34984,257829,306788
1630411814576,34935,257799,306782
1630411814586,34900,257760,306773
1630411814596,34862,257744,306795
1630411814606,34822,257696,306722
1630411814616,34790,257689,306755
1630411814626,34754,257603,306736
1630411814636,34727,257586,306716
1630411814646,34692,257587,306688
1630411814656,34675,257579,306717
1630411814666,34665,257576,306717
1630411814676,34669,257568,306725
1630411814686,34661,257610,306718
1630411814696,34679,257618,306738
1630411814706,34680,257641,306718
1630411814716,34690,257619,306718
1630411814726,34683,257599,306714
1630411814736,34686,257607,306714
1630411814746,34689,257619,306722
1630411814756,34683,257618,306711
1630411814766,34695,257630,306700
1630411814776,34700,257660,306733
1630411814786,34712,257688,306773
1630411814796,34721,257708,306723
1630411814806,34735,257637,306761
1630411814816,34748,257708,306758
1630411814826,34764,257691,306775
1630411814836,34783,257687,306813
1630411814846,34815,257751,306817
1630411814856,34828,257819,306835
1630411814866,34854,257795,306840
1630411814876,34880,257838,306859
1630411814886,34910,257879,306889
1630411814896,34920,257899,306885
1630411814906,34966,257944,306880
1630411814916,34990,257945,306900
1630411814926,35013,257989,306903
1630411814936,35044,258033,306958
1630411814946,35082,258067,306939
1630411814956,35102,258086,306951
1630411814966,35139,258132,306979
1630411814976,35163,258114,306949
1630411814986,35193,258175,306990
1630411814996,35227,258218,307006
1630411815006,35257,258239,307060
1630411815016,35286,258260,307067
1630411815026,35319,258300,307034
1630411815036,35346,258343,307078
1630411815046,35384,258365,307072
1630411815056,35400,258407,307109
1630411815066,35434,258440,307123
1630411815076,35457,258456,307113
1630411815086,35496,258478,307151
1630411815096,35518,258550,307145
1630411815106,35552,258522,307183
1630411815116,35586,258582,307223
1630411815126,35613,258606,307203
1630411815136,35646,258656,307265
1630411815146,35680,258700,307247
1630411815156,35716,258744,307279
1630411815166,35752,258801,307329
1630411815176,35783,258763,307290
1630411815186,35792,258812,307297
1630411815196,35803,258784,307265
1630411815206,35794,258728,307234
1630411815216,35754,258640,307198
1630411815226,35695,258560,307188
1630411815236,35612,258446,307127
1630411815246,35539,258350,307064
1630411815256,35470,258289,307044
1630411815266,35407,258241,307035
1630411815276,35346,258184,307052
1630411815286,35290,258135,306994
1630411815296,35234,258078,307008
1630411815306,35183,258067,306973
1630411815316,35122,257976,306956
1630411815326,35068,257955,306953
1630411815336,35016,257924,306926
1630411815346,34969,257862,306882
1630411815356,34923,257818,306852
1630411815366,34868,257777,306829
1630411815376,34823,257762,306805
1630411815386,34774,257662,306766
1630411815396,34728,257652,306778
1630411815406,34695,257629,306759
1630411815416,34655,257602,306763
1630411815426,34635,257565,306777
1630411815436,34622,257590,306769
1630411815446,34618,257572,306770
1630411815456,34620,257597,306794
1630411815466,34626,257596,306769
1630411815476,34622,257609,306760
1630411815486,34630,257585,306769
1630411815496,34614,257585,306759
1630411815506,34629,257597,306817
1630411815516,34618,257608,306772
1630411815526,34610,257612,306751
1630411815536,34622,257613,306741
1630411815546,34633,257627,306780
1630411815556,34633,257645,306774
1630411815566,34649,257661,306775
1630411815576,34666,257697,306796
1630411815586,34681,257679,306812
1630411815596,34699,257707,306843
1630411815606,34709,257748,306796
1630411815616,34734,257754,306825
1630411815626,34761,257794,306859
1630411815636,34778,257817,306852
1630411815646,34797,257835,306877
1630411815656,34826,257846,306859
1630411815666,34857,257919,306920
1630411815676,34877,257896,306912
1630411815686,34902,257967,306931
1630411815696,34933,257975,306983
1630411815706,34957,258003,306937
1630411815716,34987,258025,306990
1630411815726,35018,258071,306982
1630411815736,35046,258097,306985
1630411815746,35076,258106,307051
1630411815756,35105,258155,307020
1630411815766,35133,258150,307084
1630411815776,35161,258219,307052
1630411815786,35183,258280,307078
1630411815796,35218,258291,307097
1630411815806,35242,258314,307091
1630411815816,35274,258332,307105
1630411815826,35300,258400,307127
1630411815836,35318,258395,307160
1630411815846,35361,258432,307168
1630411815856,35377,258442,307181
1630411815866,35410,258525,307213
1630411815876,35435,258501,307202
1630411815886,35463,258567,307202
1630411815896,35512,258571,307247
1630411815906,35535,258644,307246
1630411815916,35557,258689,307263
1630411815926,35593,258734,307310
1630411815936,35621,258740,307272
1630411815946,35658,258725,307298
1630411815956,35685,258776,307318
1630411815966,35710,258805,307332
1630411815976,35718,258765,307292
1630411815986,35694,258707,307285
1630411815996,35652,258634,307224
1630411816006,35587,258499,307184
1630411816016,35508,258450,307149
1630411816026,35420,258357,307121
1630411816036,35346,258272,307072
1630411816046,35292,258219,307100
1630411816056,35228,258151,307076
1630411816066,35179,258131,307058
1630411816076,35125,258102,307030
1630411816086,35076,258057,307008
1630411816096,35024,258008,307033
1630411816106,34967,257963,306975
1630411816116,34918,257922,306936
1630411816126,34863,257883,306957
1630411816136,34832,257833,306947
1630411816146,34782,257805,306935
1630411816156,34741,257760,306895
1630411816166,34682,257736,306876
1630411816176,34643,257672,306821
1630411816186,34611,257661,306848
1630411816196,34585,257658,306841
1630411816206,34579,257724,306826
1630411816216,34574,257688,306868
1630411816226,34582,257716,306833
1630411816236,34587,257718,306856
1630411816246,34578,257666,306865
1630411816256,34584,257677,306838
1630411816266,34587,257706,306859
1630411816276,34591,257653,306825
1630411816286,34581,257716,306828
1630411816296,34577,257703,306828
1630411816306,34581,257691,306823
1630411816316,34595,257713,306850
1630411816326,34597,257716,306809
1630411816336,34606,257734,306879
1630411816346,34618,257753,306850
1630411816356,34636,257747,306913
1630411816366,34646,257781,306881
1630411816376,34664,257815,306865
1630411816386,34684,257811,306934
1630411816396,34704,257861,306914
1630411816406,34729,257877,306941
1630411816416,34749,257873,306976
1630411816426,34769,257925,306987
1630411816436,34795,257923,306972
1630411816446,34825,258004,306983
1630411816456,34847,258028,306985
1630411816466,34877,258039,307020
1630411816476,34898,258057,307048
1630411816486,34934,258091,307060
1630411816496,34952,258135,307051
1630411816506,34984,258135,307066
1630411816516,35018,258185,307081
1630411816526,35046,258237,307082
1630411816536,35074,258222,307120
1630411816546,35100,258297,307100
1630411816556,35131,258334,307155
1630411816566,35162,258355,307115
1630411816576,35190,258350,307155
1630411816586,35214,258392,307145
1630411816596,35241,258446,307154
1630411816606,35272,258437,307179
1630411816616,35293,258436,307215
1630411816626,35322,258508,307243
1630411816636,35358,258527,307277
1630411816646,35384,258565,307261
1630411816656,35404,258616,307266
1630411816666,35428,258646,307304
1630411816676,35468,258655,307293
1630411816686,35502,258726,307299
1630411816696,35538,258714,307342
1630411816706,35564,258739,307368
1630411816716,35594,258799,307357
1630411816726,35632,258816,307380
1630411816736,35657,258885,307394
1630411816746,35691,258914,307428
1630411816756,35694,258890,307403
1630411816766,35691,258805,307360
1630411816776,35646,258715,307310
1630411816786,35586,258621,307265
1630411816796,35515,258545,307237
1630411816806,35430,258457,307209
1630411816816,35362,258421,307188
1630411816826,35300,258388,307142
1630411816836,35247,258328,307165
1630411816846,35188,258233,307120
1630411816856,35147,258194,307132
1630411816866,35101,258210,307118
1630411816876,35057,258175,307113
1630411816886,35016,258140,307059
1630411816896,34975,258080,307074
1630411816906,34927,258039,307047
1630411816916,34889,258007,307037
1630411816926,34847,258005,306994
1630411816936,34817,257946,306997
1630411816946,34777,257892,306947
1630411816956,34753,257832,306938
1630411816966,34720,257878,307004
1630411816976,34700,257891,306959
1630411816986,34702,257925,306968
1630411816996,34701,257914,306948
1630411817006,34713,257934,306951
1630411817016,34719,257915,306989
1630411817026,34718,257940,306993
1630411817036,34720,257954,306973
1630411817046,34715,257904,306962
1630411817056,34719,257924,306970
1630411817066,34704,257924,306957
1630411817076,34715,257947,306968
1630411817086,34716,257958,306906
1630411817096,34720,257934,306935
1630411817106,34736,257947,306958
1630411817116,34734,257953,307000
1630411817126,34758,257976,307017
1630411817136,34776,258022,307005
1630411817146,34788,257993,307030
1630411817156,34811,258049,307041
1630411817166,34831,258069,307060
1630411817176,34855,258102,307035
1630411817186,34872,258107,307061
1630411817196,34906,258150,307099
1630411817206,34932,258187,307095
1630411817216,34951,258224,307131
1630411817226,34983,258252,307121
1630411817236,35007,258267,307134
1630411817246,35037,258288,307143
1630411817256,35068,258340,307175
1630411817266,35090,258367,307185
1630411817276,35135,258441,307163
1630411817286,35160,258432,307238
1630411817296,35194,258454,307209
1630411817306,35213,258497,307217
1630411817316,35255,258548,307227
1630411817326,35283,258559,307240
1630411817336,35310,258556,307255
1630411817346,35347,258621,307275
1630411817356,35374,258640,307283
1630411817366,35402,258644,307354
1630411817376,35426,258748,307309
1630411817386,35457,258707,307339
1630411817396,35492,258714,307341
1630411817406,35520,258784,307379
1630411817416,35543,258816,307401
1630411817426,35577,258860,307410
1630411817436,35609,258904,307395
1630411817446,35635,258913,307418
1630411817456,35672,258939,307437
1630411817466,35699,259008,307485
1630411817476,35740,259045,307488
1630411817486,35773,259075,307458
1630411817496,35808,259105,307502
1630411817506,35841,259139,307528
1630411817516,35877,259156,307558
1630411817526,35908,259164,307553
1630411817536,35924,259206,307534
1630411817546,35907,259129,307478
1630411817556,35883,259049,307455
1630411817566,35822,258934,307416
1630411817576,35743,258857,307417
1630411817586,35674,258773,307367
1630411817596,35602,258717,307365
1630411817606,35536,258629,307311
1630411817616,35460,258559,307244
1630411817626,35416,258517,307244
1630411817636,35374,258446,307199
1630411817646,35317,258429,307206
1630411817656,35280,258392,307188
1630411817666,35237,258316,307149
1630411817676,35180,258299,307115
1630411817686,35144,258221,307071
1630411817696,35094,258191,307067
1630411817706,35061,258202,307046
1630411817716,35024,258176,307006
1630411817726,34985,258136,307002
1630411817736,34956,258099,306987
1630411817746,34921,258039,306959
1630411817756,34896,258030,306949
1630411817766,34889,258015,306942
1630411817776,34865,258040,306968
1630411817786,34877,258046,306909
1630411817796,34879,258097,306989
1630411817806,34884,258087,306950
1630411817816,34896,258099,307000
1630411817826,34897,258099,306991
1630411817836,34900,258049,307018
1630411817846,34903,258090,307037
1630411817856,34902,258058,306993
1630411817866,34901,258097,307021
1630411817876,34905,258048,307023
1630411817886,34909,258129,307040
1630411817896,34908,258126,307050
1630411817906,34919,258151,307035
1630411817916,34926,258166,307058
1630411817926,34946,258131,307059
1630411817936,34952,258204,307066
1630411817946,34968,258219,307098
1630411817956,34979,258227,307075
1630411817966,35002,258253,307088
1630411817976,35023,258265,307115
1630411817986,35049,258315,307197
1630411817996,35074,258346,307149
1630411818006,35103,258371,307179
1630411818016,35120,258381,307189
1630411818026,35150,258405,307176
1630411818036,35170,258477,307219
1630411818046,35208,258498,307198
1630411818056,35227,258514,307234
1630411818066,35266,258568,307244
1630411818076,35287,258591,307253
1630411818086,35314,258653,307315
1630411818096,35336,258650,307317
1630411818106,35386,258669,307377
1630411818116,35403,258725,307330
1630411818126,35450,258744,307375
1630411818136,35471,258735,307343
1630411818146,35507,258799,307372
1630411818156,35537,258852,307394
1630411818166,35566,258820,307384
1630411818176,35601,258884,307442
1630411818186,35631,258950,307414
1630411818196,35660,258961,307452
1630411818206,35688,258981,307471
1630411818216,35715,259011,307493
1630411818226,35754,259057,307471
1630411818236,35784,259071,307523
1630411818246,35811,259136,307485
1630411818256,35841,259141,307537
1630411818266,35876,259169,307532
1630411818276,35929,259226,307575
1630411818286,35949,259237,307559
1630411818296,35983,259300,307615
1630411818306,36020,259293,307631
1630411818316,36047,259319,307645
1630411818326,36070,259346,307611
1630411818336,36071,259307,307614
1630411818346,36039,259218,307555
1630411818356,35993,259119,307529
1630411818366,35919,259005,307511
1630411818376,35841,258945,307425
1630411818386,35773,258871,307412
1630411818396,35704,258790,307380
1630411818406,35643,258699,307388
1630411818416,35585,258684,307342
1630411818426,35539,258636,307358
1630411818436,35504,258603,307350
1630411818446,35443,258546,307322
1630411818456,35405,258521,307241
1630411818466,35350,258545,307307
1630411818476,35302,258444,307236
1630411818486,35266,258408,307232
1630411818496,35233,258399,307261
1630411818506,35185,258333,307239
1630411818516,35149,258299,307224
1630411818526,35111,258319,307208
1630411818536,35080,258265,307185
1630411818546,35056,258280,307223
1630411818556,35028,258216,307163
1630411818566,35020,258265,307166
1630411818576,35036,258247,307145
1630411818586,35024,258244,307159
1630411818596,35026,258275,307212
1630411818606,35040,258285,307191
1630411818616,35037,258279,307169
1630411818626,35039,258287,307199
1630411818636,35042,258253,307174
1630411818646,35044,258302,307173
1630411818656,35043,258315,307181
1630411818666,35051,258308,307169
1630411818676,35053,258331,307179
1630411818686,35065,258336,307208
1630411818696,35082,258304,307208
1630411818706,35095,258319,307204
1630411818716,35113,258356,307248
1630411818726,35129,258327,307203
1630411818736,35157,258432,307270
1630411818746,35183,258421,307277
1630411818756,35203,258442,307256
1630411818766,35212,258495,307281
1630411818776,35251,258494,307319
1630411818786,35275,258519,307292
1630411818796,35305,258598,307292
1630411818806,35334,258589,307311
1630411818816,35373,258618,307349
1630411818826,35392,258697,307385
1630411818836,35421,258696,307346
1630411818846,35457,258713,307392
1630411818856,35480,258750,307425
1630411818866,35510,258782,307437
1630411818876,35546,258805,307416
1630411818886,35571,258858,307461
1630411818896,35606,258873,307467
1630411818906,35638,258883,307470
1630411818916,35673,258938,307471
1630411818926,35703,258972,307493
1630411818936,35735,258992,307548
1630411818946,35757,258976,307527
1630411818956,35781,259079,307555
1630411818966,35814,259062,307572
1630411818976,35847,259119,307519
1630411818986,35875,259132,307576
1630411818996,35909,259139,307611
1630411819006,35937,259256,307623
1630411819016,35964,259249,307629
1630411819026,36003,259273,307634
1630411819036,36030,259281,307660
1630411819046,36069,259323,307638
1630411819056,36099,259391,307682
1630411819066,36128,259384,307740
1630411819076,36170,259455,307727
1630411819086,36199,259464,307759
1630411819096,36234,259484,307742
1630411819106,36250,259518,307700
1630411819116,36240,259423,307724
1630411819126,36211,259385,307674
1630411819136,36151,259236,307656
1630411819146,36081,259150,307609
1630411819156,36010,259075,307528
1630411819166,35935,258979,307514
1630411819176,35868,258929,307519
1630411819186,35816,258895,307466
1630411819196,35767,258840,307454
1630411819206,35726,258808,307409
1630411819216,35681,258783,307471
1630411819226,35651,258776,307413
1630411819236,35603,258700,307406
1630411819246,35563,258707,307388
1630411819256,35522,258662,307364
1630411819266,35487,258594,307371
1630411819276,35451,258576,307346
1630411819286,35426,258594,307366
1630411819296,35378,258527,307355
1630411819306,35359,258524,307334
1630411819316,35323,258467,307292
1630411819326,35300,258508,307298
1630411819336,35301,258521,307314
1630411819346,35298,258496,307338
1630411819356,35303,258543,307352
1630411819366,35304,258541,307310
1630411819376,35313,258525,307326
1630411819386,35301,258533,307333
1630411819396,35301,258543,307319
1630411819406,35300,258582,307286
1630411819416,35304,258512,307309
1630411819426,35303,258511,307320
1630411819436,35294,258528,307320
1630411819446,35295,258531,307313
1630411819456,35305,258537,307350
1630411819466,35307,258558,307322
1630411819476,35318,258545,307340
1630411819486,35325,258586,307324
1630411819496,35342,258581,307354
1630411819506,35358,258623,307404
1630411819516,35372,258620,307359
1630411819526,35391,258638,307345
1630411819536,35409,258682,307362
1630411819546,35436,258733,307411
1630411819556,35451,258700,307389
1630411819566,35482,258794,307428
1630411819576,35520,258813,307425
1630411819586,35528,258826,307446
1630411819596,35559,258856,307443
1630411819606,35580,258887,307466
1630411819616,35608,258909,307498
1630411819626,35634,258950,307483
1630411819636,35667,258972,307469
1630411819646,35697,258966,307531
1630411819656,35717,259030,307513
1630411819666,35746,259066,307550
1630411819676,35769,259090,307517
1630411819686,35798,259080,307564
1630411819696,35827,259147,307572
1630411819706,35857,259153,307594
1630411819716,35888,259177,307555
1630411819726,35919,259212,307613
1630411819736,35951,259264,307601
1630411819746,35976,259291,307615
1630411819756,36001,259331,307621
1630411819766,36032,259337,307694
1630411819776,36070,259373,307671
1630411819786,36100,259433,307690
1630411819796,36124,259424,307701
1630411819806,36162,259466,307720
1630411819816,36190,259472,307713
1630411819826,36197,259465,307700
1630411819836,36194,259424,307731
1630411819846,36149,259313,307633
1630411819856,36094,259255,307590
1630411819866,36021,259129,307575
1630411819876,35931,259073,307501
1630411819886,35867,259009,307472
1630411819896,35809,258927,307421
1630411819906,35749,258903,307423
1630411819916,35698,258827,307407
1630411819926,35652,258808,307417
1630411819936,35615,258802,307433
1630411819946,35576,258771,307391
1630411819956,35526,258679,307388
1630411819966,35487,258681,307369
1630411819976,35449,258649,307328
1630411819986,35413,258615,307303
1630411819996,35366,258569,307293
1630411820006,35330,258523,307272
1630411820016,35294,258532,307298
1630411820026,35268,258492,307247
1630411820036,35248,258466,307253
1630411820046,35243,258498,307258
1630411820056,35231,258526,307286
1630411820066,35231,258532,307273
1630411820076,35255,258547,307282
1630411820086,35248,258574,307311
1630411820096,35254,258548,307259
1630411820106,35250,258528,307266
1630411820116,35228,258539,307255
1630411820126,35247,258535,307256
1630411820136,35237,258559,307287
1630411820146,35238,258572,307258
1630411820156,35239,258562,307274
1630411820166,35236,258610,307277
1630411820176,35246,258545,307265
1630411820186,35252,258603,307326
1630411820196,35264,258632,307298
1630411820206,35286,258666,307292
1630411820216,35305,258674,307315
1630411820226,35312,258665,307336
1630411820236,35335,258694,307374
1630411820246,35346,258709,307350
1630411820256,35378,258764,307348
1630411820266,35401,258795,307353
1630411820276,35427,258798,307373
1630411820286,35456,258815,307409
1630411820296,35479,258882,307407
1630411820306,35512,258905,307409
1630411820316,35545,258922,307427
1630411820326,35568,258983,307448
1630411820336,35603,258967,307460
1630411820346,35627,259018,307470
1630411820356,35664,259101,307478
1630411820366,35694,259084,307489
1630411820376,35722,259092,307511
1630411820386,35747,259102,307493
1630411820396,35770,259163,307512
1630411820406,35814,259176,307554
1630411820416,35835,259194,307560
1630411820426,35870,259254,307548
1630411820436,35898,259257,307570
1630411820446,35930,259271,307596
1630411820456,35962,259301,307633
1630411820466,35992,259362,307625
1630411820476,36016,259397,307645
1630411820486,36047,259459,307670
1630411820496,36082,259455,307660
1630411820506,36118,259494,307632
1630411820516,36152,259518,307694
1630411820526,36193,259578,307711
1630411820536,36212,259595,307726
1630411820546,36236,259559,307725
1630411820556,36225,259597,307727
1630411820566,36201,259472,307641
1630411820576,36143,259365,307580
1630411820586,36065,259222,307542
1630411820596,35980,259148,307555
1630411820606,35891,259058,307491
1630411820616,35812,258955,307456
1630411820626,35735,258898,307422
1630411820636,35675,258858,307431
1630411820646,35612,258789,307376
1630411820656,35557,258777,307405
1630411820666,35504,258731,307350
1630411820676,35442,258656,307325
1630411820686,35391,258648,307293
1630411820696,35336,258557,307278
1630411820706,35288,258529,307275
1630411820716,35222,258501,307246
1630411820726,35177,258442,307205
1630411820736,35130,258400,307177
1630411820746,35086,258384,307187
1630411820756,35045,258337,307176
1630411820766,35004,258291,307177
1630411820776,34972,258265,307123
1630411820786,34955,258296,307159
1630411820796,34942,258317,307138
1630411820806,34953,258260,307119
1630411820816,34953,258325,307150
1630411820826,34953,258295,307131
1630411820836,34954,258289,307123
1630411820846,34947,258267,307132
1630411820856,34948,258303,307114
1630411820866,34952,258275,307158
1630411820876,34948,258286,307125
1630411820886,34952,258288,307145
1630411820896,34959,258309,307160
1630411820906,34954,258302,307142
1630411820916,34969,258309,307109
1630411820926,34984,258345,307137
1630411820936,34989,258365,307151
1630411820946,35012,258376,307154
1630411820956,35017,258393,307176
1630411820966,35038,258389,307150
1630411820976,35071,258487,307176
1630411820986,35090,258477,307224
1630411820996,35109,258462,307212
1630411821006,35139,258511,307212
1630411821016,35179,258572,307264
1630411821026,35191,258609,307247
1630411821036,35230,258623,307270
1630411821046,35244,258606,307296
1630411821056,35281,258695,307296
1630411821066,35315,258705,307295
1630411821076,35340,258766,307337
1630411821086,35382,258746,307342
1630411821096,35402,258795,307358
1630411821106,35434,258839,307389
1630411821116,35464,258856,307410
1630411821126,35503,258832,307417
1630411821136,35521,258932,307428
1630411821146,35550,258962,307446
1630411821156,35582,258974,307456
1630411821166,35625,258970,307438
1630411821176,35648,259012,307452
1630411821186,35682,259044,307457
1630411821196,35707,259125,307512
1630411821206,35761,259143,307530
1630411821216,35781,259197,307521
1630411821226,35821,259231,307553
1630411821236,35862,259220,307593
1630411821246,35894,259276,307557
1630411821256,35921,259331,307628
1630411821266,35954,259298,307601
1630411821276,35972,259376,307621
1630411821286,35976,259302,307583
1630411821296,35951,259229,307548
1630411821306,35896,259135,307522
1630411821316,35827,259020,307463
1630411821326,35736,258931,307452
1630411821336,35652,258843,307383
1630411821346,35579,258762,307352
1630411821356,35524,258678,307339
1630411821366,35456,258667,307342
1630411821376,35401,258637,307301
1630411821386,35353,258555,307268
1630411821396,35300,258537,307270
1630411821406,35255,258476,307245
1630411821416,35199,258434,307225
1630411821426,35148,258375,307218
1630411821436,35100,258360,307201
1630411821446,35052,258324,307161
1630411821456,35011,258283,307157
1630411821466,34978,258223,307145
1630411821476,34938,258132,307152
1630411821486,34902,258156,307118
1630411821496,34881,258132,307083
1630411821506,34846,258111,307090
1630411821516,34843,258117,307114
1630411821526,34864,258134,307121
1630411821536,34858,258171,307135
1630411821546,34858,258202,307086
1630411821556,34871,258227,307121
1630411821566,34877,258136,307089
1630411821576,34870,258192,307089
1630411821586,34874,258160,307128
1630411821596,34875,258166,307081
1630411821606,34875,258178,307117
1630411821616,34869,258160,307137
1630411821626,34884,258166,307078
1630411821636,34895,258193,307120
1630411821646,34908,258211,307147
1630411821656,34921,258215,307150
1630411821666,34936,258275,307135
1630411821676,34949,258261,307201
1630411821686,34974,258272,307190
1630411821696,34998,258305,307171
1630411821706,35021,258321,307219
1630411821716,35032,258376,307190
1630411821726,35061,258406,307216
1630411821736,35096,258470,307226
1630411821746,35128,258440,307246
1630411821756,35150,258494,307258
1630411821766,35181,258469,307307
1630411821776,35207,258527,307322
1630411821786,35245,258581,307321
1630411821796,35265,258591,307327
1630411821806,35301,258652,307332
1630411821816,35322,258684,307349
1630411821826,35359,258739,307414
1630411821836,35395,258744,307418
1630411821846,35441,258778,307410
1630411821856,35461,258780,307456
1630411821866,35495,258816,307472
1630411821876,35519,258854,307444
1630411821886,35554,258876,307468
1630411821896,35585,258885,307502
1630411821906,35616,258922,307522
1630411821916,35642,259000,307530
1630411821926,35673,259001,307570
1630411821936,35707,259034,307557
1630411821946,35738,259089,307576
1630411821956,35772,259091,307565
1630411821966,35802,259101,307596
1630411821976,35852,259161,307642
1630411821986,35862,259192,307634
1630411821996,35919,259218,307679
1630411822006,35939,259284,307668
1630411822016,35956,259246,307702
1630411822026,35963,259237,307642
1630411822036,35934,259128,307623
1630411822046,35879,259047,307583
1630411822056,35816,258970,307547
1630411822066,35730,258812,307481
1630411822076,35663,258762,307470
1630411822086,35587,258646,307378
1630411822096,35526,258646,307395
1630411822106,35473,258595,307405
1630411822116,35430,258591,307377
1630411822126,35383,258510,307359
1630411822136,35350,258441,307355
1630411822146,35306,258444,307344
1630411822156,35263,258398,307309
1630411822166,35219,258404,307305
1630411822176,35170,258355,307324
1630411822186,35149,258350,307264
1630411822196,35109,258296,307288
1630411822206,35083,258259,307249
1630411822216,35050,258210,307232
1630411822226,35027,258201,307226
1630411822236,35009,258162,307220
1630411822246,34997,258212,307229
1630411822256,35000,258216,307223
1630411822266,35009,258230,307245
1630411822276,35022,258268,307264
1630411822286,35027,258269,307255
1630411822296,35028,258297,307256
1630411822306,35040,258229,307260
1630411822316,35016,258257,307256
1630411822326,35014,258241,307218
1630411822336,35018,258220,307241
1630411822346,35029,258205,307252
1630411822356,35019,258254,307239
1630411822366,35024,258272,307256
1630411822376,35040,258275,307230
1630411822386,35047,258286,307293
1630411822396,35062,258286,307295
1630411822406,35079,258369,307297
1630411822416,35095,258360,307300
1630411822426,35116,258368,307296
1630411822436,35148,258360,307289
1630411822446,35173,258423,307373
1630411822456,35190,258413,307344
1630411822466,35216,258491,307348
1630411822476,35247,258492,307378
1630411822486,35277,258535,307379
1630411822496,35306,258540,307409
1630411822506,35330,258577,307409
1630411822516,35367,258619,307447
1630411822526,35396,258631,307467
1630411822536,35416,258694,307448
1630411822546,35442,258728,307457
1630411822556,35482,258727,307445
1630411822566,35513,258788,307483
1630411822576,35538,258814,307514
1630411822586,35566,258831,307501
1630411822596,35596,258818,307532
1630411822606,35633,258853,307543
1630411822616,35657,258934,307559
1630411822626,35693,258944,307569
1630411822636,35711,258970,307604
1630411822646,35748,258999,307592
1630411822656,35787,259017,307642
1630411822666,35817,259070,307655
1630411822676,35841,259115,307669
1630411822686,35875,259136,307676
1630411822696,35913,259155,307701
1630411822706,35937,259212,307715
1630411822716,35966,259215,307751
1630411822726,35992,259202,307712
1630411822736,35999,259182,307686
1630411822746,35978,259126,307683
1630411822756,35925,259028,307624
1630411822766,35860,258909,307582
1630411822776,35783,258850,307517
1630411822786,35712,258748,307512
1630411822796,35653,258688,307454
1630411822806,35580,258618,307467
1630411822816,35524,258583,307470
1630411822826,35479,258601,307401
1630411822836,35438,258499,307423
1630411822846,35391,258464,307390
1630411822856,35342,258435,307396
1630411822866,35308,258390,307331
1630411822876,35254,258340,307337
1630411822886,35215,258324,307335
1630411822896,35176,258274,307327
1630411822906,35141,258293,307304
1630411822916,35105,258254,307292
1630411822926,35070,258210,307278
1630411822936,35046,258207,307259
1630411822946,35021,258204,307265
1630411822956,35016,258158,307281
1630411822966,35009,258188,307251
1630411822976,35019,258205,307261
1630411822986,35025,258260,307289
1630411822996,35037,258207,307249
1630411823006,35032,258203,307267
1630411823016,35037,258229,307266
1630411823026,35028,258251,307240
1630411823036,35036,258214,307267
1630411823046,35036,258212,307266
1630411823056,35040,258204,307277
1630411823066,35046,258227,307295
1630411823076,35059,258254,307309
1630411823086,35059,258278,307276
1630411823096,35078,258292,307288
1630411823106,35095,258294,307333
1630411823116,35098,258300,307293
1630411823126,35125,258328,307336
1630411823136,35150,258383,307347
1630411823146,35167,258362,307334
1630411823156,35190,258386,307382
1630411823166,35216,258468,307389
1630411823176,35251,258482,307381
1630411823186,35281,258528,307392
1630411823196,35308,258554,307414
1630411823206,35336,258560,307460
1630411823216,35367,258557,307440
1630411823226,35400,258636,307511
1630411823236,35427,258663,307498
1630411823246,35462,258693,307491
1630411823256,35493,258700,307494
1630411823266,35519,258752,307529
1630411823276,35555,258809,307578
1630411823286,35579,258834,307518
1630411823296,35627,258841,307576
1630411823306,35650,258856,307587
1630411823316,35670,258883,307543
1630411823326,35709,258971,307580
1630411823336,35730,258962,307636
1630411823346,35769,258982,307651
1630411823356,35791,259038,307646
1630411823366,35824,259038,307691
1630411823376,35857,259057,307711
1630411823386,35894,259146,307686
1630411823396,35924,259137,307682
1630411823406,35951,259199,307738
1630411823416,35988,259242,307745
1630411823426,36022,259267,307802
1630411823436,36051,259291,307775
1630411823446,36074,259337,307801
1630411823456,36112,259355,307814
1630411823466,36138,259366,307819
1630411823476,36131,259321,307787
1630411823486,36098,259285,307760
1630411823496,36040,259125,307717
1630411823506,35961,259034,307644
1630411823516,35880,258917,307624
1630411823526,35804,258835,307581
1630411823536,35725,258766,307575
1630411823546,35665,258724,307518
1630411823556,35598,258686,307520
1630411823566,35543,258641,307484
1630411823576,35488,258575,307509
1630411823586,35432,258535,307467
1630411823596,35378,258494,307465
1630411823606,35315,258434,307442
1630411823616,35277,258396,307398
1630411823626,35218,258369,307414
1630411823636,35164,258274,307359
1630411823646,35132,258257,307386
1630411823656,35075,258243,307345
1630411823666,35033,258214,307339
1630411823676,34991,258158,307301
1630411823686,34950,258147,307319
1630411823696,34940,258129,307259
1630411823706,34925,258125,307284
1630411823716,34935,258144,307290
1630411823726,34931,258128,307287
1630411823736,34941,258159,307324
1630411823746,34944,258130,307294
1630411823756,34940,258118,307291
1630411823766,34942,258141,307296
1630411823776,34934,258176,307284
1630411823786,34937,258173,307307
1630411823796,34948,258131,307291
1630411823806,34957,258152,307278
1630411823816,34951,258186,307307
1630411823826,34953,258174,307302
1630411823836,34980,258199,307299
1630411823846,34982,258175,307308
1630411823856,35001,258160,307345
1630411823866,35016,258217,307329
1630411823876,35042,258278,307345
1630411823886,35061,258300,307375
1630411823896,35076,258264,307355
1630411823906,35100,258345,307365
1630411823916,35130,258368,307421
1630411823926,35155,258397,307420
1630411823936,35184,258459,307424
1630411823946,35220,258441,307426
1630411823956,35250,258450,307480
1630411823966,35277,258524,307481
1630411823976,35315,258560,307479
1630411823986,35337,258612,307490
1630411823996,35369,258641,307539
1630411824006,35400,258645,307530
1630411824016,35437,258667,307535
1630411824026,35471,258695,307582
1630411824036,35499,258720,307568
1630411824046,35528,258739,307619
1630411824056,35553,258795,307582
1630411824066,35597,258819,307603
1630411824076,35613,258852,307608
1630411824086,35642,258869,307663
1630411824096,35676,258930,307683
1630411824106,35715,258935,307690
1630411824116,35743,258963,307702
1630411824126,35788,259008,307695
1630411824136,35814,259030,307712
1630411824146,35840,259083,307744
1630411824156,35884,259106,307767
1630411824166,35913,259144,307786
1630411824176,35944,259172,307813
1630411824186,35979,259213,307826
1630411824196,36004,259259,307799
1630411824206,36032,259188,307793
1630411824216,36032,259189,307801
1630411824226,36007,259145,307748
1630411824236,35958,259036,307695
1630411824246,35894,258957,307672
1630411824256,35803,258812,307687
1630411824266,35738,258745,307643
1630411824276,35670,258680,307587
1630411824286,35604,258640,307612
1630411824296,35556,258618,307567
1630411824306,35497,258547,307568
1630411824316,35450,258503,307516
1630411824326,35402,258486,307489
1630411824336,35354,258417,307489
1630411824346,35306,258404,307445
1630411824356,35260,258333,307423
1630411824366,35215,258304,307411
1630411824376,35170,258289,307402
1630411824386,35133,258257,307429
1630411824396,35094,258211,307356
1630411824406,35064,258209,307367
1630411824416,35039,258190,307352
1630411824426,35005,258154,307350
1630411824436,34995,258114,307350
1630411824446,34988,258152,307345
1630411824456,34986,258160,307377
1630411824466,35008,258166,307364
1630411824476,35007,258151,307354
1630411824486,35015,258195,307358
1630411824496,35014,258188,307355
1630411824506,35006,258187,307339
1630411824516,35012,258198,307355
1630411824526,35011,258167,307381
1630411824536,35015,258212,307322
1630411824546,35021,258175,307373
1630411824556,35026,258229,307392
1630411824566,35037,258230,307347
1630411824576,35054,258220,307399
1630411824586,35063,258202,307390
1630411824596,35084,258254,307441
1630411824606,35096,258282,307389
1630411824616,35123,258309,307447
1630411824626,35143,258368,307474
1630411824636,35160,258349,307459
1630411824646,35193,258379,307466
1630411824656,35212,258426,307482
1630411824666,35243,258451,307485
1630411824676,35271,258470,307502
1630411824686,35302,258523,307510
1630411824696,35330,258530,307530
1630411824706,35359,258569,307558
1630411824716,35389,258565,307540
1630411824726,35422,258642,307594
1630411824736,35452,258638,307590
1630411824746,35486,258684,307571
1630411824756,35520,258693,307609
1630411824766,35542,258726,307633
1630411824776,35571,258747,307622
1630411824786,35607,258774,307685
1630411824796,35634,258828,307634
1630411824806,35654,258819,307674
1630411824816,35688,258843,307706
1630411824826,35726,258904,307707
1630411824836,35759,258929,307699
1630411824846,35788,258960,307738
1630411824856,35808,258991,307762
1630411824866,35845,259078,307736
1630411824876,35874,259068,307801
1630411824886,35900,259099,307763
1630411824896,35936,259102,307801
1630411824906,35973,259145,307847
1630411824916,36009,259173,307846
1630411824926,36036,259212,307873
1630411824936,36060,259269,307893
1630411824946,36081,259302,307861
1630411824956,36097,259287,307901
1630411824966,36085,259216,307804
1630411824976,36044,259095,307806
1630411824986,35976,258966,307770
1630411824996,35906,258884,307723
1630411825006,35826,258795,307681
1630411825016,35763,258779,307663
1630411825026,35701,258701,307667
1630411825036,35649,258654,307618
1630411825046,35603,258615,307564
1630411825056,35559,258584,307590
1630411825066,35511,258538,307549
1630411825076,35472,258497,307566
1630411825086,35437,258475,307549
1630411825096,35411,258482,307479
1630411825106,35368,258389,307458
1630411825116,35331,258386,307457
1630411825126,35307,258347,307427
1630411825136,35271,258332,307415
1630411825146,35245,258326,307448
1630411825156,35226,258283,307396
1630411825166,35213,258263,307388
1630411825176,35193,258305,307366
1630411825186,35199,258288,307385
1630411825196,35214,258331,307380
1630411825206,35221,258327,307396
1630411825216,35225,258334,307374
1630411825226,35228,258326,307372
1630411825236,35239,258335,307383
1630411825246,35239,258313,307326
1630411825256,35239,258325,307335
1630411825266,35252,258342,307314
1630411825276,35251,258339,307311
1630411825286,35267,258388,307299
1630411825296,35272,258396,307262
1630411825306,35289,258354,307322
1630411825316,35304,258423,307293
1630411825326,35320,258400,307285
1630411825336,35342,258451,307271
1630411825346,35369,258543,307304
1630411825356,35393,258511,307336
1630411825366,35426,258568,307340
1630411825376,35454,258559,307349
1630411825386,35475,258613,307403
1630411825396,35503,258645,307384
1630411825406,35539,258660,307466
1630411825416,35564,258679,307456
1630411825426,35606,258733,307538
1630411825436,35629,258763,307567
1630411825446,35665,258825,307586
1630411825456,35700,258808,307631
1630411825466,35718,258854,307662
1630411825476,35749,258883,307732
1630411825486,35768,258960,307750
1630411825496,35800,258951,307777
1630411825506,35822,258991,307821
1630411825516,35850,259052,307819
1630411825526,35872,259028,307883
1630411825536,35894,259068,307902
1630411825546,35920,259104,307936
1630411825556,35923,259125,307922
1630411825566,35959,259138,307980
1630411825576,35970,259133,307977
1630411825586,35993,259187,307978
1630411825596,36020,259208,307980
1630411825606,36041,259227,307982
1630411825616,36065,259278,307987
1630411825626,36092,259269,308021
1630411825636,36110,259322,308041
1630411825646,36140,259337,308025
1630411825656,36167,259376,308032
1630411825666,36203,259400,308009
1630411825676,36232,259420,308037
1630411825686,36250,259404,307984
1630411825696,36250,259367,307997
1630411825706,36224,259268,307923
1630411825716,36173,259186,307873
1630411825726,36112,259071,307788
1630411825736,36036,258965,307743
1630411825746,35947,258876,307687
1630411825756,35893,258818,307663
1630411825766,35826,258730,307618
1630411825776,35774,258683,307584
1630411825786,35719,258668,307569
1630411825796,35664,258639,307519
1630411825806,35621,258568,307512
1630411825816,35565,258513,307491
1630411825826,35514,258483,307476
1630411825836,35463,258420,307479
1630411825846,35421,258398,307428
1630411825856,35371,258344,307381
1630411825866,35322,258292,307373
1630411825876,35289,258274,307354
1630411825886,35244,258233,307350
1630411825896,35204,258230,307367
1630411825906,35178,258205,307323
1630411825916,35135,258191,307354
1630411825926,35131,258174,307343
1630411825936,35133,258222,307352
1630411825946,35141,258206,307320
1630411825956,35139,258221,307365
1630411825966,35138,258210,307380
1630411825976,35136,258242,307385
1630411825986,35132,258209,307370
1630411825996,35124,258220,307379
1630411826006,35122,258223,307390
1630411826016,35122,258279,307373
1630411826026,35121,258236,307424
1630411826036,35144,258229,307382
1630411826046,35125,258228,307363
1630411826056,35144,258236,307368
1630411826066,35153,258273,307415
1630411826076,35166,258279,307426
1630411826086,35176,258269,307438
1630411826096,35181,258310,307449
1630411826106,35221,258370,307413
1630411826116,35230,258371,307478
1630411826126,35258,258409,307490
1630411826136,35281,258400,307498
1630411826146,35294,258491,307537
1630411826156,35326,258484,307519
1630411826166,35345,258511,307559
1630411826176,35368,258523,307529
1630411826186,35395,258575,307551
1630411826196,35422,258585,307576
1630411826206,35446,258626,307600
1630411826216,35474,258649,307567
1630411826226,35485,258652,307610
1630411826236,35529,258709,307669
1630411826246,35553,258719,307653
1630411826256,35578,258754,307649
1630411826266,35604,258744,307696
1630411826276,35634,258820,307661
1630411826286,35656,258799,307708
1630411826296,35682,258876,307716
1630411826306,35713,258928,307749
1630411826316,35742,258938,307735
1630411826326,35761,258935,307793
1630411826336,35795,258973,307779
1630411826346,35830,258995,307778
1630411826356,35866,259030,307809
1630411826366,35891,259054,307846
1630411826376,35917,259134,307881
1630411826386,35944,259160,307870
1630411826396,35979,259218,307874
1630411826406,36003,259198,307892
1630411826416,36020,259237,307926
1630411826426,36020,259143,307888
1630411826436,35994,259064,307881
1630411826446,35930,258961,307792
1630411826456,35858,258865,307788
1630411826466,35802,258794,307744
1630411826476,35706,258729,307721
1630411826486,35647,258643,307715
1630411826496,35584,258582,307727
1630411826506,35530,258540,307667
1630411826516,35482,258468,307650
1630411826526,35437,258457,307656
1630411826536,35385,258436,307629
1630411826546,35335,258386,307607
1630411826556,35305,258333,307642
1630411826566,35256,258256,307586
1630411826576,35207,258265,307573
1630411826586,35168,258232,307540
1630411826596,35124,258186,307514
1630411826606,35095,258146,307478
1630411826616,35049,258096,307520
1630411826626,35024,258069,307522
1630411826636,34995,258082,307518
1630411826646,34985,258106,307481
1630411826656,34988,258080,307490
1630411826666,34997,258104,307495
1630411826676,34997,258105,307482
1630411826686,35019,258169,307504
1630411826696,35016,258132,307460
1630411826706,35014,258124,307513
1630411826716,35020,258149,307489
1630411826726,35036,258129,307425
1630411826736,35028,258180,307465
1630411826746,35032,258165,307472
1630411826756,35040,258183,307496
1630411826766,35054,258218,307473
1630411826776,35067,258231,307532
1630411826786,35080,258246,307530
1630411826796,35089,258265,307528
1630411826806,35121,258309,307533
1630411826816,35133,258291,307582
1630411826826,35156,258324,307556
1630411826836,35175,258357,307618
1630411826846,35203,258388,307624
1630411826856,35236,258425,307660
1630411826866,35261,258462,307639
1630411826876,35298,258509,307658
1630411826886,35330,258540,307682
1630411826896,35355,258551,307723
1630411826906,35385,258586,307706
1630411826916,35420,258655,307694
1630411826926,35458,258669,307726
1630411826936,35489,258728,307763
1630411826946,35519,258735,307768
1630411826956,35550,258808,307760
1630411826966,35582,258842,307824
1630411826976,35614,258855,307829
1630411826986,35645,258908,307862
1630411826996,35680,258920,307897
1630411827006,35706,258990,307885
1630411827016,35748,259036,307900
1630411827026,35777,259015,307914
1630411827036,35812,259071,307925
1630411827046,35837,259158,307945
1630411827056,35879,259125,307953
1630411827066,35909,259183,307979
1630411827076,35946,259228,308006
1630411827086,35982,259217,308020
1630411827096,36015,259304,308028
1630411827106,36054,259318,308020
1630411827116,36086,259322,308043
1630411827126,36110,259351,308026
1630411827136,36108,259319,307971
1630411827146,36079,259269,307978
1630411827156,36040,259167,307891
1630411827166,35982,259063,307902
1630411827176,35911,258956,307805
1630411827186,35841,258893,307814
1630411827196,35787,258879,307758
1630411827206,35740,258826,307771
1630411827216,35692,258746,307724
1630411827226,35659,258755,307723
1630411827236,35621,258735,307670
1630411827246,35590,258670,307659
1630411827256,35547,258645,307665
1630411827266,35503,258640,307641
1630411827276,35478,258594,307622
1630411827286,35442,258531,307659
1630411827296,35417,258536,307626
1630411827306,35388,258526,307618
1630411827316,35358,258499,307618
1630411827326,35332,258532,307610
1630411827336,35309,258477,307576
1630411827346,35302,258454,307546
1630411827356,35292,258431,307605
1630411827366,35299,258495,307633
1630411827376,35306,258484,307663
1630411827386,35319,258503,307609
1630411827396,35315,258495,307625
1630411827406,35329,258483,307633
1630411827416,35321,258456,307665
1630411827426,35324,258493,307658
1630411827436,35325,258524,307637
1630411827446,35325,258524,307632
1630411827456,35331,258476,307627
1630411827466,35333,258505,307623
1630411827476,35342,258514,307636
1630411827486,35352,258533,307639
1630411827496,35359,258561,307695
1630411827506,35382,258601,307672
1630411827516,35386,258611,307665
1630411827526,35421,258609,307680
1630411827536,35441,258615,307717
1630411827546,35462,258664,307713
1630411827556,35481,258692,307740
1630411827566,35512,258757,307745
1630411827576,35534,258731,307768
1630411827586,35563,258809,307806
1630411827596,35598,258799,307804
1630411827606,35610,258820,307803
1630411827616,35644,258870,307812
1630411827626,35670,258908,307828
1630411827636,35700,258913,307870
1630411827646,35731,259001,307855
1630411827656,35756,259008,307877
1630411827666,35806,259034,307893
1630411827676,35819,259059,307913
1630411827686,35872,259086,307948
1630411827696,35892,259109,307926
1630411827706,35931,259178,307941
1630411827716,35958,259172,307945
1630411827726,35996,259232,307970
1630411827736,36031,259283,308023
1630411827746,36055,259304,308015
1630411827756,36086,259323,308026
1630411827766,36109,259371,308023
1630411827776,36150,259423,308116
1630411827786,36166,259456,308054
1630411827796,36174,259396,308015
1630411827806,36157,259316,307998
1630411827816,36116,259249,307922
1630411827826,36066,259132,307913
1630411827836,36002,259080,307904
1630411827846,35942,259064,307847
1630411827856,35887,258912,307798
1630411827866,35834,258908,307796
1630411827876,35781,258886,307801
1630411827886,35742,258878,307752
1630411827896,35714,258820,307745
1630411827906,35689,258777,307745
1630411827916,35654,258771,307745
1630411827926,35625,258764,307722
1630411827936,35600,258715,307736
1630411827946,35573,258715,307721
1630411827956,35545,258697,307724
1630411827966,35522,258661,307665
1630411827976,35509,258662,307697
1630411827986,35487,258646,307645
1630411827996,35475,258633,307644
1630411828006,35471,258656,307667
1630411828016,35483,258647,307669
1630411828026,35485,258711,307711
1630411828036,35500,258733,307674
1630411828046,35514,258703,307705
1630411828056,35520,258717,307729
1630411828066,35536,258720,307685
1630411828076,35522,258743,307679
1630411828086,35528,258705,307687
1630411828096,35529,258795,307702
1630411828106,35536,258745,307732
1630411828116,35544,258750,307706
1630411828126,35550,258728,307718
1630411828136,35558,258800,307731
1630411828146,35569,258764,307712
1630411828156,35584,258807,307726
1630411828166,35609,258847,307726
1630411828176,35624,258859,307754
1630411828186,35633,258890,307749
1630411828196,35662,258899,307773
1630411828206,35690,258898,307765
1630411828216,35705,258902,307795
1630411828226,35730,258952,307824
1630411828236,35761,258996,307806
1630411828246,35785,259012,307784
1630411828256,35807,259045,307844
1630411828266,35837,259064,307860
1630411828276,35853,259105,307874
1630411828286,35886,259155,307881
1630411828296,35920,259180,307907
1630411828306,35946,259232,307919
1630411828316,35981,259198,307889
1630411828326,36012,259257,307918
1630411828336,36035,259305,307934
1630411828346,36065,259321,307921
1630411828356,36108,259338,307957
1630411828366,36137,259388,307965
1630411828376,36167,259433,308011
1630411828386,36201,259442,308020
1630411828396,36232,259475,308009
1630411828406,36258,259509,307986
