timestamp,green,ir,red
1630411793130,64137,340348,391312
1630411793140,64116,340344,391271
1630411793150,64111,340372,391279
1630411793160,64092,340365,391312
1630411793170,64074,340418,391278
1630411793180,64065,340389,391237
1630411793190,64054,340365,391263
1630411793200,64066,340373,391291
1630411793210,64063,340385,391272
1630411793220,64064,340415,391275
1630411793230,64058,340396,391338
1630411793240,64066,340422,391301
1630411793250,64063,340401,391263
1630411793260,64059,340415,391276
1630411793270,64086,340448,391368
1630411793280,64098,340417,391305
1630411793290,64122,340511,391356
1630411793300,64137,340495,391347
1630411793310,64150,340474,391303
1630411793320,64181,340517,391345
1630411793330,64191,340533,391371
1630411793340,64215,340520,391357
1630411793350,64235,340524,391406
1630411793360,64269,340548,391374
1630411793370,64290,340596,391360
1630411793380,64336,340623,391375
1630411793390,64350,340632,391361
1630411793400,64394,340583,391413
1630411793410,64424,340630,391413
1630411793420,64458,340649,391414
1630411793430,64494,340685,391403
1630411793440,64528,340623,391406
1630411793450,64575,340703,391460
1630411793460,64613,340691,391454
1630411793470,64647,340782,391472
1630411793480,64674,340734,391522
1630411793490,64721,340759,391468
1630411793500,64750,340784,391483
1630411793510,64790,340799,391466
1630411793520,64827,340842,391528
1630411793530,64875,340828,391510
1630411793540,64918,340827,391537
1630411793550,64961,340877,391579
1630411793560,65008,340904,391561
1630411793570,65054,340944,391583
1630411793580,65091,340932,391571
1630411793590,65136,340946,391603
1630411793600,65184,340953,391605
1630411793610,65231,341011,391626
1630411793620,65287,341053,391645
1630411793630,65322,341031,391657
1630411793640,65364,341043,391647
1630411793650,65407,341062,391603
1630411793660,65417,341028,391636
1630411793670,65401,341051,391629
1630411793680,65373,340935,391624
1630411793690,65324,340931,391630
1630411793700,65269,340867,391553
1630411793710,65214,340838,391602
1630411793720,65170,340844,391567
1630411793730,65135,340807,391542
1630411793740,65090,340767,391554
1630411793750,65041,340783,391543
1630411793760,65001,340743,391532
1630411793770,64965,340717,391457
1630411793780,64919,340696,391464
1630411793790,64885,340663,391501
1630411793800,64831,340683,391470
1630411793810,64795,340589,391469
1630411793820,64749,340610,391427
1630411793830,64698,340656,391456
1630411793840,64657,340577,391425
1630411793850,64626,340565,391442
1630411793860,64581,340578,391412
1630411793870,64551,340605,391437
1630411793880,64545,340557,391400
1630411793890,64530,340550,391451
1630411793900,64521,340545,391391
1630411793910,64499,340598,391444
1630411793920,64492,340579,391376
1630411793930,64494,340590,391438
1630411793940,64474,340609,391458
1630411793950,64473,340559,391414
1630411793960,64462,340614,391400
1630411793970,64459,340572,391452
1630411793980,64432,340540,391461
1630411793990,64450,340608,391436
1630411794000,64433,340590,391432
1630411794010,64436,340608,391399
1630411794020,64441,340634,391412
1630411794030,64444,340582,391452
1630411794040,64458,340612,391421
1630411794050,64461,340636,391437
1630411794060,64478,340638,391468
1630411794070,64499,340663,391457
1630411794080,64512,340677,391475
1630411794090,64538,340710,391482
1630411794100,64561,340747,391485
1630411794110,64580,340749,391491
1630411794120,64613,340772,391538
1630411794130,64636,340796,391537
1630411794140,64665,340820,391508
1630411794150,64683,340880,391541
1630411794160,64725,340851,391550
1630411794170,64741,340872,391512
1630411794180,64786,340879,391554
1630411794190,64829,340883,391595
1630411794200,64873,340866,391591
1630411794210,64901,340946,391587
1630411794220,64942,340930,391568
1630411794230,64966,340948,391602
1630411794240,64995,340972,391627
1630411794250,65042,340959,391608
1630411794260,65083,341052,391661
1630411794270,65109,341065,391684
1630411794280,65164,341040,391678
1630411794290,65208,341086,391712
1630411794300,65242,341136,391683
1630411794310,65283,341134,391687
1630411794320,65325,341143,391678
1630411794330,65383,341139,391700
1630411794340,65415,341136,391731
1630411794350,65454,341191,391711
1630411794360,65517,341214,391768
1630411794370,65548,341251,391761
1630411794380,65603,341242,391756
1630411794390,65645,341297,391759
1630411794400,65686,341298,391784
1630411794410,65730,341367,391777
1630411794420,65786,341347,391827
1630411794430,65841,341373,391839
1630411794440,65888,341364,391813
1630411794450,65933,341402,391798
1630411794460,65987,341453,391843
1630411794470,66030,341450,391857
1630411794480,66060,341480,391843
1630411794490,66090,341452,391832
1630411794500,66113,341458,391870
1630411794510,66081,341439,391805
1630411794520,66040,341378,391788
1630411794530,65987,341337,391779
1630411794540,65940,341252,391740
1630411794550,65865,341214,391752
1630411794560,65812,341192,391788
1630411794570,65758,341148,391683
1630411794580,65711,341197,391706
1630411794590,65662,341136,391689
1630411794600,65591,341137,391667
1630411794610,65548,341103,391647
1630411794620,65487,341052,391631
1630411794630,65411,341028,391583
1630411794640,65344,341016,391627
1630411794650,65293,340993,391639
1630411794660,65232,340929,391590
1630411794670,65157,340917,391613
1630411794680,65100,340954,391543
1630411794690,65052,340854,391574
1630411794700,64996,340911,391570
1630411794710,64938,340895,391522
1630411794720,64878,340879,391559
1630411794730,64844,340901,391521
1630411794740,64815,340899,391567
1630411794750,64787,340896,391517
1630411794760,64763,340871,391525
1630411794770,64742,340877,391542
1630411794780,64726,340925,391550
1630411794790,64695,340915,391544
1630411794800,64661,340888,391516
1630411794810,64645,340898,391522
1630411794820,64622,340921,391567
1630411794830,64621,340899,391539
1630411794840,64599,340918,391523
1630411794850,64584,340917,391543
1630411794860,64562,340960,391591
1630411794870,64568,340937,391562
1630411794880,64547,340957,391600
1630411794890,64561,340954,391592
1630411794900,64545,340932,391599
1630411794910,64557,341002,391598
1630411794920,64562,340992,391586
1630411794930,64569,340951,391574
1630411794940,64570,341019,391609
1630411794950,64581,341055,391661
1630411794960,64597,341068,391633
1630411794970,64601,341139,391588
1630411794980,64612,341116,391576
1630411794990,64638,341128,391568
1630411795000,64648,341109,391587
1630411795010,64654,341130,391565
1630411795020,64661,341126,391563
1630411795030,64670,341124,391589
1630411795040,64678,341223,391641
1630411795050,64683,341233,391601
1630411795060,64704,341231,391585
1630411795070,64702,341285,391586
1630411795080,64716,341268,391614
1630411795090,64732,341358,391587
1630411795100,64737,341340,391594
1630411795110,64748,341367,391605
1630411795120,64753,341388,391584
1630411795130,64766,341353,391629
1630411795140,64794,341398,391619
1630411795150,64811,341448,391592
1630411795160,64820,341417,391624
1630411795170,64834,341441,391650
1630411795180,64854,341416,391644
1630411795190,64869,341424,391628
1630411795200,64890,341381,391662
1630411795210,64903,341433,391626
1630411795220,64915,341412,391691
1630411795230,64927,341427,391667
1630411795240,64954,341447,391663
1630411795250,64975,341432,391634
1630411795260,64985,341453,391617
1630411795270,65005,341485,391627
1630411795280,65025,341490,391651
1630411795290,65050,341530,391667
1630411795300,65063,341496,391679
1630411795310,65097,341539,391661
1630411795320,65076,341506,391656
1630411795330,65058,341439,391643
1630411795340,65030,341374,391606
1630411795350,64965,341336,391593
1630411795360,64891,341270,391528
1630411795370,64816,341246,391521
1630411795380,64750,341210,391535
1630411795390,64694,341157,391485
1630411795400,64633,341109,391441
1630411795410,64560,341133,391398
1630411795420,64527,341091,391377
1630411795430,64475,341027,391397
1630411795440,64420,341018,391386
1630411795450,64381,341050,391344
1630411795460,64335,341116,391354
1630411795470,64289,341091,391369
1630411795480,64247,341080,391373
1630411795490,64219,341073,391368
1630411795500,64184,341080,391392
1630411795510,64155,341042,391413
1630411795520,64126,341053,391369
1630411795530,64099,341067,391405
1630411795540,64072,341041,391477
1630411795550,64054,341064,391467
1630411795560,64054,341008,391511
1630411795570,64043,341000,391521
1630411795580,64053,340980,391552
1630411795590,64052,340991,391593
1630411795600,64046,341030,391575
1630411795610,64034,341019,391642
1630411795620,64036,341047,391649
1630411795630,64039,341048,391657
1630411795640,64050,341074,391664
1630411795650,64048,341110,391664
1630411795660,64055,341062,391717
1630411795670,64060,341132,391763
1630411795680,64087,341174,391720
1630411795690,64074,341163,391752
1630411795700,64101,341199,391787
1630411795710,64106,341224,391799
1630411795720,64132,341239,391799
1630411795730,64152,341279,391856
1630411795740,64176,341204,391887
1630411795750,64185,341241,391851
1630411795760,64212,341332,391920
1630411795770,64227,341308,391958
1630411795780,64253,341309,391974
1630411795790,64277,341380,391976
1630411795800,64311,341365,391983
1630411795810,64330,341418,392015
1630411795820,64361,341408,392008
1630411795830,64400,341426,392004
1630411795840,64414,341433,392043
1630411795850,64459,341411,392080
1630411795860,64484,341465,392106
1630411795870,64512,341445,392112
1630411795880,64555,341476,392141
1630411795890,64585,341496,392163
1630411795900,64633,341536,392180
1630411795910,64643,341554,392190
1630411795920,64677,341549,392206
1630411795930,64719,341594,392240
1630411795940,64757,341551,392236
1630411795950,64785,341586,392265
1630411795960,64828,341556,392273
1630411795970,64860,341606,392276
1630411795980,64900,341616,392283
1630411795990,64930,341599,392272
1630411796000,64969,341647,392270
1630411796010,64996,341680,392284
1630411796020,65031,341733,392291
1630411796030,65073,341769,392279
1630411796040,65111,341747,392312
1630411796050,65143,341713,392303
1630411796060,65146,341710,392292
1630411796070,65144,341703,392264
1630411796080,65098,341670,392232
1630411796090,65050,341665,392211
1630411796100,64996,341678,392215
1630411796110,64948,341578,392186
1630411796120,64893,341602,392162
1630411796130,64865,341534,392186
1630411796140,64825,341497,392170
1630411796150,64798,341488,392187
1630411796160,64735,341510,392153
1630411796170,64702,341476,392153
1630411796180,64659,341470,392146
1630411796190,64628,341435,392163
1630411796200,64601,341415,392143
1630411796210,64568,341384,392138
1630411796220,64542,341403,392171
1630411796230,64488,341344,392152
1630411796240,64446,341344,392169
1630411796250,64419,341361,392174
1630411796260,64395,341357,392150
1630411796270,64371,341333,392095
1630411796280,64361,341349,392144
1630411796290,64380,341322,392145
1630411796300,64363,341377,392201
1630411796310,64371,341376,392165
1630411796320,64358,341362,392149
1630411796330,64357,341328,392168
1630411796340,64348,341341,392159
1630411796350,64343,341360,392156
1630411796360,64343,341321,392150
1630411796370,64346,341306,392181
1630411796380,64336,341294,392161
1630411796390,64334,341317,392120
1630411796400,64328,341344,392176
1630411796410,64337,341362,392143
1630411796420,64347,341404,392159
1630411796430,64345,341405,392168
1630411796440,64353,341378,392178
1630411796450,64369,341431,392167
1630411796460,64380,341433,392116
1630411796470,64409,341410,392173
1630411796480,64418,341465,392158
1630411796490,64452,341468,392183
1630411796500,64467,341486,392170
1630411796510,64488,341451,392167
1630411796520,64514,341471,392191
1630411796530,64530,341515,392158
1630411796540,64577,341512,392228
1630411796550,64603,341531,392222
1630411796560,64627,341564,392226
1630411796570,64660,341575,392211
1630411796580,64695,341611,392261
1630411796590,64733,341628,392231
1630411796600,64764,341640,392292
1630411796610,64815,341648,392287
1630411796620,64858,341617,392289
1630411796630,64882,341690,392324
1630411796640,64920,341715,392327
1630411796650,64971,341740,392301
1630411796660,64998,341797,392336
1630411796670,65041,341731,392392
1630411796680,65089,341798,392373
1630411796690,65126,341843,392352
1630411796700,65165,341849,392408
1630411796710,65214,341838,392397
1630411796720,65254,341869,392417
1630411796730,65300,341902,392455
1630411796740,65358,341882,392376
1630411796750,65380,341918,392396
1630411796760,65434,342001,392462
1630411796770,65467,341961,392490
1630411796780,65498,341946,392479
1630411796790,65492,341914,392470
1630411796800,65495,341911,392420
1630411796810,65440,341854,392376
1630411796820,65382,341788,392365
1630411796830,65312,341704,392361
1630411796840,65260,341712,392346
1630411796850,65207,341690,392310
1630411796860,65162,341644,392312
1630411796870,65110,341604,392272
1630411796880,65059,341639,392262
1630411796890,65002,341600,392278
1630411796900,64946,341565,392249
1630411796910,64888,341542,392256
1630411796920,64849,341482,392245
1630411796930,64808,341534,392268
1630411796940,64761,341500,392247
1630411796950,64703,341462,392251
1630411796960,64679,341475,392247
1630411796970,64632,341469,392258
1630411796980,64577,341451,392268
1630411796990,64549,341437,392245
1630411797000,64526,341440,392271
1630411797010,64491,341445,392286
1630411797020,64480,341439,392286
1630411797030,64487,341491,392285
1630411797040,64482,341504,392310
1630411797050,64489,341479,392319
1630411797060,64485,341463,392331
1630411797070,64489,341470,392319
1630411797080,64485,341513,392371
1630411797090,64495,341505,392368
1630411797100,64478,341539,392390
1630411797110,64488,341503,392366
1630411797120,64492,341497,392396
1630411797130,64485,341586,392374
1630411797140,64491,341523,392434
1630411797150,64503,341559,392402
1630411797160,64511,341545,392363
1630411797170,64527,341546,392424
1630411797180,64542,341601,392443
1630411797190,64552,341591,392411
1630411797200,64575,341624,392428
1630411797210,64599,341640,392423
1630411797220,64614,341624,392442
1630411797230,64637,341692,392464
1630411797240,64672,341698,392476
1630411797250,64695,341690,392472
1630411797260,64740,341695,392459
1630411797270,64773,341695,392448
1630411797280,64804,341757,392501
1630411797290,64839,341769,392517
1630411797300,64874,341772,392531
1630411797310,64921,341800,392556
1630411797320,64946,341804,392566
1630411797330,64997,341854,392552
1630411797340,65036,341834,392569
1630411797350,65080,341850,392571
1630411797360,65107,341942,392613
1630411797370,65143,341924,392585
1630411797380,65185,341882,392612
1630411797390,65234,341932,392623
1630411797400,65272,342015,392608
1630411797410,65319,342000,392679
1630411797420,65369,342040,392649
1630411797430,65417,342032,392652
1630411797440,65464,342029,392694
1630411797450,65506,342114,392675
1630411797460,65547,342151,392695
1630411797470,65600,342104,392696
1630411797480,65647,342123,392789
1630411797490,65713,342145,392756
1630411797500,65753,342143,392733
1630411797510,65779,342163,392778
1630411797520,65814,342148,392777
1630411797530,65835,342182,392794
1630411797540,65828,342124,392759
1630411797550,65804,342050,392763
1630411797560,65742,342034,392703
1630411797570,65686,342006,392710
1630411797580,65628,341900,392702
1630411797590,65568,341892,392677
1630411797600,65504,341849,392667
1630411797610,65457,341820,392662
1630411797620,65398,341813,392662
1630411797630,65348,341813,392582
1630411797640,65299,341758,392589
1630411797650,65246,341732,392629
1630411797660,65186,341684,392597
1630411797670,65131,341685,392573
1630411797680,65072,341636,392562
1630411797690,65012,341666,392535
1630411797700,64972,341632,392484
1630411797710,64918,341655,392480
1630411797720,64860,341593,392492
1630411797730,64809,341575,392413
1630411797740,64778,341591,392417
1630411797750,64744,341594,392481
1630411797760,64724,341600,392457
1630411797770,64702,341604,392492
1630411797780,64705,341609,392454
1630411797790,64678,341636,392443
1630411797800,64672,341631,392446
1630411797810,64668,341667,392486
1630411797820,64678,341649,392463
1630411797830,64654,341616,392454
1630411797840,64649,341652,392491
1630411797850,64638,341624,392524
1630411797860,64646,341671,392554
1630411797870,64636,341667,392494
1630411797880,64637,341711,392524
1630411797890,64634,341691,392549
1630411797900,64649,341730,392577
1630411797910,64671,341723,392559
1630411797920,64688,341728,392593
1630411797930,64693,341766,392603
1630411797940,64734,341776,392615
1630411797950,64751,341796,392604
1630411797960,64772,341782,392609
1630411797970,64796,341834,392677
1630411797980,64827,341843,392609
1630411797990,64843,341862,392702
1630411798000,64882,341842,392632
1630411798010,64912,341845,392682
1630411798020,64953,341912,392706
1630411798030,64974,341888,392754
1630411798040,65006,341940,392764
1630411798050,65051,341983,392780
1630411798060,65105,341968,392791
1630411798070,65140,341996,392805
1630411798080,65173,342051,392787
1630411798090,65229,342018,392802
1630411798100,65260,342024,392851
1630411798110,65305,342057,392845
1630411798120,65345,342090,392833
1630411798130,65389,342057,392859
1630411798140,65451,342121,392864
1630411798150,65478,342154,392901
1630411798160,65532,342165,392944
1630411798170,65563,342207,392955
1630411798180,65604,342170,392932
1630411798190,65658,342184,392987
1630411798200,65705,342237,393006
1630411798210,65741,342250,392938
1630411798220,65798,342252,392986
1630411798230,65855,342305,392974
1630411798240,65907,342353,392992
1630411798250,65943,342364,393021
1630411798260,66006,342396,393063
1630411798270,66048,342454,393069
1630411798280,66103,342381,393093
1630411798290,66151,342482,393086
1630411798300,66186,342446,393114
1630411798310,66205,342446,393101
1630411798320,66197,342375,393121
1630411798330,66183,342343,393083
1630411798340,66140,342325,393104
1630411798350,66082,342297,393086
1630411798360,66037,342227,393070
1630411798370,65971,342233,393054
1630411798380,65921,342167,393057
1630411798390,65876,342209,393013
1630411798400,65835,342124,393017
1630411798410,65796,342119,393033
1630411798420,65752,342118,393021
1630411798430,65694,342038,393036
1630411798440,65643,341952,392972
1630411798450,65591,341975,393000
1630411798460,65538,341970,392956
1630411798470,65477,341945,393001
1630411798480,65440,341853,392954
1630411798490,65382,341909,392915
1630411798500,65336,341929,392917
1630411798510,65277,341844,392914
1630411798520,65252,341856,392898
1630411798530,65221,341800,392891
1630411798540,65188,341808,392936
1630411798550,65169,341851,392886
1630411798560,65158,341777,392890
1630411798570,65134,341769,392842
1630411798580,65116,341839,392893
1630411798590,65117,341799,392856
1630411798600,65092,341781,392892
1630411798610,65072,341763,392854
1630411798620,65073,341805,392876
1630411798630,65052,341815,392910
1630411798640,65067,341789,392880
1630411798650,65062,341793,392833
1630411798660,65060,341770,392844
1630411798670,65061,341807,392874
1630411798680,65048,341801,392884
1630411798690,65069,341831,392922
1630411798700,65074,341845,392894
1630411798710,65082,341842,392872
1630411798720,65099,341851,392938
1630411798730,65115,341891,392944
1630411798740,65140,341855,392924
1630411798750,65163,341859,392903
1630411798760,65176,341893,392950
1630411798770,65196,341902,392926
1630411798780,65236,341943,392957
1630411798790,65259,341929,392945
1630411798800,65290,341967,392959
1630411798810,65323,341965,392966
1630411798820,65365,341997,392967
1630411798830,65386,342017,393016
1630411798840,65426,342027,393008
1630411798850,65459,342018,393071
1630411798860,65511,342055,393005
1630411798870,65539,342066,393009
1630411798880,65575,342112,393056
1630411798890,65634,342147,393073
1630411798900,65673,342176,393090
1630411798910,65704,342148,393141
1630411798920,65739,342178,393063
1630411798930,65788,342223,393149
1630411798940,65841,342266,393177
1630411798950,65887,342239,393137
1630411798960,65909,342237,393153
1630411798970,65972,342266,393165
1630411798980,66019,342286,393192
1630411798990,66066,342344,393241
1630411799000,66117,342410,393292
1630411799010,66187,342435,393304
1630411799020,66248,342501,393360
1630411799030,66302,342511,393357
1630411799040,66370,342540,393409
1630411799050,66430,342610,393413
1630411799060,66467,342593,393489
1630411799070,66543,342671,393463
1630411799080,66574,342708,393483
1630411799090,66608,342646,393506
1630411799100,66614,342632,393517
1630411799110,66586,342634,393506
1630411799120,66566,342547,393483
1630411799130,66504,342547,393466
1630411799140,66451,342480,393445
1630411799150,66413,342472,393425
1630411799160,66364,342462,393415
1630411799170,66338,342376,393422
1630411799180,66289,342345,393389
1630411799190,66256,342366,393408
1630411799200,66216,342306,393414
1630411799210,66165,342378,393392
1630411799220,66144,342284,393348
1630411799230,66090,342270,393376
1630411799240,66043,342267,393309
1630411799250,65999,342254,393306
1630411799260,65960,342243,393299
1630411799270,65933,342234,393312
1630411799280,65877,342228,393301
1630411799290,65855,342171,393296
1630411799300,65825,342183,393273
1630411799310,65815,342168,393260
1630411799320,65804,342132,393275
1630411799330,65788,342209,393287
1630411799340,65789,342208,393280
1630411799350,65786,342208,393263
1630411799360,65797,342199,393304
1630411799370,65794,342247,393299
1630411799380,65780,342250,393286
1630411799390,65800,342235,393350
1630411799400,65797,342230,393328
1630411799410,65799,342264,393352
1630411799420,65804,342272,393355
1630411799430,65816,342301,393394
1630411799440,65837,342340,393395
1630411799450,65862,342321,393457
1630411799460,65874,342408,393438
1630411799470,65901,342363,393415
1630411799480,65927,342398,393455
1630411799490,65951,342467,393482
1630411799500,65970,342412,393494
1630411799510,66011,342446,393474
1630411799520,66039,342493,393499
1630411799530,66071,342523,393542
1630411799540,66103,342537,393506
1630411799550,66143,342559,393503
1630411799560,66161,342541,393510
1630411799570,66193,342594,393545
1630411799580,66223,342579,393544
1630411799590,66269,342625,393552
1630411799600,66310,342568,393553
1630411799610,66358,342661,393557
1630411799620,66394,342679,393579
1630411799630,66441,342652,393516
1630411799640,66473,342671,393610
1630411799650,66521,342750,393604
1630411799660,66554,342729,393630
1630411799670,66593,342736,393614
1630411799680,66640,342785,393684
1630411799690,66678,342769,393640
1630411799700,66717,342743,393656
1630411799710,66760,342833,393687
1630411799720,66787,342817,393697
1630411799730,66856,342827,393675
1630411799740,66879,342825,393672
1630411799750,66930,342861,393682
1630411799760,66971,342816,393685
1630411799770,67020,342914,393713
1630411799780,67063,342896,393709
1630411799790,67111,342883,393730
1630411799800,67154,342937,393699
1630411799810,67202,342943,393740
1630411799820,67230,342893,393704
1630411799830,67245,342870,393683
1630411799840,67245,342887,393672
1630411799850,67215,342835,393642
1630411799860,67182,342767,393644
1630411799870,67135,342683,393582
1630411799880,67042,342670,393624
1630411799890,67007,342630,393579
1630411799900,66942,342561,393530
1630411799910,66880,342558,393524
1630411799920,66829,342509,393537
1630411799930,66767,342487,393457
1630411799940,66709,342475,393454
1630411799950,66644,342438,393506
1630411799960,66574,342399,393448
1630411799970,66505,342314,393481
1630411799980,66446,342336,393433
1630411799990,66374,342312,393378
1630411800000,66302,342269,393414
1630411800010,66247,342260,393349
1630411800020,66161,342189,393352
1630411800030,66113,342179,393410
1630411800040,66063,342153,393351
1630411800050,65997,342171,393312
1630411800060,65959,342181,393307
1630411800070,65921,342169,393310
1630411800080,65889,342185,393343
1630411800090,65870,342170,393308
1630411800100,65857,342205,393328
1630411800110,65841,342270,393361
1630411800120,65822,342217,393356
1630411800130,65815,342253,393357
1630411800140,65794,342266,393349
1630411800150,65794,342263,393358
1630411800160,65781,342291,393361
1630411800170,65764,342310,393353
1630411800180,65767,342351,393385
1630411800190,65772,342324,393400
1630411800200,65779,342376,393431
1630411800210,65778,342396,393365
1630411800220,65787,342435,393392
1630411800230,65791,342424,393446
1630411800240,65800,342350,393425
1630411800250,65826,342476,393473
1630411800260,65834,342498,393458
1630411800270,65860,342510,393456
1630411800280,65886,342504,393465
1630411800290,65914,342534,393474
1630411800300,65938,342589,393490
1630411800310,65952,342589,393479
1630411800320,65997,342550,393502
1630411800330,66015,342634,393509
1630411800340,66040,342674,393539
1630411800350,66071,342640,393528
1630411800360,66107,342640,393573
1630411800370,66145,342698,393572
1630411800380,66164,342749,393588
1630411800390,66206,342757,393615
1630411800400,66241,342773,393585
1630411800410,66276,342745,393643
1630411800420,66322,342809,393606
1630411800430,66359,342849,393656
1630411800440,66403,342813,393649
1630411800450,66433,342872,393690
1630411800460,66477,342903,393678
1630411800470,66506,342959,393697
1630411800480,66540,342949,393701
1630411800490,66598,342970,393730
1630411800500,66639,342981,393757
1630411800510,66681,342987,393743
1630411800520,66723,342945,393740
1630411800530,66764,343053,393749
1630411800540,66811,343070,393815
1630411800550,66855,343132,393807
1630411800560,66912,343114,393816
1630411800570,66947,343170,393846
1630411800580,66999,343134,393865
1630411800590,67018,343136,393849
1630411800600,67037,343102,393831
1630411800610,67030,343150,393818
1630411800620,66985,343057,393813
1630411800630,66938,343005,393812
1630411800640,66879,342934,393822
1630411800650,66810,342943,393788
1630411800660,66748,342880,393789
1630411800670,66696,342853,393716
1630411800680,66634,342812,393699
1630411800690,66570,342796,393695
1630411800700,66497,342755,393702
1630411800710,66422,342744,393666
1630411800720,66354,342757,393634
1630411800730,66281,342697,393628
1630411800740,66223,342708,393635
1630411800750,66131,342625,393590
1630411800760,66057,342612,393558
1630411800770,65968,342591,393563
1630411800780,65892,342587,393530
1630411800790,65818,342564,393514
1630411800800,65740,342575,393526
1630411800810,65668,342551,393515
1630411800820,65608,342484,393484
1630411800830,65569,342507,393488
1630411800840,65515,342547,393433
1630411800850,65487,342479,393482
1630411800860,65446,342498,393473
1630411800870,65400,342525,393440
1630411800880,65390,342482,393414
1630411800890,65357,342489,393378
1630411800900,65326,342522,393375
1630411800910,65294,342486,393402
1630411800920,65264,342467,393407
1630411800930,65255,342490,393361
1630411800940,65228,342476,393376
1630411800950,65217,342463,393342
1630411800960,65201,342463,393343
1630411800970,65198,342425,393338
1630411800980,65194,342459,393361
1630411800990,65201,342513,393359
1630411801000,65216,342518,393374
1630411801010,65225,342536,393385
1630411801020,65235,342490,393350
1630411801030,65259,342505,393367
1630411801040,65262,342550,393369
1630411801050,65295,342587,393395
1630411801060,65330,342607,393420
1630411801070,65347,342598,393453
1630411801080,65370,342566,393432
1630411801090,65404,342593,393433
1630411801100,65418,342684,393467
1630411801110,65448,342673,393460
1630411801120,65477,342678,393502
1630411801130,65495,342717,393505
1630411801140,65532,342739,393544
1630411801150,65554,342767,393541
1630411801160,65583,342798,393546
1630411801170,65609,342831,393535
1630411801180,65626,342813,393567
1630411801190,65651,342871,393572
1630411801200,65681,342879,393595
1630411801210,65699,342911,393572
1630411801220,65734,342963,393606
1630411801230,65764,342951,393624
1630411801240,65783,342959,393624
1630411801250,65810,343002,393593
1630411801260,65835,343006,393655
1630411801270,65861,343092,393643
1630411801280,65888,343060,393638
1630411801290,65920,343040,393655
1630411801300,65960,343111,393689
1630411801310,65988,343149,393685
1630411801320,66021,343064,393648
1630411801330,66067,343106,393672
1630411801340,66111,343070,393643
1630411801350,66126,343074,393597
1630411801360,66167,343081,393623
1630411801370,66206,343040,393623
1630411801380,66262,343016,393658
1630411801390,66295,343078,393662
1630411801400,66305,343005,393651
1630411801410,66299,342964,393629
1630411801420,66256,342949,393549
1630411801430,66201,342879,393536
1630411801440,66163,342753,393519
1630411801450,66118,342713,393488
1630411801460,66068,342682,393466
1630411801470,66014,342614,393455
1630411801480,65978,342602,393447
1630411801490,65928,342627,393470
1630411801500,65896,342537,393407
1630411801510,65838,342550,393376
1630411801520,65789,342450,393356
1630411801530,65731,342417,393371
1630411801540,65678,342380,393316
1630411801550,65624,342334,393279
1630411801560,65581,342313,393238
1630411801570,65519,342254,393228
1630411801580,65462,342231,393207
1630411801590,65428,342167,393195
1630411801600,65371,342147,393137
1630411801610,65328,342110,393164
1630411801620,65298,342116,393160
1630411801630,65272,342079,393106
1630411801640,65257,342061,393163
1630411801650,65230,342096,393138
1630411801660,65239,342080,393119
1630411801670,65209,342047,393073
1630411801680,65207,342051,393075
1630411801690,65195,342029,393071
1630411801700,65172,342052,393102
1630411801710,65164,342042,393099
1630411801720,65144,342008,393092
1630411801730,65136,342023,393050
1630411801740,65128,342014,393062
1630411801750,65110,342022,393068
1630411801760,65121,342004,393034
1630411801770,65124,341979,393082
1630411801780,65125,341997,393088
1630411801790,65143,342030,393045
1630411801800,65152,342026,393047
1630411801810,65180,342037,393084
1630411801820,65189,342046,393087
1630411801830,65184,342087,393088
1630411801840,65207,342076,393068
1630411801850,65221,342090,393061
1630411801860,65260,342088,393084
1630411801870,65274,342130,393067
1630411801880,65304,342155,393106
1630411801890,65327,342142,393101
1630411801900,65345,342111,393087
1630411801910,65382,342112,393132
1630411801920,65418,342168,393155
1630411801930,65435,342205,393140
1630411801940,65472,342216,393167
1630411801950,65505,342253,393172
1630411801960,65539,342225,393178
1630411801970,65576,342233,393180
1630411801980,65611,342258,393211
1630411801990,65642,342248,393178
1630411802000,65675,342229,393172
1630411802010,65715,342323,393198
1630411802020,65754,342342,393213
1630411802030,65796,342373,393210
1630411802040,65840,342331,393235
1630411802050,65870,342391,393260
1630411802060,65930,342386,393256
1630411802070,65964,342450,393223
1630411802080,65993,342438,393284
1630411802090,66043,342487,393313
1630411802100,66083,342470,393278
1630411802110,66139,342487,393294
1630411802120,66198,342519,393307
1630411802130,66240,342492,393339
1630411802140,66273,342575,393359
1630411802150,66314,342557,393327
1630411802160,66321,342550,393335
1630411802170,66324,342538,393315
1630411802180,66292,342466,393318
1630411802190,66254,342440,393298
1630411802200,66198,342394,393299
1630411802210,66142,342374,393259
1630411802220,66078,342368,393235
1630411802230,66041,342288,393237
1630411802240,65989,342246,393199
1630411802250,65931,342244,393150
1630411802260,65887,342174,393201
1630411802270,65857,342232,393186
1630411802280,65807,342174,393178
1630411802290,65755,342151,393163
1630411802300,65712,342122,393165
1630411802310,65649,342138,393155
1630411802320,65608,342092,393140
1630411802330,65549,342080,393102
1630411802340,65496,342050,393115
1630411802350,65460,342022,393075
1630411802360,65414,342036,393090
1630411802370,65388,342038,393085
1630411802380,65369,342011,393084
1630411802390,65346,341968,393088
1630411802400,65325,342047,393029
1630411802410,65313,342026,393060
1630411802420,65307,342019,393060
1630411802430,65309,342053,393081
1630411802440,65271,341983,393062
1630411802450,65265,341985,393049
1630411802460,65254,341985,393105
1630411802470,65221,341966,393082
1630411802480,65228,341977,393040
1630411802490,65220,341937,393006
1630411802500,65199,341987,393022
1630411802510,65205,341996,393039
1630411802520,65194,341968,393088
1630411802530,65201,341996,393039
1630411802540,65204,341959,393023
1630411802550,65219,341940,393040
1630411802560,65223,341952,393035
1630411802570,65229,341977,392998
1630411802580,65238,341986,393071
1630411802590,65268,341994,392980
1630411802600,65277,341980,393024
1630411802610,65310,341988,393033
1630411802620,65308,342042,393043
1630411802630,65330,342041,393035
1630411802640,65361,342048,393094
1630411802650,65383,342032,393041
1630411802660,65412,342090,393021
1630411802670,65441,342093,393085
1630411802680,65480,342106,393082
1630411802690,65498,342100,393075
1630411802700,65537,342126,393087
1630411802710,65561,342172,393087
1630411802720,65598,342192,393077
1630411802730,65638,342096,393101
1630411802740,65670,342163,393137
1630411802750,65704,342164,393119
1630411802760,65755,342179,393160
1630411802770,65788,342252,393130
1630411802780,65816,342257,393163
1630411802790,65871,342236,393142
1630411802800,65904,342285,393161
1630411802810,65933,342260,393191
1630411802820,65976,342334,393200
1630411802830,66030,342341,393203
1630411802840,66083,342323,393202
1630411802850,66118,342331,393189
1630411802860,66153,342337,393177
1630411802870,66188,342414,393266
1630411802880,66211,342368,393192
1630411802890,66209,342351,393226
1630411802900,66182,342295,393164
1630411802910,66131,342250,393170
1630411802920,66086,342189,393115
1630411802930,66041,342177,393141
1630411802940,65970,342102,393090
1630411802950,65911,342125,393070
1630411802960,65863,342070,393060
1630411802970,65809,342030,393052
1630411802980,65755,342017,393031
1630411802990,65699,341938,393043
1630411803000,65648,341985,393021
1630411803010,65600,341929,392987
1630411803020,65533,341897,392993
1630411803030,65493,341846,393001
1630411803040,65425,341851,392949
1630411803050,65364,341779,392960
1630411803060,65304,341818,392947
1630411803070,65248,341813,392910
1630411803080,65211,341740,392932
1630411803090,65159,341731,392917
1630411803100,65134,341738,392941
1630411803110,65099,341807,392900
1630411803120,65072,341717,392929
1630411803130,65058,341761,392907
1630411803140,65045,341748,392903
1630411803150,65023,341749,392891
1630411803160,65011,341727,392898
1630411803170,64993,341685,392888
1630411803180,64967,341708,392882
1630411803190,64957,341739,392905
1630411803200,64925,341747,392909
1630411803210,64909,341704,392835
1630411803220,64901,341700,392902
1630411803230,64901,341725,392850
1630411803240,64907,341692,392839
1630411803250,64888,341741,392816
1630411803260,64905,341762,392806
1630411803270,64905,341690,392873
1630411803280,64914,341739,392879
1630411803290,64920,341748,392865
1630411803300,64945,341797,392873
1630411803310,64948,341792,392872
1630411803320,64970,341789,392915
1630411803330,65001,341804,392874
1630411803340,65016,341824,392904
1630411803350,65037,341797,392880
1630411803360,65077,341840,392908
1630411803370,65090,341878,392935
1630411803380,65114,341915,392924
1630411803390,65151,341904,392910
1630411803400,65194,341916,392958
1630411803410,65226,341884,392924
1630411803420,65252,341973,392913
1630411803430,65289,341968,392958
1630411803440,65335,341935,392988
1630411803450,65371,342037,392980
1630411803460,65411,342053,392992
1630411803470,65439,342018,393042
1630411803480,65479,342071,393000
1630411803490,65509,342112,393003
1630411803500,65548,342033,393016
1630411803510,65602,342124,393052
1630411803520,65639,342128,393058
1630411803530,65684,342172,393051
1630411803540,65726,342152,393053
1630411803550,65775,342198,393105
1630411803560,65804,342229,393077
1630411803570,65870,342221,393085
1630411803580,65903,342209,393106
1630411803590,65954,342236,393115
1630411803600,65980,342301,393102
1630411803610,66028,342274,393128
1630411803620,66056,342307,393121
1630411803630,66068,342221,393123
1630411803640,66044,342183,393082
1630411803650,66005,342154,393109
1630411803660,65950,342081,393098
1630411803670,65879,342069,393069
1630411803680,65828,342039,393001
1630411803690,65766,341991,393018
1630411803700,65708,341955,392987
1630411803710,65644,341959,393014
1630411803720,65586,341882,392984
1630411803730,65540,341865,392932
1630411803740,65474,341825,392957
1630411803750,65412,341806,392925
1630411803760,65326,341764,392936
1630411803770,65263,341717,392904
1630411803780,65204,341727,392899
1630411803790,65133,341637,392896
1630411803800,65065,341628,392819
1630411803810,64994,341615,392873
1630411803820,64937,341632,392809
1630411803830,64884,341599,392795
1630411803840,64831,341535,392784
1630411803850,64780,341557,392783
1630411803860,64730,341516,392791
1630411803870,64716,341545,392818
1630411803880,64682,341507,392731
1630411803890,64678,341483,392821
1630411803900,64665,341550,392779
1630411803910,64638,341516,392843
1630411803920,64619,341486,392781
1630411803930,64589,341478,392794
1630411803940,64569,341534,392767
1630411803950,64537,341486,392742
1630411803960,64525,341471,392775
1630411803970,64520,341505,392792
1630411803980,64510,341485,392741
1630411803990,64503,341451,392750
1630411804000,64503,341516,392777
1630411804010,64507,341530,392748
1630411804020,64495,341519,392729
1630411804030,64510,341515,392773
1630411804040,64530,341559,392759
1630411804050,64535,341554,392807
1630411804060,64550,341545,392814
1630411804070,64571,341523,392767
1630411804080,64582,341579,392773
1630411804090,64594,341579,392814
1630411804100,64625,341569,392771
1630411804110,64640,341528,392840
1630411804120,64655,341570,392797
1630411804130,64696,341593,392816
1630411804140,64717,341635,392801
1630411804150,64741,341591,392833
1630411804160,64779,341650,392841
1630411804170,64808,341662,392855
1630411804180,64857,341688,392887
1630411804190,64878,341658,392838
1630411804200,64908,341691,392880
1630411804210,64948,341703,392915
1630411804220,64984,341700,392863
1630411804230,65022,341731,392915
1630411804240,65056,341748,392879
1630411804250,65079,341717,392874
1630411804260,65139,341762,392910
1630411804270,65175,341805,392899
1630411804280,65204,341806,392978
1630411804290,65236,341797,393006
1630411804300,65285,341844,393011
1630411804310,65339,341832,393008
1630411804320,65383,341883,393069
1630411804330,65426,341890,393071
1630411804340,65472,341923,393073
1630411804350,65502,341955,393074
1630411804360,65550,341948,393077
1630411804370,65564,341963,393121
1630411804380,65572,341913,393096
1630411804390,65565,341912,393064
1630411804400,65525,341812,393087
1630411804410,65465,341816,393084
1630411804420,65398,341721,393023
1630411804430,65332,341709,392982
1630411804440,65268,341691,392982
1630411804450,65212,341619,392988
1630411804460,65150,341565,392974
1630411804470,65092,341614,392973
1630411804480,65021,341511,392921
1630411804490,64968,341462,392976
1630411804500,64887,341462,392907
1630411804510,64821,341399,392877
1630411804520,64748,341383,392866
1630411804530,64679,341379,392822
1630411804540,64625,341323,392861
1630411804550,64548,341274,392822
1630411804560,64474,341207,392768
1630411804570,64413,341189,392761
1630411804580,64339,341184,392757
1630411804590,64284,341170,392756
1630411804600,64235,341176,392756
1630411804610,64214,341187,392788
1630411804620,64189,341145,392778
1630411804630,64165,341155,392793
1630411804640,64141,341106,392819
1630411804650,64119,341133,392779
1630411804660,64081,341156,392730
1630411804670,64056,341072,392756
1630411804680,64044,341115,392770
1630411804690,64019,341106,392770
1630411804700,64007,341109,392710
1630411804710,64000,341069,392730
1630411804720,63972,341038,392737
1630411804730,63959,341065,392738
1630411804740,63954,341056,392735
1630411804750,63954,341084,392775
1630411804760,63948,341040,392764
1630411804770,63957,341049,392735
1630411804780,63965,341085,392795
1630411804790,63970,341090,392807
1630411804800,63985,341170,392766
1630411804810,64003,341099,392750
1630411804820,64014,341086,392741
1630411804830,64028,341099,392783
1630411804840,64045,341148,392793
1630411804850,64100,341165,392788
1630411804860,64105,341138,392793
1630411804870,64136,341178,392815
1630411804880,64160,341224,392812
1630411804890,64184,341197,392855
1630411804900,64212,341255,392822
1630411804910,64243,341253,392837
1630411804920,64260,341298,392905
1630411804930,64298,341304,392892
1630411804940,64324,341311,392901
1630411804950,64358,341315,392921
1630411804960,64388,341322,392917
1630411804970,64424,341291,392884
1630411804980,64455,341347,392904
1630411804990,64492,341310,392928
1630411805000,64524,341406,392962
1630411805010,64564,341431,392970
1630411805020,64602,341459,392980
1630411805030,64651,341407,392970
1630411805040,64689,341446,392965
1630411805050,64738,341502,392998
1630411805060,64783,341530,392981
1630411805070,64841,341529,393048
1630411805080,64882,341563,393039
1630411805090,64924,341601,393061
1630411805100,64968,341636,393079
1630411805110,65005,341647,393098
1630411805120,65029,341609,393087
1630411805130,65032,341625,393105
1630411805140,64986,341507,393113
1630411805150,64946,341494,393103
1630411805160,64894,341417,393072
1630411805170,64808,341434,393011
1630411805180,64756,341354,393016
1630411805190,64702,341343,393010
1630411805200,64660,341297,392994
1630411805210,64585,341297,392978
1630411805220,64545,341232,392957
1630411805230,64498,341208,392983
1630411805240,64436,341154,392947
1630411805250,64394,341147,392933
1630411805260,64327,341134,392955
1630411805270,64264,341057,392927
1630411805280,64220,341037,392907
1630411805290,64143,341012,392867
1630411805300,64098,340987,392889
1630411805310,64042,340978,392838
1630411805320,63987,340978,392888
1630411805330,63951,340948,392814
1630411805340,63926,340958,392852
1630411805350,63928,340931,392816
1630411805360,63915,340940,392812
1630411805370,63882,340992,392808
1630411805380,63886,340986,392800
1630411805390,63859,340932,392820
1630411805400,63837,340918,392814
1630411805410,63820,340902,392809
1630411805420,63797,340911,392809
1630411805430,63794,340891,392803
1630411805440,63777,340916,392821
1630411805450,63771,340937,392828
1630411805460,63771,340931,392825
1630411805470,63768,340917,392835
1630411805480,63762,340938,392806
1630411805490,63773,340856,392837
1630411805500,63775,340935,392817
1630411805510,63779,340969,392851
1630411805520,63810,340939,392831
1630411805530,63816,340946,392827
1630411805540,63824,340956,392846
1630411805550,63856,340992,392839
1630411805560,63875,340976,392851
1630411805570,63897,340998,392859
1630411805580,63916,340995,392892
1630411805590,63946,341070,392890
1630411805600,63987,341061,392865
1630411805610,64025,341074,392885
1630411805620,64046,341120,392922
1630411805630,64082,341156,392892
1630411805640,64120,341165,392940
1630411805650,64150,341132,392955
1630411805660,64196,341188,392965
1630411805670,64222,341201,392944
1630411805680,64269,341149,392984
1630411805690,64291,341190,392980
1630411805700,64339,341222,392971
1630411805710,64386,341233,393028
1630411805720,64408,341249,393051
1630411805730,64451,341231,393002
1630411805740,64505,341268,393041
1630411805750,64533,341292,393048
1630411805760,64576,341348,393047
1630411805770,64620,341407,393066
1630411805780,64673,341362,393127
1630411805790,64717,341396,393076
1630411805800,64751,341388,393115
1630411805810,64793,341452,393141
1630411805820,64842,341474,393157
1630411805830,64879,341480,393141
1630411805840,64933,341420,393108
1630411805850,64957,341447,393194
1630411805860,64954,341459,393161
1630411805870,64943,341424,393139
1630411805880,64873,341346,393124
1630411805890,64809,341320,393132
1630411805900,64757,341231,393073
1630411805910,64669,341144,393053
1630411805920,64582,341178,393029
1630411805930,64511,341146,393020
1630411805940,64452,341058,393043
1630411805950,64382,341021,393001
1630411805960,64292,340959,392991
1630411805970,64223,340919,392915
1630411805980,64132,340821,392906
1630411805990,64056,340879,392953
1630411806000,63975,340804,392890
1630411806010,63862,340745,392863
1630411806020,63800,340686,392885
1630411806030,63712,340681,392829
1630411806040,63635,340609,392845
1630411806050,63529,340557,392764
1630411806060,63464,340582,392814
1630411806070,63387,340522,392740
1630411806080,63318,340540,392716
1630411806090,63273,340518,392763
1630411806100,63231,340541,392719
1630411806110,63201,340487,392728
1630411806120,63173,340456,392715
1630411806130,63142,340473,392706
1630411806140,63108,340507,392733
1630411806150,63077,340449,392691
1630411806160,63045,340385,392695
1630411806170,63029,340439,392679
1630411806180,63008,340418,392683
1630411806190,62983,340403,392645
1630411806200,62962,340421,392653
1630411806210,62929,340404,392670
1630411806220,62924,340408,392691
1630411806230,62931,340411,392693
1630411806240,62918,340463,392649
1630411806250,62931,340432,392663
1630411806260,62932,340402,392662
1630411806270,62943,340452,392683
1630411806280,62954,340507,392689
1630411806290,62951,340481,392670
1630411806300,62981,340533,392695
1630411806310,63004,340514,392725
1630411806320,63035,340564,392694
1630411806330,63051,340560,392718
1630411806340,63076,340531,392725
1630411806350,63110,340575,392735
1630411806360,63125,340605,392762
1630411806370,63153,340615,392771
1630411806380,63196,340642,392781
1630411806390,63222,340608,392812
1630411806400,63262,340638,392802
1630411806410,63310,340709,392804
1630411806420,63335,340708,392822
1630411806430,63377,340743,392850
1630411806440,63416,340733,392860
1630411806450,63448,340792,392869
1630411806460,63502,340779,392875
1630411806470,63534,340828,392854
1630411806480,63574,340815,392937
1630411806490,63623,340830,392880
1630411806500,63672,340855,392939
1630411806510,63703,340861,392919
1630411806520,63756,340932,392959
1630411806530,63797,340880,392958
1630411806540,63843,340963,392996
1630411806550,63890,340976,392999
1630411806560,63949,340972,393022
1630411806570,64009,340993,393046
1630411806580,64061,341038,393031
1630411806590,64111,341049,393066
1630411806600,64156,341112,393050
1630411806610,64198,341076,393053
1630411806620,64224,341136,393081
1630411806630,64236,341063,393070
1630411806640,64208,341040,393052
1630411806650,64165,340939,392996
1630411806660,64091,340891,392999
1630411806670,64027,340856,392991
1630411806680,63942,340787,392979
1630411806690,63869,340736,392943
1630411806700,63785,340669,392888
1630411806710,63716,340715,392921
1630411806720,63645,340580,392889
1630411806730,63578,340553,392872
1630411806740,63510,340529,392913
1630411806750,63414,340562,392838
1630411806760,63339,340444,392823
1630411806770,63267,340418,392781
1630411806780,63179,340365,392745
1630411806790,63098,340360,392798
1630411806800,63028,340334,392764
1630411806810,62964,340308,392710
1630411806820,62883,340303,392705
1630411806830,62842,340241,392721
1630411806840,62765,340213,392664
1630411806850,62704,340187,392635
1630411806860,62674,340186,392721
1630411806870,62644,340201,392686
1630411806880,62617,340200,392633
1630411806890,62600,340170,392653
1630411806900,62570,340172,392642
1630411806910,62555,340224,392668
1630411806920,62538,340140,392589
1630411806930,62516,340193,392624
1630411806940,62501,340195,392655
1630411806950,62478,340181,392620
1630411806960,62459,340164,392588
1630411806970,62451,340118,392640
1630411806980,62462,340144,392602
1630411806990,62460,340156,392663
1630411807000,62470,340160,392646
1630411807010,62455,340170,392605
1630411807020,62474,340207,392641
1630411807030,62479,340168,392633
1630411807040,62486,340211,392652
1630411807050,62513,340228,392678
1630411807060,62530,340238,392658
1630411807070,62550,340272,392639
1630411807080,62583,340259,392661
1630411807090,62587,340270,392686
1630411807100,62638,340346,392641
1630411807110,62655,340319,392695
1630411807120,62695,340362,392709
1630411807130,62721,340376,392703
1630411807140,62769,340382,392732
1630411807150,62803,340389,392716
1630411807160,62852,340466,392770
1630411807170,62882,340463,392745
1630411807180,62920,340513,392763
1630411807190,62963,340549,392780
1630411807200,63006,340524,392768
1630411807210,63054,340582,392775
1630411807220,63106,340588,392825
1630411807230,63151,340603,392818
1630411807240,63197,340586,392828
1630411807250,63250,340623,392850
1630411807260,63299,340627,392863
1630411807270,63352,340655,392849
1630411807280,63399,340692,392907
1630411807290,63448,340664,392903
1630411807300,63516,340719,392931
1630411807310,63549,340736,392948
1630411807320,63607,340767,392957
1630411807330,63657,340822,392979
1630411807340,63711,340857,392956
1630411807350,63764,340865,392973
1630411807360,63820,340903,393018
1630411807370,63886,340939,393015
1630411807380,63939,340941,393062
1630411807390,64013,340993,393044
1630411807400,64060,340980,393073
1630411807410,64116,341017,393097
1630411807420,64158,341009,393070
1630411807430,64184,340989,393107
1630411807440,64187,340971,393057
1630411807450,64154,340938,393036
1630411807460,64107,340818,393039
1630411807470,64041,340803,392998
1630411807480,63954,340795,393010
1630411807490,63901,340734,392995
1630411807500,63827,340648,392946
1630411807510,63762,340613,392930
1630411807520,63695,340550,392941
1630411807530,63646,340532,392912
1630411807540,63574,340556,392940
1630411807550,63515,340451,392853
1630411807560,63440,340518,392891
1630411807570,63374,340380,392840
1630411807580,63309,340425,392828
1630411807590,63244,340371,392829
1630411807600,63181,340348,392845
1630411807610,63124,340267,392770
1630411807620,63070,340251,392822
1630411807630,62999,340260,392773
1630411807640,62948,340224,392740
1630411807650,62917,340259,392744
1630411807660,62875,340234,392772
1630411807670,62860,340226,392711
1630411807680,62849,340229,392748
1630411807690,62831,340223,392738
1630411807700,62816,340225,392726
1630411807710,62804,340198,392703
1630411807720,62788,340242,392708
1630411807730,62777,340185,392727
1630411807740,62756,340221,392777
1630411807750,62740,340208,392718
1630411807760,62731,340167,392695
1630411807770,62737,340190,392711
1630411807780,62717,340233,392698
1630411807790,62738,340219,392682
1630411807800,62724,340273,392712
1630411807810,62725,340212,392714
1630411807820,62743,340263,392738
1630411807830,62760,340294,392716
1630411807840,62775,340259,392738
1630411807850,62793,340248,392753
1630411807860,62824,340326,392756
1630411807870,62857,340313,392742
1630411807880,62875,340328,392743
1630411807890,62913,340317,392808
1630411807900,62934,340367,392795
1630411807910,62974,340330,392807
1630411807920,63004,340446,392828
1630411807930,63044,340453,392821
1630411807940,63079,340436,392842
1630411807950,63130,340435,392826
1630411807960,63167,340495,392868
1630411807970,63218,340512,392855
1630411807980,63253,340535,392845
1630411807990,63277,340546,392897
1630411808000,63326,340554,392908
1630411808010,63366,340588,392869
1630411808020,63426,340649,392901
1630411808030,63480,340623,392933
1630411808040,63520,340632,392950
1630411808050,63568,340636,392940
1630411808060,63611,340686,392950
1630411808070,63656,340770,392937
1630411808080,63696,340760,392986
1630411808090,63756,340743,393006
1630411808100,63797,340833,393021
1630411808110,63860,340844,393031
1630411808120,63911,340863,393090
1630411808130,63962,340810,393061
1630411808140,64017,340916,393093
1630411808150,64057,340935,393085
1630411808160,64113,340917,393120
1630411808170,64174,340968,393120
1630411808180,64234,340982,393162
1630411808190,64297,341012,393149
1630411808200,64330,341048,393176
1630411808210,64380,341052,393195
1630411808220,64430,341010,393176
1630411808230,64428,341001,393210
1630411808240,64411,340980,393152
1630411808250,64367,340904,393148
1630411808260,64307,340814,393144
1630411808270,64236,340780,393098
1630411808280,64168,340733,393071
1630411808290,64122,340740,393067
1630411808300,64054,340680,393028
1630411808310,64001,340630,393026
1630411808320,63956,340624,392985
1630411808330,63909,340614,393005
1630411808340,63851,340593,392945
1630411808350,63819,340594,392999
1630411808360,63769,340547,392912
1630411808370,63724,340528,392942
1630411808380,63674,340489,392931
1630411808390,63614,340447,392981
1630411808400,63567,340469,392893
1630411808410,63527,340461,392893
1630411808420,63497,340438,392920
1630411808430,63469,340452,392925
1630411808440,63441,340412,392895
1630411808450,63431,340432,392909
1630411808460,63426,340444,392876
1630411808470,63435,340418,392897
1630411808480,63411,340422,392872
1630411808490,63416,340441,392865
1630411808500,63418,340480,392877
1630411808510,63405,340436,392866
1630411808520,63403,340432,392836
1630411808530,63411,340465,392873
1630411808540,63401,340444,392865
1630411808550,63394,340445,392875
1630411808560,63394,340412,392877
1630411808570,63401,340442,392871
1630411808580,63418,340449,392897
1630411808590,63425,340470,392896
1630411808600,63441,340464,392919
1630411808610,63460,340536,392894
1630411808620,63488,340509,392869
1630411808630,63507,340529,392900
1630411808640,63521,340488,392904
1630411808650,63555,340558,392936
1630411808660,63591,340580,392905
1630411808670,63625,340619,392920
1630411808680,63658,340644,392968
1630411808690,63687,340661,392924
1630411808700,63731,340663,392938
1630411808710,63776,340683,392972
1630411808720,63806,340670,392988
1630411808730,63852,340758,392968
1630411808740,63892,340734,393016
1630411808750,63937,340776,393033
1630411808760,63964,340771,393053
1630411808770,64025,340769,393091
1630411808780,64065,340837,393058
1630411808790,64119,340823,393101
1630411808800,64163,340885,393128
1630411808810,64209,340905,393084
1630411808820,64258,340903,393104
1630411808830,64312,340950,393139
1630411808840,64357,340954,393130
1630411808850,64402,340990,393155
1630411808860,64452,340990,393128
1630411808870,64505,340988,393150
1630411808880,64556,341040,393172
1630411808890,64596,341056,393206
1630411808900,64651,341116,393187
1630411808910,64713,341176,393221
1630411808920,64759,341163,393232
1630411808930,64822,341215,393210
1630411808940,64876,341208,393227
1630411808950,64919,341240,393278
1630411808960,64976,341298,393264
1630411808970,65035,341316,393285
1630411808980,65086,341327,393296
1630411808990,65147,341362,393319
1630411809000,65211,341362,393322
1630411809010,65231,341393,393345
1630411809020,65250,341310,393333
1630411809030,65231,341274,393281
1630411809040,65170,341236,393292
1630411809050,65123,341163,393216
1630411809060,65060,341076,393248
1630411809070,65008,341080,393198
1630411809080,64941,341027,393199
1630411809090,64880,341012,393192
1630411809100,64813,340971,393156
1630411809110,64761,340941,393191
1630411809120,64700,340957,393107
1630411809130,64646,340885,393077
1630411809140,64580,340848,393117
1630411809150,64520,340829,393129
1630411809160,64454,340827,393079
1630411809170,64397,340812,393062
1630411809180,64337,340772,393025
1630411809190,64265,340751,393048
1630411809200,64206,340742,393009
1630411809210,64142,340754,393022
1630411809220,64104,340709,392980
1630411809230,64072,340660,392978
1630411809240,64026,340627,392999
1630411809250,64001,340618,392989
1630411809260,63981,340643,392972
1630411809270,63963,340667,392993
1630411809280,63953,340631,392965
1630411809290,63941,340621,392939
1630411809300,63921,340691,392977
1630411809310,63918,340653,392997
1630411809320,63911,340632,392971
1630411809330,63902,340633,392959
1630411809340,63884,340671,392964
1630411809350,63897,340654,392940
1630411809360,63876,340663,392956
1630411809370,63877,340671,392967
1630411809380,63897,340724,392938
1630411809390,63886,340682,392966
1630411809400,63901,340663,392969
1630411809410,63915,340727,392962
1630411809420,63938,340694,392997
1630411809430,63940,340768,392983
1630411809440,63973,340737,392986
1630411809450,63990,340755,392984
1630411809460,64007,340798,392990
1630411809470,64046,340782,393015
1630411809480,64070,340818,393011
1630411809490,64102,340844,393061
1630411809500,64141,340865,393045
1630411809510,64185,340868,393035
1630411809520,64216,340940,393027
1630411809530,64262,340935,393074
1630411809540,64287,340929,393018
1630411809550,64343,340953,393069
1630411809560,64395,340987,393068
1630411809570,64428,341005,393069
1630411809580,64473,341010,393127
1630411809590,64513,341031,393090
1630411809600,64563,341077,393145
1630411809610,64611,341035,393142
1630411809620,64667,341060,393165
1630411809630,64716,341130,393151
1630411809640,64759,341136,393176
1630411809650,64816,341150,393153
1630411809660,64858,341154,393203
1630411809670,64918,341222,393212
1630411809680,64953,341237,393219
1630411809690,65010,341214,393259
1630411809700,65061,341286,393276
1630411809710,65120,341285,393229
1630411809720,65165,341344,393257
1630411809730,65201,341371,393278
1630411809740,65271,341404,393326
1630411809750,65323,341373,393335
1630411809760,65367,341414,393327
1630411809770,65427,341484,393361
1630411809780,65479,341512,393367
1630411809790,65538,341513,393391
1630411809800,65595,341553,393406
1630411809810,65614,341490,393388
1630411809820,65623,341472,393390
1630411809830,65594,341391,393292
1630411809840,65541,341331,393328
1630411809850,65462,341311,393315
1630411809860,65402,341275,393279
1630411809870,65335,341190,393246
1630411809880,65301,341170,393215
1630411809890,65232,341135,393242
1630411809900,65172,341143,393236
1630411809910,65125,341137,393171
1630411809920,65081,341082,393189
1630411809930,65024,341080,393177
1630411809940,64965,341043,393143
1630411809950,64910,341025,393172
1630411809960,64860,341021,393097
1630411809970,64815,341011,393108
1630411809980,64765,340993,393134
1630411809990,64714,340944,393092
1630411810000,64657,340940,393066
1630411810010,64614,340901,393129
1630411810020,64580,340832,393023
1630411810030,64536,340866,393041
1630411810040,64543,340876,393038
1630411810050,64509,340928,393040
1630411810060,64498,340889,393059
1630411810070,64505,340908,393049
1630411810080,64468,340922,393086
1630411810090,64476,340886,393068
1630411810100,64486,340906,393031
1630411810110,64458,340890,393054
1630411810120,64448,340903,393069
1630411810130,64446,340867,393053
1630411810140,64439,340888,393049
1630411810150,64437,340867,392989
1630411810160,64447,340929,393066
1630411810170,64437,340888,393028
1630411810180,64439,340955,393015
1630411810190,64439,340951,393057
1630411810200,64469,340951,393034
1630411810210,64479,340946,393048
1630411810220,64493,340956,393054
1630411810230,64518,341039,393109
1630411810240,64542,341055,393060
1630411810250,64564,340973,393091
1630411810260,64586,341035,393067
1630411810270,64618,341030,393137
1630411810280,64657,341055,393144
1630411810290,64683,341042,393105
1630411810300,64717,341107,393127
1630411810310,64746,341088,393138
1630411810320,64797,341099,393137
1630411810330,64832,341139,393179
1630411810340,64866,341177,393165
1630411810350,64909,341134,393202
1630411810360,64952,341194,393188
1630411810370,65002,341234,393210
1630411810380,65041,341202,393228
1630411810390,65093,341314,393247
1630411810400,65122,341299,393270
1630411810410,65179,341338,393272
1630411810420,65216,341321,393279
1630411810430,65262,341354,393302
1630411810440,65317,341387,393285
1630411810450,65349,341426,393292
1630411810460,65408,341397,393297
1630411810470,65453,341453,393346
1630411810480,65491,341454,393313
1630411810490,65544,341480,393310
1630411810500,65591,341505,393377
1630411810510,65633,341514,393376
1630411810520,65707,341552,393394
1630411810530,65735,341563,393418
1630411810540,65787,341618,393419
1630411810550,65851,341658,393429
1630411810560,65894,341597,393432
1630411810570,65932,341715,393477
1630411810580,65982,341660,393481
1630411810590,66004,341632,393490
1630411810600,66014,341639,393474
1630411810610,65997,341599,393426
1630411810620,65939,341538,393400
1630411810630,65880,341482,393360
1630411810640,65810,341384,393372
1630411810650,65743,341354,393348
1630411810660,65666,341341,393335
1630411810670,65615,341330,393294
1630411810680,65564,341287,393268
1630411810690,65500,341215,393282
1630411810700,65461,341257,393278
1630411810710,65412,341229,393224
1630411810720,65356,341216,393225
1630411810730,65291,341137,393170
1630411810740,65241,341179,393234
1630411810750,65190,341127,393171
1630411810760,65133,341106,393167
1630411810770,65095,341121,393185
1630411810780,65036,341094,393100
1630411810790,64993,341068,393131
1630411810800,64955,341068,393151
1630411810810,64936,341080,393127
1630411810820,64904,341073,393091
1630411810830,64883,341015,393130
1630411810840,64874,341084,393110
1630411810850,64878,341080,393118
1630411810860,64870,341058,393126
1630411810870,64848,341109,393121
1630411810880,64841,341013,393100
1630411810890,64802,341057,393118
1630411810900,64809,341026,393109
1630411810910,64779,341065,393106
1630411810920,64781,341028,393087
1630411810930,64766,341008,393101
1630411810940,64759,341044,393061
1630411810950,64762,341030,393075
1630411810960,64763,341026,393073
1630411810970,64759,341001,393134
1630411810980,64759,341038,393119
1630411810990,64768,341046,393101
1630411811000,64779,341053,393042
1630411811010,64811,341089,393109
1630411811020,64827,341088,393101
1630411811030,64837,341069,393108
1630411811040,64863,341131,393093
1630411811050,64892,341145,393132
1630411811060,64907,341128,393152
1630411811070,64927,341138,393117
1630411811080,64966,341181,393111
1630411811090,64982,341158,393143
1630411811100,65026,341243,393134
1630411811110,65042,341234,393150
1630411811120,65075,341230,393193
1630411811130,65101,341227,393191
1630411811140,65137,341257,393166
1630411811150,65158,341287,393207
1630411811160,65198,341305,393164
1630411811170,65248,341353,393178
1630411811180,65274,341312,393228
1630411811190,65310,341363,393208
1630411811200,65342,341406,393244
1630411811210,65396,341381,393215
1630411811220,65428,341422,393257
1630411811230,65468,341457,393238
1630411811240,65506,341419,393232
1630411811250,65542,341454,393251
1630411811260,65594,341503,393251
1630411811270,65644,341492,393283
1630411811280,65674,341516,393309
1630411811290,65711,341546,393339
1630411811300,65778,341575,393319
1630411811310,65802,341590,393308
1630411811320,65813,341542,393303
1630411811330,65789,341524,393248
1630411811340,65745,341457,393265
1630411811350,65684,341377,393247
1630411811360,65609,341335,393239
1630411811370,65522,341311,393198
1630411811380,65450,341250,393189
1630411811390,65385,341270,393115
1630411811400,65322,341186,393194
1630411811410,65259,341170,393114
1630411811420,65201,341146,393066
1630411811430,65146,341073,393116
1630411811440,65089,341082,393101
1630411811450,65022,341071,393066
1630411811460,64957,341044,393047
1630411811470,64884,340986,393011
1630411811480,64818,341017,393042
1630411811490,64765,340961,393045
1630411811500,64699,340964,392987
1630411811510,64647,340920,392985
1630411811520,64609,340926,392947
1630411811530,64539,340853,392964
1630411811540,64502,340892,392993
1630411811550,64480,340870,392940
1630411811560,64454,340861,392905
1630411811570,64446,340899,392916
1630411811580,64421,340865,392948
1630411811590,64414,340911,392918
1630411811600,64390,340881,392854
1630411811610,64362,340845,392904
1630411811620,64339,340836,392878
1630411811630,64314,340861,392870
1630411811640,64296,340864,392858
1630411811650,64264,340891,392895
1630411811660,64281,340822,392855
1630411811670,64260,340874,392913
1630411811680,64263,340847,392894
1630411811690,64256,340821,392896
1630411811700,64257,340914,392880
1630411811710,64258,340900,392851
1630411811720,64266,340896,392897
1630411811730,64279,340901,392874
1630411811740,64289,340823,392885
1630411811750,64305,340904,392895
1630411811760,64326,340904,392930
1630411811770,64359,340954,392916
1630411811780,64378,340983,392903
1630411811790,64399,341016,392915
1630411811800,64416,340978,392895
1630411811810,64441,340994,392920
1630411811820,64480,341046,392947
1630411811830,64496,341024,392915
1630411811840,64530,341050,392948
1630411811850,64577,341119,392980
1630411811860,64595,341103,392961
1630411811870,64628,341122,392962
1630411811880,64675,341158,393014
1630411811890,64691,341182,393020
1630411811900,64740,341156,393004
1630411811910,64768,341178,392997
1630411811920,64810,341175,393017
1630411811930,64839,341191,393050
1630411811940,64879,341277,393085
1630411811950,64922,341223,393055
1630411811960,64952,341280,393095
1630411811970,64988,341320,393013
1630411811980,65041,341353,393110
1630411811990,65083,341380,393092
1630411812000,65134,341376,393096
1630411812010,65165,341379,393106
1630411812020,65214,341399,393093
1630411812030,65264,341413,393148
1630411812040,65289,341403,393107
1630411812050,65310,341428,393164
1630411812060,65318,341403,393131
1630411812070,65297,341310,393117
1630411812080,65238,341289,393099
1630411812090,65139,341220,393077
1630411812100,65062,341148,393000
1630411812110,64961,341098,393017
1630411812120,64864,341051,393016
1630411812130,64779,341034,392929
1630411812140,64691,340953,392923
1630411812150,64606,340943,392926
1630411812160,64533,340903,392925
1630411812170,64454,340867,392900
1630411812180,64360,340781,392872
1630411812190,64269,340770,392896
1630411812200,64183,340752,392779
1630411812210,64082,340711,392819
1630411812220,63991,340674,392784
1630411812230,63913,340614,392754
1630411812240,63833,340643,392763
1630411812250,63732,340576,392709
1630411812260,63666,340579,392652
1630411812270,63577,340452,392684
1630411812280,63513,340480,392635
1630411812290,63450,340515,392681
1630411812300,63424,340497,392658
1630411812310,63383,340457,392622
1630411812320,63341,340404,392638
1630411812330,63293,340396,392609
1630411812340,63274,340455,392635
1630411812350,63237,340418,392593
1630411812360,63179,340394,392601
1630411812370,63154,340357,392567
1630411812380,63130,340414,392593
1630411812390,63100,340368,392600
1630411812400,63073,340427,392585
1630411812410,63051,340388,392605
1630411812420,63043,340405,392577
1630411812430,63028,340394,392593
1630411812440,63003,340365,392588
1630411812450,63004,340364,392569
1630411812460,62996,340349,392552
1630411812470,63000,340384,392568
1630411812480,63006,340409,392607
1630411812490,63003,340423,392542
1630411812500,63026,340434,392572
1630411812510,63037,340424,392581
1630411812520,63039,340442,392626
1630411812530,63057,340429,392610
1630411812540,63074,340484,392604
1630411812550,63096,340545,392607
1630411812560,63130,340494,392654
1630411812570,63144,340510,392635
1630411812580,63171,340512,392631
1630411812590,63211,340506,392657
1630411812600,63226,340563,392689
1630411812610,63259,340590,392626
1630411812620,63292,340615,392657
1630411812630,63327,340606,392662
1630411812640,63356,340619,392688
1630411812650,63379,340637,392706
1630411812660,63419,340661,392709
1630411812670,63449,340669,392747
1630411812680,63484,340679,392703
1630411812690,63507,340699,392701
1630411812700,63556,340745,392783
1630411812710,63582,340753,392765
1630411812720,63637,340775,392777
1630411812730,63678,340786,392783
1630411812740,63722,340812,392827
1630411812750,63753,340838,392818
1630411812760,63801,340834,392827
1630411812770,63834,340855,392835
1630411812780,63873,340896,392814
1630411812790,63915,340871,392838
1630411812800,63919,340871,392850
1630411812810,63905,340870,392852
1630411812820,63857,340758,392789
1630411812830,63779,340693,392765
1630411812840,63688,340683,392751
1630411812850,63567,340580,392704
1630411812860,63488,340564,392706
1630411812870,63394,340472,392668
1630411812880,63309,340431,392694
1630411812890,63237,340474,392671
1630411812900,63148,340421,392607
1630411812910,63057,340328,392623
1630411812920,62986,340317,392573
1630411812930,62884,340234,392583
1630411812940,62793,340235,392540
1630411812950,62705,340200,392538
1630411812960,62611,340141,392493
1630411812970,62540,340122,392484
1630411812980,62448,340113,392422
1630411812990,62374,340065,392445
1630411813000,62271,339989,392430
1630411813010,62201,339975,392428
1630411813020,62136,340024,392372
1630411813030,62093,339955,392439
1630411813040,62066,339982,392399
1630411813050,62037,339944,392373
1630411813060,62008,339950,392364
1630411813070,61976,339927,392421
1630411813080,61954,339927,392364
1630411813090,61906,339925,392377
1630411813100,61884,339896,392407
1630411813110,61857,339927,392333
1630411813120,61834,339875,392363
1630411813130,61814,339900,392369
1630411813140,61796,339889,392324
1630411813150,61772,339893,392370
1630411813160,61769,339888,392323
1630411813170,61763,339895,392339
1630411813180,61769,339851,392357
1630411813190,61754,339892,392315
1630411813200,61762,339899,392378
1630411813210,61781,339905,392337
1630411813220,61792,339926,392377
1630411813230,61811,339919,392389
1630411813240,61834,339947,392393
1630411813250,61838,339951,392417
1630411813260,61877,339958,392369
1630411813270,61895,339972,392407
1630411813280,61929,340003,392374
1630411813290,61939,339996,392432
1630411813300,61973,340044,392417
1630411813310,61990,340012,392430
1630411813320,62032,340090,392458
1630411813330,62072,340061,392474
1630411813340,62113,340082,392503
1630411813350,62139,340088,392514
1630411813360,62181,340147,392509
1630411813370,62227,340158,392546
1630411813380,62259,340154,392483
1630411813390,62305,340221,392523
1630411813400,62332,340180,392555
1630411813410,62371,340185,392547
1630411813420,62410,340247,392554
1630411813430,62455,340212,392606
1630411813440,62484,340325,392577
1630411813450,62540,340266,392623
1630411813460,62583,340261,392615
1630411813470,62631,340356,392632
1630411813480,62683,340355,392652
1630411813490,62713,340362,392668
1630411813500,62767,340418,392714
1630411813510,62808,340449,392747
1630411813520,62853,340457,392750
1630411813530,62902,340456,392703
1630411813540,62937,340454,392759
1630411813550,62938,340407,392722
1630411813560,62924,340392,392737
1630411813570,62857,340304,392667
1630411813580,62786,340270,392671
1630411813590,62684,340216,392692
1630411813600,62617,340169,392644
1630411813610,62539,340103,392612
1630411813620,62438,340124,392559
1630411813630,62365,340049,392513
1630411813640,62309,340037,392564
1630411813650,62230,339986,392538
1630411813660,62155,339948,392537
1630411813670,62076,339914,392537
1630411813680,61990,339858,392491
1630411813690,61929,339865,392461
1630411813700,61852,339886,392468
1630411813710,61782,339813,392416
1630411813720,61704,339809,392456
1630411813730,61638,339727,392417
1630411813740,61568,339707,392381
1630411813750,61501,339670,392398
1630411813760,61441,339683,392449
1630411813770,61414,339659,392377
1630411813780,61378,339618,392394
1630411813790,61363,339663,392399
1630411813800,61323,339629,392323
1630411813810,61303,339654,392404
1630411813820,61290,339617,392371
1630411813830,61261,339622,392391
1630411813840,61243,339640,392404
1630411813850,61211,339618,392362
1630411813860,61196,339629,392387
1630411813870,61174,339578,392348
1630411813880,61168,339568,392313
1630411813890,61149,339569,392321
1630411813900,61159,339593,392327
1630411813910,61148,339674,392343
1630411813920,61150,339628,392328
1630411813930,61150,339590,392372
1630411813940,61165,339615,392327
1630411813950,61174,339631,392403
1630411813960,61194,339598,392419
1630411813970,61204,339619,392408
1630411813980,61213,339687,392390
1630411813990,61235,339662,392385
1630411814000,61258,339669,392439
1630411814010,61300,339729,392391
1630411814020,61318,339738,392436
1630411814030,61350,339700,392453
1630411814040,61387,339727,392461
1630411814050,61414,339754,392482
1630411814060,61449,339773,392489
1630411814070,61486,339785,392511
1630411814080,61513,339860,392504
1630411814090,61547,339814,392537
1630411814100,61595,339832,392549
1630411814110,61625,339899,392530
1630411814120,61665,339920,392571
1630411814130,61699,339897,392602
1630411814140,61740,339966,392564
1630411814150,61773,339973,392560
1630411814160,61829,339960,392593
1630411814170,61864,339922,392597
1630411814180,61914,340008,392653
1630411814190,61950,339980,392658
1630411814200,61998,340010,392697
1630411814210,62059,340051,392655
1630411814220,62104,340044,392698
1630411814230,62134,340103,392706
1630411814240,62184,340111,392726
1630411814250,62243,340137,392686
1630411814260,62279,340124,392719
1630411814270,62293,340150,392773
1630411814280,62261,340055,392664
1630411814290,62207,340011,392661
1630411814300,62146,340008,392618
1630411814310,62059,339934,392601
1630411814320,61973,339867,392603
1630411814330,61912,339854,392591
1630411814340,61825,339777,392573
1630411814350,61748,339743,392528
1630411814360,61693,339759,392511
1630411814370,61624,339702,392488
1630411814380,61540,339652,392508
1630411814390,61471,339615,392494
1630411814400,61403,339613,392417
1630411814410,61328,339581,392467
1630411814420,61245,339521,392456
1630411814430,61175,339481,392468
1630411814440,61103,339471,392430
1630411814450,61037,339463,392382
1630411814460,60967,339435,392396
1630411814470,60914,339381,392390
1630411814480,60861,339391,392400
1630411814490,60822,339367,392402
1630411814500,60796,339378,392372
1630411814510,60776,339363,392367
1630411814520,60759,339372,392368
1630411814530,60748,339396,392423
1630411814540,60713,339333,392368
1630411814550,60696,339396,392370
1630411814560,60682,339390,392419
1630411814570,60680,339376,392364
1630411814580,60668,339359,392376
1630411814590,60662,339387,392399
1630411814600,60649,339355,392389
1630411814610,60642,339349,392392
1630411814620,60646,339356,392450
1630411814630,60645,339358,392396
1630411814640,60643,339318,392414
1630411814650,60650,339376,392402
1630411814660,60679,339400,392396
1630411814670,60697,339425,392445
1630411814680,60714,339396,392442
1630411814690,60747,339431,392462
1630411814700,60771,339438,392507
1630411814710,60809,339433,392503
1630411814720,60834,339444,392476
1630411814730,60882,339530,392504
1630411814740,60912,339525,392504
1630411814750,60943,339543,392542
1630411814760,60993,339574,392547
1630411814770,61040,339558,392508
1630411814780,61074,339604,392550
1630411814790,61116,339605,392557
1630411814800,61156,339650,392626
1630411814810,61196,339701,392628
1630411814820,61244,339649,392598
1630411814830,61285,339701,392635
1630411814840,61343,339702,392683
1630411814850,61408,339759,392668
1630411814860,61435,339777,392693
1630411814870,61475,339756,392688
1630411814880,61509,339821,392688
1630411814890,61574,339806,392707
1630411814900,61626,339834,392759
1630411814910,61669,339867,392697
1630411814920,61722,339917,392781
1630411814930,61778,339943,392756
1630411814940,61831,339941,392762
1630411814950,61883,339972,392827
1630411814960,61934,340005,392844
1630411814970,61988,340020,392877
1630411814980,62054,340059,392840
1630411814990,62114,340083,392889
1630411815000,62168,340090,392891
1630411815010,62208,340104,392869
1630411815020,62230,340140,392883
1630411815030,62242,340035,392910
1630411815040,62216,340025,392828
1630411815050,62153,339959,392805
1630411815060,62065,339878,392787
1630411815070,61998,339854,392813
1630411815080,61908,339817,392788
1630411815090,61832,339790,392755
1630411815100,61752,339732,392708
1630411815110,61691,339627,392691
1630411815120,61614,339669,392680
1630411815130,61532,339627,392671
1630411815140,61453,339616,392650
1630411815150,61388,339519,392671
1630411815160,61294,339481,392605
1630411815170,61219,339476,392590
1630411815180,61131,339399,392609
1630411815190,61040,339389,392593
1630411815200,60962,339381,392574
1630411815210,60892,339338,392513
1630411815220,60817,339296,392543
1630411815230,60744,339283,392512
1630411815240,60677,339276,392519
1630411815250,60638,339259,392519
1630411815260,60597,339228,392530
1630411815270,60589,339242,392537
1630411815280,60580,339235,392543
1630411815290,60550,339206,392477
1630411815300,60534,339253,392466
1630411815310,60522,339224,392532
1630411815320,60513,339195,392523
1630411815330,60495,339221,392469
1630411815340,60488,339264,392490
1630411815350,60469,339230,392521
1630411815360,60460,339248,392511
1630411815370,60459,339215,392494
1630411815380,60464,339222,392488
1630411815390,60478,339234,392521
1630411815400,60496,339316,392465
1630411815410,60496,339264,392542
1630411815420,60502,339280,392524
1630411815430,60518,339269,392556
1630411815440,60539,339330,392595
1630411815450,60570,339338,392590
1630411815460,60598,339370,392553
1630411815470,60630,339365,392578
1630411815480,60663,339364,392595
1630411815490,60704,339414,392598
1630411815500,60735,339446,392642
1630411815510,60785,339428,392596
1630411815520,60827,339469,392680
1630411815530,60856,339514,392690
1630411815540,60903,339494,392683
1630411815550,60957,339532,392737
1630411815560,60971,339561,392688
1630411815570,61035,339578,392695
1630411815580,61072,339596,392748
1630411815590,61122,339610,392755
1630411815600,61168,339655,392777
1630411815610,61218,339680,392775
1630411815620,61275,339705,392790
1630411815630,61322,339701,392765
1630411815640,61369,339729,392822
1630411815650,61427,339759,392856
1630411815660,61482,339798,392843
1630411815670,61531,339788,392865
1630411815680,61581,339878,392949
1630411815690,61637,339899,392921
1630411815700,61699,339935,392926
1630411815710,61742,339909,392976
1630411815720,61820,340000,392975
1630411815730,61878,340035,392953
1630411815740,61938,340011,393009
1630411815750,62005,340064,393023
1630411815760,62060,340075,393052
1630411815770,62108,340122,393053
1630411815780,62171,340133,393037
1630411815790,62222,340135,393100
1630411815800,62251,340134,393087
1630411815810,62248,340128,393019
1630411815820,62220,340049,393067
1630411815830,62155,340009,393083
1630411815840,62098,339971,392971
1630411815850,62032,339899,392973
1630411815860,61979,339862,392982
1630411815870,61919,339797,392957
1630411815880,61881,339840,392931
1630411815890,61833,339810,392908
1630411815900,61772,339779,392902
1630411815910,61719,339715,392910
1630411815920,61656,339737,392879
1630411815930,61592,339699,392889
1630411815940,61529,339663,392921
1630411815950,61484,339678,392882
1630411815960,61417,339608,392882
1630411815970,61357,339625,392920
1630411815980,61299,339576,392862
1630411815990,61240,339522,392843
1630411816000,61181,339536,392855
1630411816010,61130,339505,392820
1630411816020,61097,339526,392833
1630411816030,61073,339568,392824
1630411816040,61064,339529,392849
1630411816050,61078,339524,392817
1630411816060,61075,339538,392849
1630411816070,61074,339526,392846
1630411816080,61056,339536,392882
1630411816090,61037,339536,392914
1630411816100,61038,339590,392862
1630411816110,61039,339549,392854
1630411816120,61032,339545,392877
1630411816130,61037,339591,392898
1630411816140,61029,339557,392875
1630411816150,61053,339588,392883
1630411816160,61066,339580,392890
1630411816170,61080,339595,392922
1630411816180,61096,339642,392925
1630411816190,61134,339650,392912
1630411816200,61140,339637,392972
1630411816210,61183,339656,392955
1630411816220,61187,339717,392958
1630411816230,61245,339707,392962
1630411816240,61272,339689,393005
1630411816250,61314,339747,392989
1630411816260,61353,339795,392981
1630411816270,61391,339758,393030
1630411816280,61440,339814,392991
1630411816290,61485,339864,393039
1630411816300,61538,339868,393075
1630411816310,61575,339882,393090
1630411816320,61635,339902,393064
1630411816330,61685,339974,393122
1630411816340,61733,339972,393121
1630411816350,61800,340040,393118
1630411816360,61834,340036,393152
1630411816370,61896,340040,393198
1630411816380,61949,340086,393211
1630411816390,62005,340140,393231
1630411816400,62048,340139,393208
1630411816410,62106,340178,393293
1630411816420,62167,340214,393266
1630411816430,62233,340257,393254
1630411816440,62275,340256,393274
1630411816450,62346,340277,393283
1630411816460,62404,340259,393326
1630411816470,62468,340381,393383
1630411816480,62507,340425,393399
1630411816490,62573,340395,393388
1630411816500,62639,340421,393398
1630411816510,62706,340452,393406
1630411816520,62778,340468,393417
1630411816530,62828,340503,393440
1630411816540,62903,340532,393409
1630411816550,62942,340586,393443
1630411816560,63023,340608,393461
1630411816570,63075,340661,393492
1630411816580,63108,340610,393503
1630411816590,63109,340593,393479
1630411816600,63105,340572,393489
1630411816610,63068,340530,393516
1630411816620,63040,340492,393483
1630411816630,62983,340481,393471
1630411816640,62970,340400,393436
1630411816650,62931,340390,393423
1630411816660,62904,340393,393414
1630411816670,62879,340402,393481
1630411816680,62843,340376,393488
1630411816690,62828,340433,393435
1630411816700,62792,340363,393395
1630411816710,62758,340329,393402
1630411816720,62713,340313,393396
1630411816730,62685,340324,393342
1630411816740,62651,340291,393402
1630411816750,62618,340289,393385
1630411816760,62593,340315,393407
1630411816770,62557,340299,393361
1630411816780,62535,340234,393366
1630411816790,62529,340234,393347
1630411816800,62529,340331,393355
1630411816810,62522,340353,393356
1630411816820,62545,340277,393385
1630411816830,62553,340274,393375
1630411816840,62566,340317,393369
1630411816850,62587,340346,393359
1630411816860,62588,340325,393407
1630411816870,62587,340334,393362
1630411816880,62599,340365,393383
1630411816890,62608,340373,393422
1630411816900,62612,340375,393375
1630411816910,62637,340365,393408
1630411816920,62654,340397,393378
1630411816930,62665,340382,393407
1630411816940,62708,340465,393423
1630411816950,62724,340418,393424
1630411816960,62756,340446,393424
1630411816970,62779,340492,393424
1630411816980,62821,340466,393429
1630411816990,62850,340525,393421
1630411817000,62891,340531,393498
1630411817010,62941,340591,393458
1630411817020,62997,340590,393476
1630411817030,63042,340626,393510
1630411817040,63089,340641,393528
1630411817050,63116,340672,393530
1630411817060,63172,340681,393543
1630411817070,63224,340719,393566
1630411817080,63280,340729,393521
1630411817090,63331,340735,393524
1630411817100,63377,340756,393580
1630411817110,63439,340810,393590
1630411817120,63492,340798,393585
1630411817130,63546,340836,393645
1630411817140,63597,340868,393651
1630411817150,63649,340887,393668
1630411817160,63719,340896,393674
1630411817170,63764,341001,393680
1630411817180,63822,340996,393668
1630411817190,63891,341039,393689
1630411817200,63941,341027,393748
1630411817210,63981,341100,393702
1630411817220,64050,341081,393752
1630411817230,64098,341151,393782
1630411817240,64163,341196,393813
1630411817250,64239,341186,393799
1630411817260,64292,341213,393801
1630411817270,64350,341262,393800
1630411817280,64412,341260,393836
1630411817290,64482,341303,393847
1630411817300,64537,341326,393912
1630411817310,64604,341361,393869
1630411817320,64668,341414,393889
1630411817330,64738,341448,393894
1630411817340,64801,341459,393947
1630411817350,64848,341498,393975
1630411817360,64888,341521,393947
1630411817370,64909,341499,393960
1630411817380,64903,341452,393930
1630411817390,64881,341381,393938
1630411817400,64847,341295,393924
1630411817410,64825,341277,393919
1630411817420,64815,341292,393887
1630411817430,64769,341257,393881
1630411817440,64738,341257,393941
1630411817450,64709,341247,393862
1630411817460,64690,341201,393863
1630411817470,64654,341194,393865
1630411817480,64609,341230,393817
1630411817490,64587,341141,393794
1630411817500,64563,341140,393786
1630411817510,64524,341193,393794
1630411817520,64499,341141,393747
1630411817530,64447,341126,393723
1630411817540,64413,341106,393784
1630411817550,64383,341107,393699
1630411817560,64348,341078,393718
1630411817570,64325,341055,393714
1630411817580,64296,341076,393711
1630411817590,64261,341083,393688
1630411817600,64276,341101,393677
1630411817610,64279,341068,393687
1630411817620,64273,341144,393703
1630411817630,64286,341103,393681
1630411817640,64295,341118,393687
1630411817650,64295,341115,393719
1630411817660,64295,341138,393669
1630411817670,64306,341111,393724
1630411817680,64314,341125,393728
1630411817690,64314,341156,393699
1630411817700,64320,341139,393726
1630411817710,64329,341177,393689
1630411817720,64353,341128,393714
1630411817730,64376,341193,393724
1630411817740,64386,341228,393737
1630411817750,64427,341226,393684
1630411817760,64442,341241,393707
1630411817770,64476,341242,393745
1630411817780,64506,341250,393721
1630411817790,64530,341224,393775
1630411817800,64566,341258,393786
1630411817810,64611,341306,393795
1630411817820,64646,341339,393789
1630411817830,64685,341350,393769
1630411817840,64719,341348,393786
1630411817850,64765,341405,393835
1630411817860,64805,341412,393841
1630411817870,64846,341420,393809
1630411817880,64885,341459,393842
1630411817890,64941,341477,393824
1630411817900,64998,341451,393865
1630411817910,65048,341551,393866
1630411817920,65097,341533,393891
1630411817930,65137,341517,393964
1630411817940,65202,341576,393915
1630411817950,65237,341581,393944
1630411817960,65275,341590,393931
1630411817970,65344,341622,393994
1630411817980,65402,341632,393961
1630411817990,65435,341658,393952
1630411818000,65507,341766,394001
1630411818010,65559,341769,393979
1630411818020,65596,341776,394004
1630411818030,65645,341821,394026
1630411818040,65700,341818,394042
1630411818050,65755,341859,394064
1630411818060,65816,341873,394044
1630411818070,65862,341895,394090
1630411818080,65910,341952,394117
1630411818090,65976,341959,394082
1630411818100,66020,341951,394075
1630411818110,66082,342043,394100
1630411818120,66138,342057,394125
1630411818130,66197,342000,394128
1630411818140,66232,342022,394113
1630411818150,66269,342056,394153
1630411818160,66275,342005,394166
1630411818170,66273,341972,394133
1630411818180,66255,341937,394098
1630411818190,66223,341943,394043
1630411818200,66183,341894,394085
1630411818210,66158,341937,394058
1630411818220,66127,341834,394087
1630411818230,66108,341848,394063
1630411818240,66074,341828,394023
1630411818250,66045,341807,394034
1630411818260,66023,341789,394067
1630411818270,65986,341767,394010
1630411818280,65945,341778,393958
1630411818290,65923,341755,393986
1630411818300,65887,341720,394015
1630411818310,65847,341751,394007
1630411818320,65800,341679,393978
1630411818330,65770,341730,393923
1630411818340,65726,341628,393936
1630411818350,65685,341710,393977
1630411818360,65668,341636,393924
1630411818370,65635,341697,393960
1630411818380,65625,341637,393957
1630411818390,65604,341670,393952
1630411818400,65599,341687,393945
1630411818410,65597,341669,393905
1630411818420,65592,341672,393906
1630411818430,65575,341649,393883
1630411818440,65573,341721,393910
1630411818450,65561,341665,393906
1630411818460,65560,341624,393891
1630411818470,65554,341694,393859
1630411818480,65558,341634,393880
1630411818490,65552,341657,393907
1630411818500,65542,341644,393859
1630411818510,65580,341622,393853
1630411818520,65572,341648,393890
1630411818530,65581,341699,393842
1630411818540,65593,341708,393882
1630411818550,65623,341734,393863
1630411818560,65619,341702,393902
1630411818570,65648,341758,393888
1630411818580,65677,341744,393895
1630411818590,65704,341780,393880
1630411818600,65713,341777,393875
1630411818610,65752,341798,393908
1630411818620,65782,341794,393857
1630411818630,65805,341854,393923
1630411818640,65822,341790,393914
1630411818650,65867,341841,393955
1630411818660,65913,341862,393965
1630411818670,65935,341862,393963
1630411818680,65954,341863,393917
1630411818690,66004,341952,393963
1630411818700,66037,341938,393988
1630411818710,66092,341933,393986
1630411818720,66117,341978,394019
1630411818730,66149,341975,394023
1630411818740,66192,342049,393978
1630411818750,66235,342017,394045
1630411818760,66268,342050,394020
1630411818770,66312,342050,394030
1630411818780,66352,342084,394052
1630411818790,66382,342107,394038
1630411818800,66459,342100,394068
1630411818810,66475,342167,394071
1630411818820,66530,342175,394100
1630411818830,66565,342198,394094
1630411818840,66611,342221,394100
1630411818850,66651,342211,394098
1630411818860,66712,342268,394120
1630411818870,66757,342251,394138
1630411818880,66806,342319,394139
1630411818890,66853,342326,394213
1630411818900,66890,342341,394198
1630411818910,66943,342384,394208
1630411818920,66960,342320,394177
1630411818930,66987,342345,394193
1630411818940,66989,342288,394162
1630411818950,66978,342325,394241
1630411818960,66932,342241,394158
1630411818970,66893,342218,394168
1630411818980,66841,342152,394111
1630411818990,66790,342165,394116
1630411819000,66743,342135,394122
1630411819010,66709,342105,394066
1630411819020,66667,342104,394057
1630411819030,66645,342111,394063
1630411819040,66597,342069,394052
1630411819050,66565,342058,394110
1630411819060,66518,342042,394034
1630411819070,66461,342031,394004
1630411819080,66420,342038,393979
1630411819090,66376,341959,393995
1630411819100,66329,341926,394020
1630411819110,66295,341927,394001
1630411819120,66234,341921,393953
1630411819130,66191,341919,393939
1630411819140,66157,341887,393992
1630411819150,66136,341873,393941
1630411819160,66110,341880,393992
1630411819170,66076,341957,393957
1630411819180,66070,341905,393960
1630411819190,66053,341926,393935
1630411819200,66046,341887,393915
1630411819210,66017,341869,393926
1630411819220,66006,341924,393892
1630411819230,65989,341902,393908
1630411819240,65951,341789,393910
1630411819250,65963,341862,393895
1630411819260,65935,341894,393872
1630411819270,65937,341864,393927
1630411819280,65910,341909,393917
1630411819290,65918,341920,393875
1630411819300,65909,341928,393872
1630411819310,65918,341905,393874
1630411819320,65899,341927,393915
1630411819330,65898,341901,393904
1630411819340,65905,341826,393871
1630411819350,65931,341869,393895
1630411819360,65944,341953,393918
1630411819370,65946,341937,393922
1630411819380,65965,341959,393943
1630411819390,65986,341965,393898
1630411819400,66008,341990,393891
1630411819410,66026,342013,393943
1630411819420,66045,342012,393927
1630411819430,66071,342024,393937
1630411819440,66098,342008,393968
1630411819450,66116,342077,393931
1630411819460,66159,342020,393987
1630411819470,66173,342085,393990
1630411819480,66202,342091,393942
1630411819490,66231,342147,393984
1630411819500,66258,342159,393976
1630411819510,66296,342153,393999
1630411819520,66319,342157,394025
1630411819530,66355,342177,393984
1630411819540,66387,342142,394024
1630411819550,66422,342201,394052
1630411819560,66461,342237,394054
1630411819570,66485,342264,394045
1630411819580,66523,342288,394031
1630411819590,66558,342268,394067
1630411819600,66593,342285,394076
1630411819610,66658,342312,394108
1630411819620,66676,342326,394049
1630411819630,66708,342366,394054
1630411819640,66725,342309,394099
1630411819650,66742,342352,394076
1630411819660,66712,342282,394033
1630411819670,66660,342250,394026
1630411819680,66611,342180,394022
1630411819690,66539,342199,394011
1630411819700,66478,342104,393975
1630411819710,66401,342091,393983
1630411819720,66341,342114,393973
1630411819730,66283,342074,393941
1630411819740,66221,342015,393945
1630411819750,66181,342033,393921
1630411819760,66112,342023,393965
1630411819770,66052,341907,393906
1630411819780,65986,341960,393887
1630411819790,65938,341962,393866
1630411819800,65864,341929,393862
1630411819810,65807,341883,393846
1630411819820,65751,341857,393813
1630411819830,65702,341846,393821
1630411819840,65633,341814,393772
1630411819850,65584,341843,393736
1630411819860,65540,341830,393791
1630411819870,65514,341791,393759
1630411819880,65481,341797,393756
1630411819890,65464,341758,393742
1630411819900,65450,341816,393744
1630411819910,65422,341795,393755
1630411819920,65400,341787,393751
1630411819930,65362,341761,393695
1630411819940,65344,341700,393731
1630411819950,65333,341764,393663
1630411819960,65294,341769,393756
1630411819970,65271,341792,393692
1630411819980,65254,341788,393730
1630411819990,65242,341768,393697
1630411820000,65247,341797,393685
1630411820010,65227,341752,393710
1630411820020,65239,341801,393698
1630411820030,65241,341772,393720
1630411820040,65239,341779,393677
1630411820050,65244,341787,393714
1630411820060,65252,341835,393700
1630411820070,65247,341839,393665
1630411820080,65267,341870,393660
1630411820090,65295,341830,393712
1630411820100,65306,341883,393706
1630411820110,65333,341862,393718
1630411820120,65359,341902,393723
1630411820130,65385,341945,393748
1630411820140,65406,341939,393768
1630411820150,65429,341969,393771
1630411820160,65445,341968,393750
1630411820170,65487,341967,393759
1630411820180,65508,341990,393764
1630411820190,65533,341972,393729
1630411820200,65573,342056,393819
1630411820210,65609,342028,393765
1630411820220,65625,342065,393793
1630411820230,65657,342049,393796
1630411820240,65698,342098,393794
1630411820250,65731,342091,393811
1630411820260,65766,342147,393858
1630411820270,65818,342083,393786
1630411820280,65854,342132,393799
1630411820290,65892,342140,393861
1630411820300,65927,342158,393868
1630411820310,65964,342187,393871
1630411820320,66021,342225,393836
1630411820330,66063,342262,393892
1630411820340,66105,342238,393880
1630411820350,66150,342312,393906
1630411820360,66169,342257,393888
1630411820370,66172,342242,393914
1630411820380,66141,342225,393884
1630411820390,66111,342162,393857
1630411820400,66049,342102,393872
1630411820410,65965,342075,393845
1630411820420,65877,342075,393763
1630411820430,65797,342030,393780
1630411820440,65730,342003,393748
1630411820450,65648,341962,393753
1630411820460,65589,341897,393719
1630411820470,65484,341844,393716
1630411820480,65409,341820,393688
1630411820490,65333,341779,393648
1630411820500,65249,341774,393624
1630411820510,65164,341710,393650
1630411820520,65071,341709,393604
1630411820530,64983,341679,393603
1630411820540,64876,341690,393545
1630411820550,64796,341603,393510
1630411820560,64734,341576,393517
1630411820570,64644,341569,393531
1630411820580,64581,341523,393499
1630411820590,64510,341469,393484
1630411820600,64443,341452,393480
1630411820610,64401,341470,393482
1630411820620,64354,341474,393454
1630411820630,64329,341474,393464
1630411820640,64296,341466,393470
1630411820650,64264,341507,393433
1630411820660,64239,341436,393458
1630411820670,64207,341464,393456
1630411820680,64181,341413,393491
1630411820690,64154,341389,393443
1630411820700,64119,341429,393437
1630411820710,64105,341407,393415
1630411820720,64091,341430,393384
1630411820730,64064,341403,393419
1630411820740,64062,341402,393434
1630411820750,64035,341416,393402
1630411820760,64034,341443,393395
1630411820770,64040,341424,393430
1630411820780,64049,341419,393425
1630411820790,64050,341444,393406
1630411820800,64059,341496,393419
1630411820810,64076,341461,393382
1630411820820,64093,341483,393429
1630411820830,64124,341482,393406
1630411820840,64120,341450,393395
1630411820850,64157,341470,393447
1630411820860,64184,341513,393404
1630411820870,64209,341546,393456
1630411820880,64230,341586,393453
1630411820890,64249,341531,393511
1630411820900,64299,341604,393468
1630411820910,64336,341599,393483
1630411820920,64350,341573,393477
1630411820930,64384,341612,393469
1630411820940,64417,341615,393482
1630411820950,64450,341666,393530
1630411820960,64482,341645,393506
1630411820970,64521,341666,393540
1630411820980,64572,341702,393566
1630411820990,64607,341715,393558
1630411821000,64635,341721,393557
1630411821010,64662,341768,393585
1630411821020,64709,341764,393599
1630411821030,64747,341812,393609
1630411821040,64802,341846,393605
1630411821050,64847,341829,393636
1630411821060,64878,341832,393669
1630411821070,64918,341877,393618
1630411821080,64959,341893,393690
1630411821090,64980,341866,393679
1630411821100,65003,341910,393678
1630411821110,64978,341868,393675
1630411821120,64924,341772,393640
1630411821130,64859,341732,393643
1630411821140,64789,341632,393553
1630411821150,64704,341643,393535
1630411821160,64614,341613,393560
1630411821170,64552,341544,393532
1630411821180,64469,341553,393507
1630411821190,64393,341494,393508
1630411821200,64317,341486,393455
1630411821210,64255,341476,393483
1630411821220,64184,341437,393450
1630411821230,64113,341374,393424
1630411821240,64029,341369,393426
1630411821250,63950,341326,393342
1630411821260,63868,341310,393383
1630411821270,63811,341288,393358
1630411821280,63729,341230,393354
1630411821290,63648,341234,393378
1630411821300,63592,341239,393331
1630411821310,63512,341137,393314
1630411821320,63484,341165,393298
1630411821330,63447,341127,393313
1630411821340,63411,341112,393345
1630411821350,63387,341154,393321
1630411821360,63375,341100,393291
1630411821370,63361,341148,393317
1630411821380,63318,341151,393331
1630411821390,63321,341129,393361
1630411821400,63307,341149,393300
1630411821410,63280,341111,393340
1630411821420,63255,341114,393295
1630411821430,63243,341145,393348
1630411821440,63235,341113,393333
1630411821450,63231,341102,393316
1630411821460,63219,341073,393344
1630411821470,63216,341105,393344
1630411821480,63217,341114,393342
1630411821490,63246,341128,393334
1630411821500,63245,341174,393388
1630411821510,63259,341153,393365
1630411821520,63261,341183,393348
1630411821530,63289,341186,393369
1630411821540,63317,341191,393363
1630411821550,63343,341201,393352
1630411821560,63350,341244,393393
1630411821570,63387,341233,393441
1630411821580,63414,341240,393372
1630411821590,63439,341298,393395
1630411821600,63498,341281,393430
1630411821610,63523,341245,393445
1630411821620,63557,341326,393453
1630411821630,63595,341291,393444
1630411821640,63638,341352,393491
1630411821650,63676,341329,393478
1630411821660,63699,341343,393490
1630411821670,63736,341374,393514
1630411821680,63775,341410,393533
1630411821690,63827,341394,393489
1630411821700,63864,341461,393506
1630411821710,63890,341427,393549
1630411821720,63946,341469,393564
1630411821730,63980,341518,393559
1630411821740,64013,341566,393559
1630411821750,64064,341511,393581
1630411821760,64101,341524,393623
1630411821770,64160,341582,393585
1630411821780,64210,341582,393630
1630411821790,64255,341570,393642
1630411821800,64298,341623,393658
1630411821810,64362,341592,393636
1630411821820,64397,341614,393623
1630411821830,64427,341682,393664
1630411821840,64425,341633,393666
1630411821850,64418,341570,393644
1630411821860,64388,341520,393650
1630411821870,64301,341474,393570
1630411821880,64228,341401,393584
1630411821890,64159,341377,393576
1630411821900,64091,341368,393589
1630411821910,64032,341312,393527
1630411821920,63955,341345,393510
1630411821930,63901,341321,393512
1630411821940,63853,341289,393502
1630411821950,63780,341248,393522
1630411821960,63732,341247,393510
1630411821970,63673,341193,393461
1630411821980,63607,341131,393445
1630411821990,63538,341174,393446
1630411822000,63469,341107,393416
1630411822010,63415,341127,393403
1630411822020,63353,341070,393395
1630411822030,63315,341058,393379
1630411822040,63261,341044,393399
1630411822050,63227,341006,393391
1630411822060,63205,341038,393384
1630411822070,63181,341019,393361
1630411822080,63174,341060,393374
1630411822090,63158,341025,393407
1630411822100,63151,341006,393391
1630411822110,63131,341065,393355
1630411822120,63110,341022,393389
1630411822130,63101,340979,393363
1630411822140,63089,340991,393359
1630411822150,63081,341022,393348
1630411822160,63072,340962,393373
1630411822170,63058,340989,393388
1630411822180,63061,340986,393334
1630411822190,63073,340924,393340
1630411822200,63064,341003,393337
1630411822210,63088,341028,393355
1630411822220,63090,341014,393338
1630411822230,63093,341027,393339
1630411822240,63113,341066,393395
1630411822250,63141,341060,393353
1630411822260,63167,341089,393406
1630411822270,63182,341061,393407
1630411822280,63214,341091,393379
1630411822290,63249,341133,393407
1630411822300,63274,341150,393418
1630411822310,63303,341146,393445
1630411822320,63341,341106,393400
1630411822330,63364,341168,393441
1630411822340,63406,341172,393493
1630411822350,63460,341220,393435
1630411822360,63501,341235,393437
1630411822370,63537,341260,393458
1630411822380,63580,341236,393481
1630411822390,63604,341315,393498
1630411822400,63657,341306,393493
1630411822410,63698,341300,393556
1630411822420,63731,341326,393557
1630411822430,63783,341334,393561
1630411822440,63834,341362,393563
1630411822450,63872,341387,393624
1630411822460,63928,341398,393600
1630411822470,63976,341412,393610
1630411822480,64022,341422,393563
1630411822490,64072,341485,393590
1630411822500,64120,341482,393626
1630411822510,64171,341515,393649
1630411822520,64224,341510,393682
1630411822530,64268,341576,393682
1630411822540,64304,341520,393688
1630411822550,64308,341514,393670
1630411822560,64283,341498,393613
1630411822570,64237,341431,393615
1630411822580,64183,341404,393691
1630411822590,64111,341336,393591
1630411822600,64063,341333,393601
1630411822610,63999,341263,393577
1630411822620,63938,341251,393584
1630411822630,63870,341253,393560
1630411822640,63822,341237,393534
1630411822650,63762,341217,393491
1630411822660,63707,341145,393479
1630411822670,63648,341143,393510
1630411822680,63575,341109,393492
1630411822690,63507,341062,393484
1630411822700,63457,341029,393476
1630411822710,63387,341025,393434
1630411822720,63324,341018,393408
1630411822730,63274,340917,393408
1630411822740,63213,340937,393408
1630411822750,63163,340946,393370
1630411822760,63117,340948,393380
1630411822770,63095,340913,393384
1630411822780,63090,340942,393389
1630411822790,63078,340972,393387
1630411822800,63066,340902,393347
1630411822810,63061,340921,393386
1630411822820,63046,340904,393397
1630411822830,63027,340873,393342
1630411822840,63012,340886,393344
1630411822850,62991,340897,393373
1630411822860,62996,340928,393375
1630411822870,62980,340879,393338
1630411822880,62982,340875,393370
1630411822890,62974,340922,393356
1630411822900,62982,340875,393331
1630411822910,62991,340903,393289
1630411822920,63006,340942,393353
1630411822930,63009,340925,393328
1630411822940,63036,340882,393380
1630411822950,63048,340968,393366
1630411822960,63072,340945,393369
1630411822970,63086,340938,393357
1630411822980,63114,340999,393412
1630411822990,63155,341027,393370
1630411823000,63178,341038,393397
1630411823010,63236,341037,393404
1630411823020,63265,341066,393406
1630411823030,63292,341080,393465
1630411823040,63326,341096,393427
1630411823050,63363,341091,393487
1630411823060,63415,341131,393462
1630411823070,63456,341111,393481
1630411823080,63503,341188,393512
1630411823090,63534,341171,393461
1630411823100,63584,341225,393525
1630411823110,63630,341211,393518
1630411823120,63680,341241,393522
1630411823130,63722,341227,393519
1630411823140,63757,341279,393581
1630411823150,63818,341307,393566
1630411823160,63870,341327,393575
1630411823170,63908,341306,393580
1630411823180,63950,341365,393585
1630411823190,63993,341373,393607
1630411823200,64049,341381,393593
1630411823210,64090,341417,393622
1630411823220,64160,341462,393654
1630411823230,64207,341438,393675
1630411823240,64259,341507,393669
1630411823250,64324,341534,393671
1630411823260,64365,341581,393751
1630411823270,64408,341578,393684
1630411823280,64433,341537,393713
1630411823290,64426,341554,393706
1630411823300,64399,341465,393674
1630411823310,64363,341408,393630
1630411823320,64309,341332,393656
1630411823330,64221,341331,393627
1630411823340,64152,341281,393615
1630411823350,64111,341241,393606
1630411823360,64039,341193,393575
1630411823370,63976,341218,393577
1630411823380,63916,341185,393521
1630411823390,63849,341205,393559
1630411823400,63794,341137,393537
1630411823410,63728,341063,393513
1630411823420,63651,341083,393528
1630411823430,63590,341045,393486
1630411823440,63519,341009,393471
1630411823450,63453,340992,393453
1630411823460,63413,340957,393465
1630411823470,63347,340922,393478
1630411823480,63278,340898,393441
1630411823490,63215,340868,393374
1630411823500,63189,340885,393358
1630411823510,63161,340825,393388
1630411823520,63123,340824,393389
1630411823530,63088,340883,393367
1630411823540,63084,340819,393354
1630411823550,63068,340845,393384
1630411823560,63058,340843,393351
1630411823570,63046,340864,393349
1630411823580,63045,340847,393383
1630411823590,63019,340871,393350
1630411823600,63017,340842,393345
1630411823610,63001,340837,393337
1630411823620,63003,340859,393357
1630411823630,63002,340843,393329
1630411823640,63005,340876,393376
1630411823650,63013,340854,393349
1630411823660,63020,340876,393341
1630411823670,63044,340866,393375
1630411823680,63051,340912,393393
1630411823690,63078,340933,393338
1630411823700,63094,340896,393378
1630411823710,63116,340922,393333
1630411823720,63135,340939,393377
1630411823730,63180,340955,393386
1630411823740,63211,340966,393425
1630411823750,63248,340988,393468
1630411823760,63284,341013,393456
1630411823770,63318,341051,393465
1630411823780,63349,341054,393426
1630411823790,63398,341026,393438
1630411823800,63436,341054,393477
1630411823810,63478,341126,393494
1630411823820,63524,341151,393455
1630411823830,63559,341188,393501
1630411823840,63594,341164,393489
1630411823850,63630,341185,393537
1630411823860,63680,341237,393528
1630411823870,63734,341242,393576
1630411823880,63772,341235,393523
1630411823890,63825,341258,393576
1630411823900,63873,341294,393572
1630411823910,63920,341338,393581
1630411823920,63962,341289,393571
1630411823930,64016,341312,393638
1630411823940,64050,341366,393628
1630411823950,64096,341427,393652
1630411823960,64171,341421,393660
1630411823970,64212,341435,393687
1630411823980,64268,341461,393711
1630411823990,64300,341467,393704
1630411824000,64360,341531,393674
1630411824010,64409,341496,393712
1630411824020,64430,341519,393732
1630411824030,64435,341466,393717
1630411824040,64432,341482,393717
1630411824050,64388,341401,393684
1630411824060,64335,341422,393666
1630411824070,64289,341353,393680
1630411824080,64228,341353,393652
1630411824090,64178,341286,393651
1630411824100,64128,341237,393589
1630411824110,64073,341220,393628
1630411824120,64043,341231,393598
1630411824130,63992,341170,393599
1630411824140,63939,341219,393540
1630411824150,63882,341161,393575
1630411824160,63829,341117,393548
1630411824170,63780,341108,393538
1630411824180,63719,341118,393493
1630411824190,63675,341058,393529
1630411824200,63618,340997,393504
1630411824210,63575,341045,393499
1630411824220,63525,340946,393466
1630411824230,63475,340988,393485
1630411824240,63445,341004,393459
1630411824250,63422,340978,393435
1630411824260,63412,340990,393439
1630411824270,63401,341009,393467
1630411824280,63383,341013,393463
1630411824290,63388,340992,393461
1630411824300,63372,340972,393427
1630411824310,63372,340946,393443
1630411824320,63354,340944,393415
1630411824330,63348,341011,393417
1630411824340,63344,340975,393451
1630411824350,63341,340984,393403
1630411824360,63340,341004,393428
1630411824370,63341,340973,393406
1630411824380,63353,340937,393441
1630411824390,63354,341011,393466
1630411824400,63380,341011,393463
1630411824410,63384,341036,393414
1630411824420,63401,341025,393466
1630411824430,63420,341033,393440
1630411824440,63467,341094,393451
1630411824450,63467,341093,393486
1630411824460,63502,341077,393481
1630411824470,63545,341075,393498
1630411824480,63562,341079,393490
1630411824490,63593,341132,393510
1630411824500,63626,341160,393524
1630411824510,63654,341179,393516
1630411824520,63689,341153,393551
1630411824530,63733,341194,393536
1630411824540,63779,341231,393543
1630411824550,63815,341248,393564
1630411824560,63860,341301,393567
1630411824570,63900,341271,393596
1630411824580,63942,341295,393567
1630411824590,63972,341300,393606
1630411824600,64016,341332,393615
1630411824610,64077,341348,393631
1630411824620,64117,341351,393638
1630411824630,64145,341342,393680
1630411824640,64187,341417,393650
1630411824650,64238,341432,393691
1630411824660,64287,341453,393697
1630411824670,64326,341429,393728
1630411824680,64388,341480,393723
1630411824690,64422,341481,393720
1630411824700,64465,341533,393741
1630411824710,64526,341500,393798
1630411824720,64569,341555,393741
1630411824730,64628,341576,393781
1630411824740,64681,341602,393807
1630411824750,64708,341586,393818
1630411824760,64737,341582,393764
1630411824770,64760,341587,393728
1630411824780,64739,341517,393745
1630411824790,64704,341522,393792
1630411824800,64675,341426,393745
1630411824810,64612,341373,393686
1630411824820,64568,341361,393719
1630411824830,64510,341364,393672
1630411824840,64479,341358,393632
1630411824850,64441,341344,393657
1630411824860,64387,341352,393635
1630411824870,64349,341272,393638
1630411824880,64316,341299,393608
1630411824890,64262,341250,393637
1630411824900,64227,341288,393633
1630411824910,64175,341195,393609
1630411824920,64117,341165,393551
1630411824930,64081,341160,393555
1630411824940,64037,341103,393574
1630411824950,63993,341165,393567
1630411824960,63963,341120,393509
1630411824970,63927,341150,393494
1630411824980,63897,341131,393513
1630411824990,63880,341175,393538
1630411825000,63875,341111,393513
1630411825010,63877,341131,393506
1630411825020,63861,341082,393512
1630411825030,63870,341085,393485
1630411825040,63847,341107,393506
1630411825050,63850,341133,393446
1630411825060,63837,341104,393481
1630411825070,63835,341111,393457
1630411825080,63820,341101,393449
1630411825090,63831,341046,393406
1630411825100,63820,341074,393455
1630411825110,63815,341106,393473
1630411825120,63807,341091,393396
1630411825130,63816,341086,393315
1630411825140,63824,341068,393348
1630411825150,63819,341047,393391
1630411825160,63824,341093,393342
1630411825170,63829,341116,393382
1630411825180,63841,341079,393299
1630411825190,63857,341031,393314
1630411825200,63857,341113,393316
1630411825210,63854,341085,393297
1630411825220,63861,341091,393251
1630411825230,63872,341094,393261
1630411825240,63878,341119,393286
1630411825250,63878,341118,393239
1630411825260,63891,341110,393215
1630411825270,63893,341087,393222
1630411825280,63911,341146,393221
1630411825290,63914,341194,393252
1630411825300,63919,341195,393224
1630411825310,63926,341227,393206
1630411825320,63937,341198,393204
1630411825330,63950,341205,393224
1630411825340,63990,341209,393273
1630411825350,63982,341236,393226
1630411825360,63995,341259,393218
1630411825370,64004,341263,393212
1630411825380,64017,341285,393226
1630411825390,64012,341266,393198
1630411825400,64025,341298,393276
1630411825410,64028,341319,393202
1630411825420,64043,341311,393206
1630411825430,64041,341315,393244
1630411825440,64053,341303,393253
1630411825450,64076,341407,393198
1630411825460,64092,341376,393219
1630411825470,64105,341381,393219
1630411825480,64110,341413,393242
1630411825490,64120,341404,393244
1630411825500,64124,341408,393234
1630411825510,64091,341380,393240
1630411825520,64049,341308,393201
1630411825530,63979,341280,393162
1630411825540,63913,341307,393148
1630411825550,63845,341175,393144
1630411825560,63783,341203,393129
1630411825570,63706,341157,393091
1630411825580,63665,341132,393091
1630411825590,63600,341122,393101
1630411825600,63544,341104,393041
1630411825610,63483,341048,393021
1630411825620,63404,341082,393016
1630411825630,63331,341045,393040
1630411825640,63259,340994,392984
1630411825650,63203,340984,392960
1630411825660,63120,340935,392944
1630411825670,63065,340926,392969
1630411825680,62984,340883,392967
1630411825690,62927,340883,392900
1630411825700,62855,340877,392912
1630411825710,62794,340842,392863
1630411825720,62744,340804,392898
1630411825730,62700,340800,392886
1630411825740,62687,340804,392846
1630411825750,62650,340785,392862
1630411825760,62617,340824,392857
1630411825770,62603,340846,392833
1630411825780,62572,340837,392869
1630411825790,62571,340790,392885
1630411825800,62553,340826,392800
1630411825810,62533,340778,392799
1630411825820,62513,340795,392810
1630411825830,62500,340760,392798
1630411825840,62487,340809,392778
1630411825850,62463,340799,392799
1630411825860,62470,340783,392805
1630411825870,62460,340814,392772
1630411825880,62482,340799,392788
1630411825890,62480,340785,392756
1630411825900,62472,340835,392759
1630411825910,62478,340848,392738
1630411825920,62509,340780,392759
1630411825930,62528,340797,392774
1630411825940,62524,340857,392758
1630411825950,62545,340893,392771
1630411825960,62547,340882,392791
1630411825970,62589,340923,392804
1630411825980,62605,340921,392773
1630411825990,62632,340987,392787
1630411826000,62674,340981,392791
1630411826010,62694,341028,392780
1630411826020,62726,340964,392787
1630411826030,62760,340983,392812
1630411826040,62790,341006,392790
1630411826050,62814,340993,392860
1630411826060,62865,341069,392787
1630411826070,62888,341047,392838
1630411826080,62933,341099,392797
1630411826090,62965,341114,392798
1630411826100,63005,341166,392852
1630411826110,63043,341146,392876
1630411826120,63066,341143,392839
1630411826130,63113,341192,392882
1630411826140,63164,341217,392935
1630411826150,63208,341265,392867
1630411826160,63235,341313,392934
1630411826170,63290,341248,392887
1630411826180,63331,341336,392918
1630411826190,63377,341362,392944
1630411826200,63412,341308,392962
1630411826210,63466,341379,392969
1630411826220,63491,341371,392961
1630411826230,63517,341377,392984
1630411826240,63522,341299,392969
1630411826250,63493,341349,392930
1630411826260,63472,341285,392924
1630411826270,63441,341263,392893
1630411826280,63412,341257,392938
1630411826290,63358,341177,392874
1630411826300,63344,341223,392849
1630411826310,63312,341220,392890
1630411826320,63280,341162,392880
1630411826330,63254,341153,392851
1630411826340,63207,341128,392831
1630411826350,63190,341142,392854
1630411826360,63158,341129,392800
1630411826370,63123,341123,392849
1630411826380,63085,341085,392831
1630411826390,63072,341055,392883
1630411826400,63032,341049,392829
1630411826410,63006,341032,392851
1630411826420,62991,341017,392863
1630411826430,62953,340989,392817
1630411826440,62934,341044,392818
1630411826450,62937,341033,392837
1630411826460,62933,341043,392817
1630411826470,62937,341054,392805
1630411826480,62939,341034,392826
1630411826490,62943,341077,392808
1630411826500,62950,341077,392775
1630411826510,62959,341110,392797
1630411826520,62951,341095,392809
1630411826530,62960,341068,392782
1630411826540,62970,341067,392767
1630411826550,62987,341165,392788
1630411826560,62990,341086,392752
1630411826570,63004,341112,392796
1630411826580,63029,341142,392804
1630411826590,63041,341165,392790
1630411826600,63056,341138,392790
1630411826610,63079,341177,392770
1630411826620,63099,341210,392800
1630411826630,63134,341202,392765
1630411826640,63180,341250,392786
1630411826650,63211,341259,392784
1630411826660,63224,341258,392835
1630411826670,63280,341304,392839
1630411826680,63321,341315,392811
1630411826690,63366,341360,392861
1630411826700,63409,341359,392850
1630411826710,63448,341343,392912
1630411826720,63494,341404,392853
1630411826730,63541,341411,392859
1630411826740,63577,341413,392872
1630411826750,63638,341477,392900
1630411826760,63684,341503,392919
1630411826770,63723,341538,392894
1630411826780,63765,341503,392952
1630411826790,63820,341556,392933
1630411826800,63877,341612,392924
1630411826810,63923,341593,392937
1630411826820,63966,341608,392963
1630411826830,64020,341671,392940
1630411826840,64074,341699,392998
1630411826850,64111,341699,393053
1630411826860,64182,341766,392982
1630411826870,64231,341830,393030
1630411826880,64282,341807,393039
1630411826890,64350,341785,393058
1630411826900,64409,341877,393064
1630411826910,64456,341885,393099
1630411826920,64489,341915,393078
1630411826930,64529,341934,393075
1630411826940,64553,341916,393081
1630411826950,64562,341893,393134
1630411826960,64561,341865,393148
1630411826970,64539,341882,393102
1630411826980,64511,341812,393044
1630411826990,64477,341768,393090
1630411827000,64455,341765,393040
1630411827010,64412,341732,393065
1630411827020,64383,341715,393028
1630411827030,64366,341673,393044
1630411827040,64335,341699,393042
1630411827050,64311,341679,393036
1630411827060,64287,341694,393053
1630411827070,64252,341673,393014
1630411827080,64227,341636,392997
1630411827090,64199,341660,393042
1630411827100,64171,341657,393043
1630411827110,64140,341607,393031
1630411827120,64116,341659,393015
1630411827130,64099,341611,392993
1630411827140,64090,341589,393017
1630411827150,64086,341600,393019
1630411827160,64065,341593,393013
1630411827170,64071,341567,393055
1630411827180,64066,341615,393089
1630411827190,64069,341662,393080
1630411827200,64073,341641,393050
1630411827210,64089,341621,393062
1630411827220,64081,341613,393058
1630411827230,64089,341664,393063
1630411827240,64079,341640,393072
1630411827250,64104,341618,393058
1630411827260,64099,341667,393027
1630411827270,64102,341651,393094
1630411827280,64111,341607,393057
1630411827290,64119,341712,393080
1630411827300,64133,341677,393086
1630411827310,64150,341659,393071
1630411827320,64167,341712,393091
1630411827330,64177,341682,393099
1630411827340,64205,341682,393081
1630411827350,64228,341717,393090
1630411827360,64259,341739,393131
1630411827370,64285,341680,393128
1630411827380,64321,341751,393139
1630411827390,64349,341762,393081
1630411827400,64390,341787,393121
1630411827410,64402,341760,393152
1630411827420,64435,341814,393089
1630411827430,64480,341784,393135
1630411827440,64508,341801,393142
1630411827450,64537,341858,393114
1630411827460,64567,341897,393118
1630411827470,64613,341822,393114
1630411827480,64645,341893,393157
1630411827490,64691,341860,393154
1630411827500,64727,341924,393161
1630411827510,64757,341928,393127
1630411827520,64784,341984,393175
1630411827530,64821,341981,393191
1630411827540,64861,341984,393214
1630411827550,64891,341968,393213
1630411827560,64934,342009,393227
1630411827570,64964,342025,393178
1630411827580,64994,342055,393218
1630411827590,65020,341996,393225
1630411827600,65036,341985,393226
1630411827610,65021,342012,393192
1630411827620,64998,341965,393181
1630411827630,64962,341895,393152
1630411827640,64928,341865,393183
1630411827650,64888,341854,393136
1630411827660,64849,341866,393149
1630411827670,64808,341818,393122
1630411827680,64787,341794,393062
1630411827690,64751,341788,393088
1630411827700,64705,341797,393091
1630411827710,64678,341706,393067
1630411827720,64656,341737,393031
1630411827730,64611,341740,393065
1630411827740,64578,341740,393039
1630411827750,64541,341685,393031
1630411827760,64513,341665,393020
1630411827770,64500,341677,393021
1630411827780,64462,341695,392967
1630411827790,64430,341685,392972
1630411827800,64423,341676,393002
1630411827810,64413,341690,392991
1630411827820,64404,341671,392989
1630411827830,64396,341648,392990
1630411827840,64406,341638,392939
1630411827850,64402,341636,393014
1630411827860,64408,341714,393003
1630411827870,64407,341711,392974
1630411827880,64387,341668,392961
1630411827890,64390,341669,392964
1630411827900,64384,341669,392966
1630411827910,64379,341700,392992
1630411827920,64385,341652,392975
1630411827930,64391,341694,393031
1630411827940,64395,341667,392950
1630411827950,64399,341656,392976
1630411827960,64412,341695,392972
1630411827970,64413,341706,392947
1630411827980,64441,341703,392983
1630411827990,64443,341738,392967
1630411828000,64474,341718,392964
1630411828010,64485,341781,392965
1630411828020,64495,341722,392947
1630411828030,64526,341744,392995
1630411828040,64557,341739,393001
1630411828050,64553,341775,392999
1630411828060,64593,341781,392997
1630411828070,64619,341769,392987
1630411828080,64642,341824,393004
1630411828090,64678,341815,392998
1630411828100,64709,341853,393043
1630411828110,64739,341858,392999
1630411828120,64769,341871,393004
1630411828130,64782,341842,393076
1630411828140,64825,341908,393049
1630411828150,64862,341868,393042
1630411828160,64909,341969,393034
1630411828170,64924,341957,393045
1630411828180,64964,341997,393066
1630411828190,65000,341971,393102
1630411828200,65034,342005,393024
1630411828210,65059,342026,393108
1630411828220,65094,341984,393111
1630411828230,65096,342011,393063
1630411828240,65066,341943,393023
1630411828250,65038,341871,393012
1630411828260,65008,341890,393003
1630411828270,64970,341880,392987
1630411828280,64929,341817,392972
1630411828290,64879,341777,392981
1630411828300,64854,341820,392942
1630411828310,64808,341754,392941
1630411828320,64783,341742,392907
1630411828330,64733,341736,392901
1630411828340,64717,341683,392925
1630411828350,64680,341726,392886
1630411828360,64645,341688,392880
1630411828370,64610,341665,392881
1630411828380,64585,341645,392835
1630411828390,64560,341638,392861
1630411828400,64533,341665,392856
