timestamp,ecg_waveform
1629456577000,2038
1629456577004,2038
1629456577008,2058
1629456577012,2094
1629456577016,2133
1629456577020,2164
1629456577024,2182
1629456577028,2186
1629456577032,2182
1629456577036,2172
1629456577040,2160
1629456577044,2150
1629456577048,2144
1629456577052,2143
1629456577056,2146
1629456577060,2150
1629456577064,2153
1629456577068,2153
1629456577072,2152
1629456577076,2150
1629456577080,2149
1629456577084,2150
1629456577088,2150
1629456577092,2150
1629456577096,2150
1629456577100,2149
1629456577104,2147
1629456577108,2146
1629456577112,2146
1629456577116,2148
1629456577120,2150
1629456577124,2150
1629456577128,2150
1629456577132,2147
1629456577136,2146
1629456577140,2148
1629456577144,2150
1629456577148,2153
1629456577152,2155
1629456577156,2156
1629456577160,2154
1629456577164,2153
1629456577168,2153
1629456577172,2154
1629456577176,2155
1629456577180,2156
1629456577184,2156
1629456577188,2156
1629456577192,2157
1629456577196,2158
1629456577200,2158
1629456577204,2158
1629456577208,2157
1629456577212,2155
1629456577216,2153
1629456577220,2152
1629456577224,2151
1629456577228,2150
1629456577232,2149
1629456577236,2148
1629456577240,2150
1629456577244,2155
1629456577248,2159
1629456577252,2164
1629456577256,2168
1629456577260,2172
1629456577264,2176
1629456577268,2181
1629456577272,2186
1629456577276,2186
1629456577280,2183
1629456577284,2178
1629456577288,2174
1629456577292,2175
1629456577296,2180
1629456577300,2189
1629456577304,2198
1629456577308,2204
1629456577312,2206
1629456577316,2205
1629456577320,2203
1629456577324,2202
1629456577328,2203
1629456577332,2203
1629456577336,2202
1629456577340,2201
1629456577344,2202
1629456577348,2205
1629456577352,2210
1629456577356,2216
1629456577360,2220
1629456577364,2224
1629456577368,2227
1629456577372,2231
1629456577376,2234
1629456577380,2234
1629456577384,2232
1629456577388,2227
1629456577392,2222
1629456577396,2218
1629456577400,2214
1629456577404,2209
1629456577408,2202
1629456577412,2192
1629456577416,2181
1629456577420,2168
1629456577424,2154
1629456577428,2140
1629456577432,2126
1629456577436,2113
1629456577440,2101
1629456577444,2090
1629456577448,2077
1629456577452,2062
1629456577456,2047
1629456577460,2033
1629456577464,2024
1629456577468,2019
1629456577472,2017
1629456577476,2017
1629456577480,2014
1629456577484,2010
1629456577488,2006
1629456577492,2002
1629456577496,1996
1629456577500,1991
1629456577504,1986
1629456577508,1981
1629456577512,1976
1629456577516,1971
1629456577520,1966
1629456577524,1963
1629456577528,1959
1629456577532,1957
1629456577536,1955
1629456577540,1953
1629456577544,1952
1629456577548,1951
1629456577552,1950
1629456577556,1950
1629456577560,1950
1629456577564,1950
1629456577568,1951
1629456577572,1951
1629456577576,1951
1629456577580,1951
1629456577584,1951
1629456577588,1952
1629456577592,1952
1629456577596,1953
1629456577600,1954
1629456577604,1957
1629456577608,1961
1629456577612,1965
1629456577616,1969
1629456577620,1973
1629456577624,1976
1629456577628,1978
1629456577632,1981
1629456577636,1984
1629456577640,1990
1629456577644,1997
1629456577648,2003
1629456577652,2008
1629456577656,2011
1629456577660,2012
1629456577664,2014
1629456577668,2015
1629456577672,2018
1629456577676,2022
1629456577680,2026
1629456577684,2030
1629456577688,2032
1629456577692,2034
1629456577696,2037
1629456577700,2041
1629456577704,2046
1629456577708,2046
1629456577712,2037
1629456577716,2013
1629456577720,1979
1629456577724,1949
1629456577728,1935
1629456577732,1948
1629456577736,1984
1629456577740,2033
1629456577744,2075
1629456577748,2102
1629456577752,2113
1629456577756,2112
1629456577760,2107
1629456577764,2102
1629456577768,2099
1629456577772,2096
1629456577776,2092
1629456577780,2090
1629456577784,2089
1629456577788,2090
1629456577792,2091
1629456577796,2093
1629456577800,2095
1629456577804,2095
1629456577808,2094
1629456577812,2093
1629456577816,2092
1629456577820,2093
1629456577824,2094
1629456577828,2096
1629456577832,2096
1629456577836,2094
1629456577840,2091
1629456577844,2088
1629456577848,2086
1629456577852,2086
1629456577856,2086
1629456577860,2085
1629456577864,2083
1629456577868,2081
1629456577872,2078
1629456577876,2075
1629456577880,2071
1629456577884,2068
1629456577888,2066
1629456577892,2066
1629456577896,2065
1629456577900,2061
1629456577904,2056
1629456577908,2049
1629456577912,2043
1629456577916,2039
1629456577920,2037
1629456577924,2037
1629456577928,2036
1629456577932,2034
1629456577936,2031
1629456577940,2027
1629456577944,2024
1629456577948,2021
1629456577952,2019
1629456577956,2018
1629456577960,2018
1629456577964,2020
1629456577968,2024
1629456577972,2028
1629456577976,2032
1629456577980,2034
1629456577984,2036
1629456577988,2036
1629456577992,2038
1629456577996,2040
1629456578000,2043
1629456578004,2047
1629456578008,2049
1629456578012,2054
1629456578016,2058
1629456578020,2063
1629456578024,2066
1629456578028,2067
1629456578032,2064
1629456578036,2059
1629456578040,2054
1629456578044,2051
1629456578048,2053
1629456578052,2058
1629456578056,2064
1629456578060,2069
1629456578064,2071
1629456578068,2071
1629456578072,2070
1629456578076,2070
1629456578080,2071
1629456578084,2074
1629456578088,2076
1629456578092,2077
1629456578096,2077
1629456578100,2077
1629456578104,2076
1629456578108,2076
1629456578112,2076
1629456578116,2077
1629456578120,2078
1629456578124,2080
1629456578128,2082
1629456578132,2083
1629456578136,2084
1629456578140,2084
1629456578144,2085
1629456578148,2085
1629456578152,2086
1629456578156,2087
1629456578160,2088
1629456578164,2089
1629456578168,2089
1629456578172,2090
1629456578176,2092
1629456578180,2093
1629456578184,2094
1629456578188,2095
1629456578192,2094
1629456578196,2094
1629456578200,2094
1629456578204,2095
1629456578208,2096
1629456578212,2097
1629456578216,2098
1629456578220,2100
1629456578224,2102
1629456578228,2101
1629456578232,2098
1629456578236,2094
1629456578240,2091
1629456578244,2091
1629456578248,2096
1629456578252,2102
1629456578256,2107
1629456578260,2110
1629456578264,2111
1629456578268,2111
1629456578272,2110
1629456578276,2110
1629456578280,2109
1629456578284,2110
1629456578288,2111
1629456578292,2115
1629456578296,2120
1629456578300,2125
1629456578304,2129
1629456578308,2129
1629456578312,2128
1629456578316,2129
1629456578320,2129
1629456578324,2131
1629456578328,2133
1629456578332,2134
1629456578336,2135
1629456578340,2135
1629456578344,2138
1629456578348,2144
1629456578352,2151
1629456578356,2155
1629456578360,2150
1629456578364,2131
1629456578368,2097
1629456578372,2061
1629456578376,2037
1629456578380,2034
1629456578384,2058
1629456578388,2103
1629456578392,2149
1629456578396,2182
1629456578400,2196
1629456578404,2194
1629456578408,2187
1629456578412,2181
1629456578416,2180
1629456578420,2180
1629456578424,2179
1629456578428,2177
1629456578432,2176
1629456578436,2175
1629456578440,2175
1629456578444,2176
1629456578448,2175
1629456578452,2172
1629456578456,2169
1629456578460,2166
1629456578464,2166
1629456578468,2167
1629456578472,2166
1629456578476,2162
1629456578480,2156
1629456578484,2151
1629456578488,2148
1629456578492,2150
1629456578496,2153
1629456578500,2156
1629456578504,2156
1629456578508,2153
1629456578512,2150
1629456578516,2148
1629456578520,2147
1629456578524,2145
1629456578528,2143
1629456578532,2138
1629456578536,2135
1629456578540,2133
1629456578544,2131
1629456578548,2127
1629456578552,2121
1629456578556,2114
1629456578560,2108
1629456578564,2106
1629456578568,2106
1629456578572,2107
1629456578576,2109
1629456578580,2109
1629456578584,2109
1629456578588,2108
1629456578592,2107
1629456578596,2105
1629456578600,2103
1629456578604,2100
1629456578608,2097
1629456578612,2094
1629456578616,2092
1629456578620,2093
1629456578624,2096
1629456578628,2100
1629456578632,2104
1629456578636,2106
1629456578640,2106
1629456578644,2107
1629456578648,2107
1629456578652,2107
1629456578656,2108
1629456578660,2107
1629456578664,2105
1629456578668,2103
1629456578672,2102
1629456578676,2104
1629456578680,2107
1629456578684,2111
1629456578688,2111
1629456578692,2110
1629456578696,2106
1629456578700,2101
1629456578704,2097
1629456578708,2094
1629456578712,2092
1629456578716,2092
1629456578720,2092
1629456578724,2094
1629456578728,2095
1629456578732,2094
1629456578736,2093
1629456578740,2091
1629456578744,2089
1629456578748,2087
1629456578752,2085
1629456578756,2084
1629456578760,2083
1629456578764,2083
1629456578768,2083
1629456578772,2083
1629456578776,2083
1629456578780,2084
1629456578784,2084
1629456578788,2083
1629456578792,2082
1629456578796,2079
1629456578800,2077
1629456578804,2074
1629456578808,2074
1629456578812,2074
1629456578816,2076
1629456578820,2078
1629456578824,2079
1629456578828,2079
1629456578832,2079
1629456578836,2077
1629456578840,2075
1629456578844,2074
1629456578848,2075
1629456578852,2078
1629456578856,2083
1629456578860,2085
1629456578864,2082
1629456578868,2075
1629456578872,2067
1629456578876,2063
1629456578880,2064
1629456578884,2071
1629456578888,2078
1629456578892,2081
1629456578896,2080
1629456578900,2075
1629456578904,2070
1629456578908,2068
1629456578912,2070
1629456578916,2073
1629456578920,2077
1629456578924,2080
1629456578928,2082
1629456578932,2083
1629456578936,2083
1629456578940,2082
1629456578944,2080
1629456578948,2078
1629456578952,2075
1629456578956,2074
1629456578960,2073
1629456578964,2074
1629456578968,2077
1629456578972,2079
1629456578976,2082
1629456578980,2083
1629456578984,2083
1629456578988,2084
1629456578992,2083
1629456578996,2083
1629456579000,2084
1629456579004,2085
1629456579008,2085
1629456579012,2077
1629456579016,2056
1629456579020,2023
1629456579024,1987
1629456579028,1962
1629456579032,1960
1629456579036,1984
1629456579040,2025
1629456579044,2066
1629456579048,2097
1629456579052,2111
1629456579056,2112
1629456579060,2104
1629456579064,2097
1629456579068,2091
1629456579072,2087
1629456579076,2085
1629456579080,2085
1629456579084,2087
1629456579088,2087
1629456579092,2086
1629456579096,2085
1629456579100,2085
1629456579104,2088
1629456579108,2090
1629456579112,2092
1629456579116,2091
1629456579120,2086
1629456579124,2081
1629456579128,2078
1629456579132,2078
1629456579136,2080
1629456579140,2083
1629456579144,2083
1629456579148,2082
1629456579152,2079
1629456579156,2076
1629456579160,2074
1629456579164,2072
1629456579168,2071
1629456579172,2069
1629456579176,2068
1629456579180,2066
1629456579184,2065
1629456579188,2064
1629456579192,2062
1629456579196,2059
1629456579200,2055
1629456579204,2050
1629456579208,2047
1629456579212,2045
1629456579216,2044
1629456579220,2043
1629456579224,2042
1629456579228,2041
1629456579232,2038
1629456579236,2036
1629456579240,2034
1629456579244,2034
1629456579248,2034
1629456579252,2035
1629456579256,2035
1629456579260,2036
1629456579264,2036
1629456579268,2038
1629456579272,2040
1629456579276,2043
1629456579280,2045
1629456579284,2047
1629456579288,2048
1629456579292,2050
1629456579296,2054
1629456579300,2058
1629456579304,2061
1629456579308,2062
1629456579312,2061
1629456579316,2059
1629456579320,2055
1629456579324,2054
1629456579328,2054
1629456579332,2055
1629456579336,2056
1629456579340,2057
1629456579344,2060
1629456579348,2064
1629456579352,2068
1629456579356,2070
1629456579360,2066
1629456579364,2060
1629456579368,2056
1629456579372,2055
1629456579376,2059
1629456579380,2063
1629456579384,2065
1629456579388,2064
1629456579392,2060
1629456579396,2056
1629456579400,2054
1629456579404,2053
1629456579408,2051
1629456579412,2050
1629456579416,2049
1629456579420,2049
1629456579424,2050
1629456579428,2052
1629456579432,2053
1629456579436,2053
1629456579440,2052
1629456579444,2052
1629456579448,2053
1629456579452,2053
1629456579456,2054
1629456579460,2054
1629456579464,2053
1629456579468,2053
1629456579472,2052
1629456579476,2051
1629456579480,2051
1629456579484,2051
1629456579488,2053
1629456579492,2054
1629456579496,2054
1629456579500,2052
1629456579504,2049
1629456579508,2048
1629456579512,2048
1629456579516,2050
1629456579520,2052
1629456579524,2054
1629456579528,2053
1629456579532,2051
1629456579536,2049
1629456579540,2048
1629456579544,2048
1629456579548,2048
1629456579552,2047
1629456579556,2045
1629456579560,2044
1629456579564,2043
1629456579568,2043
1629456579572,2044
1629456579576,2044
1629456579580,2045
1629456579584,2046
1629456579588,2048
1629456579592,2049
1629456579596,2051
1629456579600,2052
1629456579604,2053
1629456579608,2053
1629456579612,2054
1629456579616,2054
1629456579620,2055
1629456579624,2055
1629456579628,2056
1629456579632,2056
1629456579636,2056
1629456579640,2056
1629456579644,2056
1629456579648,2055
1629456579652,2055
1629456579656,2055
1629456579660,2055
1629456579664,2056
1629456579668,2057
1629456579672,2058
1629456579676,2057
1629456579680,2048
1629456579684,2027
1629456579688,1994
1629456579692,1959
1629456579696,1935
1629456579700,1931
1629456579704,1952
1629456579708,1989
1629456579712,2029
1629456579716,2058
1629456579720,2074
1629456579724,2078
1629456579728,2075
1629456579732,2071
1629456579736,2067
1629456579740,2064
1629456579744,2061
1629456579748,2059
1629456579752,2058
1629456579756,2058
1629456579760,2057
1629456579764,2057
1629456579768,2056
1629456579772,2055
1629456579776,2055
1629456579780,2055
1629456579784,2055
1629456579788,2055
1629456579792,2054
1629456579796,2053
1629456579800,2052
1629456579804,2051
1629456579808,2051
1629456579812,2051
1629456579816,2051
1629456579820,2051
1629456579824,2050
1629456579828,2049
1629456579832,2048
1629456579836,2047
1629456579840,2045
1629456579844,2044
1629456579848,2043
1629456579852,2043
1629456579856,2043
1629456579860,2043
1629456579864,2043
1629456579868,2041
1629456579872,2039
1629456579876,2037
1629456579880,2034
1629456579884,2032
1629456579888,2031
1629456579892,2029
1629456579896,2029
1629456579900,2028
1629456579904,2028
1629456579908,2027
1629456579912,2027
1629456579916,2026
1629456579920,2026
1629456579924,2026
1629456579928,2026
1629456579932,2027
1629456579936,2029
1629456579940,2032
1629456579944,2035
1629456579948,2039
1629456579952,2043
1629456579956,2046
1629456579960,2048
1629456579964,2050
1629456579968,2052
1629456579972,2055
1629456579976,2057
1629456579980,2059
1629456579984,2060
1629456579988,2060
1629456579992,2060
1629456579996,2059
1629456580000,2059
1629456580004,2060
1629456580008,2061
1629456580012,2062
1629456580016,2062
1629456580020,2062
1629456580024,2061
1629456580028,2061
1629456580032,2061
1629456580036,2061
1629456580040,2061
1629456580044,2061
1629456580048,2061
1629456580052,2061
1629456580056,2062
1629456580060,2062
1629456580064,2063
1629456580068,2063
1629456580072,2063
1629456580076,2062
1629456580080,2062
1629456580084,2061
1629456580088,2060
1629456580092,2060
1629456580096,2062
1629456580100,2064
1629456580104,2067
1629456580108,2067
1629456580112,2064
1629456580116,2060
1629456580120,2055
1629456580124,2054
1629456580128,2054
1629456580132,2056
1629456580136,2058
1629456580140,2060
1629456580144,2060
1629456580148,2061
1629456580152,2060
1629456580156,2060
1629456580160,2060
1629456580164,2060
1629456580168,2060
1629456580172,2061
1629456580176,2061
1629456580180,2060
1629456580184,2060
1629456580188,2059
1629456580192,2059
1629456580196,2059
1629456580200,2059
1629456580204,2059
1629456580208,2058
1629456580212,2057
1629456580216,2056
1629456580220,2055
1629456580224,2054
1629456580228,2054
1629456580232,2054
1629456580236,2053
1629456580240,2053
1629456580244,2053
1629456580248,2053
1629456580252,2055
1629456580256,2057
1629456580260,2059
1629456580264,2061
1629456580268,2062
1629456580272,2063
1629456580276,2064
1629456580280,2063
1629456580284,2063
1629456580288,2061
1629456580292,2060
1629456580296,2059
1629456580300,2059
1629456580304,2060
1629456580308,2060
1629456580312,2060
1629456580316,2060
1629456580320,2060
1629456580324,2061
1629456580328,2062
1629456580332,2064
1629456580336,2065
1629456580340,2065
1629456580344,2062
1629456580348,2050
1629456580352,2025
1629456580356,1990
1629456580360,1954
1629456580364,1932
1629456580368,1933
1629456580372,1959
1629456580376,2000
1629456580380,2041
1629456580384,2068
1629456580388,2080
1629456580392,2081
1629456580396,2076
1629456580400,2072
1629456580404,2069
1629456580408,2066
1629456580412,2063
1629456580416,2061
1629456580420,2060
1629456580424,2060
1629456580428,2060
1629456580432,2059
1629456580436,2058
1629456580440,2057
1629456580444,2057
1629456580448,2057
1629456580452,2057
1629456580456,2056
1629456580460,2055
1629456580464,2054
1629456580468,2052
1629456580472,2052
1629456580476,2051
1629456580480,2051
1629456580484,2051
1629456580488,2051
1629456580492,2051
1629456580496,2051
1629456580500,2050
1629456580504,2049
1629456580508,2048
1629456580512,2048
1629456580516,2046
1629456580520,2044
1629456580524,2042
1629456580528,2041
1629456580532,2041
1629456580536,2041
1629456580540,2040
1629456580544,2038
1629456580548,2036
1629456580552,2033
1629456580556,2032
1629456580560,2030
1629456580564,2030
1629456580568,2029
1629456580572,2029
1629456580576,2028
1629456580580,2028
1629456580584,2028
1629456580588,2027
1629456580592,2027
1629456580596,2026
1629456580600,2027
1629456580604,2029
1629456580608,2031
1629456580612,2035
1629456580616,2038
1629456580620,2042
1629456580624,2045
1629456580628,2048
1629456580632,2049
1629456580636,2050
1629456580640,2051
1629456580644,2052
1629456580648,2053
1629456580652,2055
1629456580656,2057
1629456580660,2057
1629456580664,2057
1629456580668,2056
1629456580672,2055
1629456580676,2054
1629456580680,2054
1629456580684,2055
1629456580688,2056
1629456580692,2057
1629456580696,2058
1629456580700,2059
1629456580704,2058
1629456580708,2057
1629456580712,2056
1629456580716,2055
1629456580720,2054
1629456580724,2054
1629456580728,2055
1629456580732,2055
1629456580736,2055
1629456580740,2055
1629456580744,2055
1629456580748,2055
1629456580752,2054
1629456580756,2053
1629456580760,2052
1629456580764,2052
1629456580768,2052
1629456580772,2052
1629456580776,2052
1629456580780,2053
1629456580784,2052
1629456580788,2052
1629456580792,2051
1629456580796,2051
1629456580800,2050
1629456580804,2050
1629456580808,2050
1629456580812,2050
1629456580816,2050
1629456580820,2050
1629456580824,2050
1629456580828,2051
1629456580832,2051
1629456580836,2051
1629456580840,2050
1629456580844,2050
1629456580848,2050
1629456580852,2050
1629456580856,2050
1629456580860,2049
1629456580864,2048
1629456580868,2047
1629456580872,2046
1629456580876,2046
1629456580880,2046
1629456580884,2046
1629456580888,2045
1629456580892,2045
1629456580896,2045
1629456580900,2045
1629456580904,2046
1629456580908,2046
1629456580912,2046
1629456580916,2046
1629456580920,2045
1629456580924,2044
1629456580928,2043
1629456580932,2043
1629456580936,2043
1629456580940,2044
1629456580944,2045
1629456580948,2045
1629456580952,2044
1629456580956,2043
1629456580960,2040
1629456580964,2039
1629456580968,2038
1629456580972,2039
1629456580976,2040
1629456580980,2040
1629456580984,2039
1629456580988,2038
1629456580992,2037
1629456580996,2037
1629456581000,2039
1629456581004,2041
1629456581008,2043
1629456581012,2045
1629456581016,2046
1629456581020,2047
1629456581024,2047
1629456581028,2048
1629456581032,2048
1629456581036,2048
1629456581040,2048
1629456581044,2047
1629456581048,2047
1629456581052,2046
1629456581056,2046
1629456581060,2045
1629456581064,2046
1629456581068,2047
1629456581072,2048
1629456581076,2048
1629456581080,2048
1629456581084,2047
1629456581088,2040
1629456581092,2021
1629456581096,1990
1629456581100,1953
1629456581104,1925
1629456581108,1916
1629456581112,1933
1629456581116,1971
1629456581120,2015
1629456581124,2050
1629456581128,2070
1629456581132,2076
1629456581136,2074
1629456581140,2068
1629456581144,2063
1629456581148,2059
1629456581152,2054
1629456581156,2050
1629456581160,2048
1629456581164,2048
1629456581168,2048
1629456581172,2048
1629456581176,2048
1629456581180,2048
1629456581184,2048
1629456581188,2047
1629456581192,2046
1629456581196,2045
1629456581200,2044
1629456581204,2044
1629456581208,2044
1629456581212,2044
1629456581216,2044
1629456581220,2044
1629456581224,2044
1629456581228,2043
1629456581232,2043
1629456581236,2043
1629456581240,2042
1629456581244,2041
1629456581248,2040
1629456581252,2039
1629456581256,2038
1629456581260,2037
1629456581264,2037
1629456581268,2036
1629456581272,2036
1629456581276,2034
1629456581280,2032
1629456581284,2031
1629456581288,2029
1629456581292,2027
1629456581296,2026
1629456581300,2025
1629456581304,2024
1629456581308,2022
1629456581312,2021
1629456581316,2019
1629456581320,2018
1629456581324,2018
1629456581328,2019
1629456581332,2021
1629456581336,2022
1629456581340,2023
1629456581344,2024
1629456581348,2026
1629456581352,2028
1629456581356,2031
1629456581360,2034
1629456581364,2037
1629456581368,2039
1629456581372,2041
1629456581376,2043
1629456581380,2046
1629456581384,2048
1629456581388,2048
1629456581392,2049
1629456581396,2050
1629456581400,2050
1629456581404,2050
1629456581408,2051
1629456581412,2052
1629456581416,2053
1629456581420,2053
1629456581424,2053
1629456581428,2053
1629456581432,2053
1629456581436,2053
1629456581440,2053
1629456581444,2053
1629456581448,2053
1629456581452,2054
1629456581456,2055
1629456581460,2056
1629456581464,2056
1629456581468,2056
1629456581472,2056
1629456581476,2055
1629456581480,2054
1629456581484,2053
1629456581488,2053
1629456581492,2053
1629456581496,2054
1629456581500,2054
1629456581504,2054
1629456581508,2053
1629456581512,2052
1629456581516,2051
1629456581520,2051
1629456581524,2051
1629456581528,2052
1629456581532,2053
1629456581536,2053
1629456581540,2053
1629456581544,2053
1629456581548,2053
1629456581552,2053
1629456581556,2053
1629456581560,2052
1629456581564,2051
1629456581568,2051
1629456581572,2051
1629456581576,2052
1629456581580,2052
1629456581584,2052
1629456581588,2052
1629456581592,2052
1629456581596,2052
1629456581600,2051
1629456581604,2051
1629456581608,2052
1629456581612,2052
1629456581616,2053
1629456581620,2053
1629456581624,2053
1629456581628,2053
1629456581632,2053
1629456581636,2053
1629456581640,2053
1629456581644,2053
1629456581648,2052
1629456581652,2051
1629456581656,2050
1629456581660,2049
1629456581664,2050
1629456581668,2051
1629456581672,2052
1629456581676,2051
1629456581680,2050
1629456581684,2048
1629456581688,2047
1629456581692,2047
1629456581696,2046
1629456581700,2047
1629456581704,2048
1629456581708,2048
1629456581712,2048
1629456581716,2047
1629456581720,2047
1629456581724,2048
1629456581728,2048
1629456581732,2051
1629456581736,2053
1629456581740,2054
1629456581744,2054
1629456581748,2054
1629456581752,2053
1629456581756,2053
1629456581760,2053
1629456581764,2053
1629456581768,2053
1629456581772,2053
1629456581776,2053
1629456581780,2053
1629456581784,2053
1629456581788,2053
1629456581792,2053
1629456581796,2054
1629456581800,2055
1629456581804,2056
1629456581808,2055
1629456581812,2050
1629456581816,2036
1629456581820,2008
1629456581824,1973
1629456581828,1941
1629456581832,1924
1629456581836,1931
1629456581840,1960
1629456581844,2001
1629456581848,2039
1629456581852,2064
1629456581856,2075
1629456581860,2076
1629456581864,2073
1629456581868,2070
1629456581872,2066
1629456581876,2061
1629456581880,2057
1629456581884,2054
1629456581888,2053
1629456581892,2053
1629456581896,2054
1629456581900,2055
1629456581904,2055
1629456581908,2054
1629456581912,2053
1629456581916,2052
1629456581920,2050
1629456581924,2049
1629456581928,2049
1629456581932,2049
1629456581936,2049
1629456581940,2049
1629456581944,2049
1629456581948,2048
1629456581952,2048
1629456581956,2047
1629456581960,2047
1629456581964,2047
1629456581968,2046
1629456581972,2046
1629456581976,2046
1629456581980,2045
1629456581984,2043
1629456581988,2042
1629456581992,2041
1629456581996,2039
1629456582000,2038
1629456582004,2037
1629456582008,2036
1629456582012,2035
1629456582016,2034
1629456582020,2032
1629456582024,2030
1629456582028,2029
1629456582032,2027
1629456582036,2026
1629456582040,2025
1629456582044,2024
1629456582048,2024
1629456582052,2024
1629456582056,2025
1629456582060,2026
1629456582064,2027
1629456582068,2029
1629456582072,2031
1629456582076,2033
1629456582080,2035
1629456582084,2038
1629456582088,2041
1629456582092,2044
1629456582096,2046
1629456582100,2048
1629456582104,2050
1629456582108,2052
1629456582112,2054
1629456582116,2055
1629456582120,2056
1629456582124,2057
1629456582128,2058
1629456582132,2058
1629456582136,2059
1629456582140,2059
1629456582144,2058
1629456582148,2058
1629456582152,2057
1629456582156,2056
1629456582160,2056
1629456582164,2056
1629456582168,2056
1629456582172,2057
1629456582176,2057
1629456582180,2058
1629456582184,2057
1629456582188,2057
1629456582192,2057
1629456582196,2056
1629456582200,2056
1629456582204,2057
1629456582208,2057
1629456582212,2056
1629456582216,2056
1629456582220,2056
1629456582224,2056
1629456582228,2056
1629456582232,2056
1629456582236,2055
1629456582240,2054
1629456582244,2054
1629456582248,2054
1629456582252,2054
1629456582256,2054
1629456582260,2055
1629456582264,2055
1629456582268,2055
1629456582272,2054
1629456582276,2054
1629456582280,2053
1629456582284,2053
1629456582288,2053
1629456582292,2053
1629456582296,2053
1629456582300,2054
1629456582304,2054
1629456582308,2054
1629456582312,2053
1629456582316,2053
1629456582320,2052
1629456582324,2052
1629456582328,2052
1629456582332,2053
1629456582336,2053
1629456582340,2054
1629456582344,2054
1629456582348,2054
1629456582352,2054
1629456582356,2053
1629456582360,2053
1629456582364,2053
1629456582368,2053
1629456582372,2053
1629456582376,2053
1629456582380,2053
1629456582384,2053
1629456582388,2053
1629456582392,2053
1629456582396,2053
1629456582400,2053
1629456582404,2053
1629456582408,2052
1629456582412,2053
1629456582416,2053
1629456582420,2053
1629456582424,2054
1629456582428,2054
1629456582432,2053
1629456582436,2053
1629456582440,2052
1629456582444,2052
1629456582448,2052
1629456582452,2052
1629456582456,2052
1629456582460,2052
1629456582464,2052
1629456582468,2052
1629456582472,2052
1629456582476,2052
1629456582480,2051
1629456582484,2049
1629456582488,2048
1629456582492,2047
1629456582496,2046
1629456582500,2046
1629456582504,2047
1629456582508,2047
1629456582512,2047
1629456582516,2047
1629456582520,2046
1629456582524,2046
1629456582528,2047
1629456582532,2048
1629456582536,2050
1629456582540,2053
1629456582544,2055
1629456582548,2056
1629456582552,2056
1629456582556,2055
1629456582560,2054
1629456582564,2053
1629456582568,2053
1629456582572,2054
1629456582576,2055
1629456582580,2055
1629456582584,2054
1629456582588,2053
1629456582592,2053
1629456582596,2053
1629456582600,2053
1629456582604,2054
1629456582608,2054
1629456582612,2052
1629456582616,2044
1629456582620,2023
1629456582624,1992
1629456582628,1956
1629456582632,1929
1629456582636,1923
1629456582640,1941
1629456582644,1978
1629456582648,2020
1629456582652,2052
1629456582656,2071
1629456582660,2076
1629456582664,2074
1629456582668,2069
1629456582672,2065
1629456582676,2060
1629456582680,2056
1629456582684,2053
1629456582688,2052
1629456582692,2052
1629456582696,2053
1629456582700,2053
1629456582704,2053
1629456582708,2053
1629456582712,2052
1629456582716,2051
1629456582720,2049
1629456582724,2048
1629456582728,2048
1629456582732,2048
1629456582736,2048
1629456582740,2048
1629456582744,2048
1629456582748,2048
1629456582752,2048
1629456582756,2047
1629456582760,2046
1629456582764,2045
1629456582768,2045
1629456582772,2045
1629456582776,2045
1629456582780,2044
1629456582784,2044
1629456582788,2043
1629456582792,2042
1629456582796,2040
1629456582800,2039
1629456582804,2037
1629456582808,2036
1629456582812,2035
1629456582816,2034
1629456582820,2032
1629456582824,2030
1629456582828,2029
1629456582832,2028
1629456582836,2027
1629456582840,2026
1629456582844,2025
1629456582848,2025
1629456582852,2025
1629456582856,2024
1629456582860,2025
1629456582864,2025
1629456582868,2026
1629456582872,2027
1629456582876,2029
1629456582880,2031
1629456582884,2033
1629456582888,2036
1629456582892,2039
1629456582896,2042
1629456582900,2045
1629456582904,2047
1629456582908,2048
1629456582912,2049
1629456582916,2050
1629456582920,2051
1629456582924,2053
1629456582928,2053
1629456582932,2054
1629456582936,2054
1629456582940,2055
1629456582944,2055
1629456582948,2055
1629456582952,2055
1629456582956,2054
1629456582960,2054
1629456582964,2054
1629456582968,2054
1629456582972,2054
1629456582976,2055
1629456582980,2055
1629456582984,2055
1629456582988,2055
1629456582992,2055
1629456582996,2054
1629456583000,2054
1629456583004,2054
1629456583008,2054
1629456583012,2054
1629456583016,2054
1629456583020,2054
1629456583024,2054
1629456583028,2054
1629456583032,2054
1629456583036,2054
1629456583040,2053
1629456583044,2053
1629456583048,2053
1629456583052,2053
1629456583056,2053
1629456583060,2052
1629456583064,2053
1629456583068,2053
1629456583072,2053
1629456583076,2052
1629456583080,2052
1629456583084,2051
1629456583088,2051
1629456583092,2051
1629456583096,2051
1629456583100,2052
1629456583104,2052
1629456583108,2052
1629456583112,2052
1629456583116,2051
1629456583120,2050
1629456583124,2050
1629456583128,2050
1629456583132,2051
1629456583136,2052
1629456583140,2052
1629456583144,2052
1629456583148,2052
1629456583152,2052
1629456583156,2052
1629456583160,2052
1629456583164,2052
1629456583168,2052
1629456583172,2052
1629456583176,2052
1629456583180,2052
1629456583184,2052
1629456583188,2052
1629456583192,2053
1629456583196,2052
1629456583200,2051
1629456583204,2051
1629456583208,2051
1629456583212,2051
1629456583216,2052
1629456583220,2053
1629456583224,2054
1629456583228,2053
1629456583232,2052
1629456583236,2051
1629456583240,2050
1629456583244,2050
1629456583248,2051
1629456583252,2052
1629456583256,2052
1629456583260,2052
1629456583264,2051
1629456583268,2050
1629456583272,2048
1629456583276,2048
1629456583280,2047
1629456583284,2046
1629456583288,2046
1629456583292,2046
1629456583296,2046
1629456583300,2046
1629456583304,2046
1629456583308,2046
1629456583312,2047
1629456583316,2048
1629456583320,2048
1629456583324,2049
1629456583328,2050
1629456583332,2051
1629456583336,2051
1629456583340,2051
1629456583344,2051
1629456583348,2051
1629456583352,2051
1629456583356,2050
1629456583360,2050
1629456583364,2049
1629456583368,2049
1629456583372,2049
1629456583376,2049
1629456583380,2049
1629456583384,2050
1629456583388,2050
1629456583392,2050
1629456583396,2046
1629456583400,2030
1629456583404,2002
1629456583408,1966
1629456583412,1933
1629456583416,1916
1629456583420,1925
1629456583424,1958
1629456583428,2002
1629456583432,2042
1629456583436,2066
1629456583440,2076
1629456583444,2075
1629456583448,2070
1629456583452,2064
1629456583456,2060
1629456583460,2055
1629456583464,2050
1629456583468,2048
1629456583472,2046
1629456583476,2046
1629456583480,2046
1629456583484,2046
1629456583488,2045
1629456583492,2044
1629456583496,2043
1629456583500,2042
1629456583504,2041
1629456583508,2041
1629456583512,2041
1629456583516,2040
1629456583520,2039
1629456583524,2039
1629456583528,2038
1629456583532,2038
1629456583536,2038
1629456583540,2038
1629456583544,2038
1629456583548,2037
1629456583552,2036
1629456583556,2035
1629456583560,2034
1629456583564,2033
1629456583568,2032
1629456583572,2031
1629456583576,2030
1629456583580,2029
1629456583584,2027
1629456583588,2026
1629456583592,2024
1629456583596,2023
1629456583600,2021
1629456583604,2019
1629456583608,2018
1629456583612,2017
1629456583616,2016
1629456583620,2016
1629456583624,2016
1629456583628,2015
1629456583632,2014
1629456583636,2013
1629456583640,2012
1629456583644,2013
1629456583648,2014
1629456583652,2016
1629456583656,2019
1629456583660,2021
1629456583664,2024
1629456583668,2027
1629456583672,2030
1629456583676,2032
1629456583680,2035
1629456583684,2037
1629456583688,2039
1629456583692,2041
1629456583696,2043
1629456583700,2044
1629456583704,2045
1629456583708,2046
1629456583712,2047
1629456583716,2048
1629456583720,2048
1629456583724,2048
1629456583728,2048
1629456583732,2048
1629456583736,2049
1629456583740,2049
1629456583744,2049
1629456583748,2050
1629456583752,2050
1629456583756,2050
1629456583760,2050
1629456583764,2050
1629456583768,2051
1629456583772,2051
1629456583776,2050
1629456583780,2050
1629456583784,2050
1629456583788,2050
1629456583792,2049
1629456583796,2049
1629456583800,2048
1629456583804,2048
1629456583808,2048
1629456583812,2048
1629456583816,2048
1629456583820,2048
1629456583824,2048
1629456583828,2048
1629456583832,2048
1629456583836,2048
1629456583840,2048
1629456583844,2048
1629456583848,2048
1629456583852,2047
1629456583856,2047
1629456583860,2047
1629456583864,2048
1629456583868,2048
1629456583872,2048
1629456583876,2048
1629456583880,2048
1629456583884,2048
1629456583888,2048
1629456583892,2048
1629456583896,2048
1629456583900,2048
1629456583904,2049
1629456583908,2049
1629456583912,2048
1629456583916,2048
1629456583920,2047
1629456583924,2048
1629456583928,2048
1629456583932,2048
1629456583936,2048
1629456583940,2048
1629456583944,2048
1629456583948,2048
1629456583952,2048
1629456583956,2048
1629456583960,2048
1629456583964,2048
1629456583968,2048
1629456583972,2046
1629456583976,2045
1629456583980,2045
1629456583984,2045
1629456583988,2045
1629456583992,2045
1629456583996,2044
1629456584000,2044
1629456584004,2044
1629456584008,2044
1629456584012,2046
1629456584016,2048
1629456584020,2049
1629456584024,2051
1629456584028,2052
1629456584032,2052
1629456584036,2052
1629456584040,2051
1629456584044,2051
1629456584048,2051
1629456584052,2052
1629456584056,2052
1629456584060,2052
1629456584064,2052
1629456584068,2052
1629456584072,2051
1629456584076,2051
1629456584080,2051
1629456584084,2052
1629456584088,2053
1629456584092,2054
1629456584096,2053
1629456584100,2046
1629456584104,2025
1629456584108,1992
1629456584112,1955
1629456584116,1926
1629456584120,1919
1629456584124,1939
1629456584128,1978
1629456584132,2022
1629456584136,2057
1629456584140,2076
1629456584144,2082
1629456584148,2078
1629456584152,2072
1629456584156,2067
1629456584160,2062
1629456584164,2058
1629456584168,2054
1629456584172,2053
1629456584176,2053
1629456584180,2053
1629456584184,2053
1629456584188,2052
1629456584192,2052
1629456584196,2051
1629456584200,2050
1629456584204,2049
1629456584208,2048
1629456584212,2048
1629456584216,2048
1629456584220,2048
1629456584224,2048
1629456584228,2048
1629456584232,2047
1629456584236,2046
1629456584240,2045
1629456584244,2044
1629456584248,2044
1629456584252,2043
1629456584256,2044
1629456584260,2043
1629456584264,2043
1629456584268,2042
1629456584272,2040
1629456584276,2039
1629456584280,2038
1629456584284,2037
1629456584288,2036
1629456584292,2034
1629456584296,2033
1629456584300,2032
1629456584304,2031
1629456584308,2029
1629456584312,2027
1629456584316,2026
1629456584320,2024
1629456584324,2023
1629456584328,2023
1629456584332,2023
1629456584336,2022
1629456584340,2022
1629456584344,2023
1629456584348,2024
1629456584352,2025
1629456584356,2027
1629456584360,2029
1629456584364,2031
1629456584368,2034
1629456584372,2037
1629456584376,2041
1629456584380,2044
1629456584384,2046
1629456584388,2048
1629456584392,2049
1629456584396,2051
1629456584400,2052
1629456584404,2054
1629456584408,2055
1629456584412,2055
1629456584416,2056
1629456584420,2057
1629456584424,2057
1629456584428,2058
1629456584432,2058
1629456584436,2057
1629456584440,2057
1629456584444,2057
1629456584448,2057
1629456584452,2058
1629456584456,2058
1629456584460,2059
1629456584464,2059
1629456584468,2059
1629456584472,2059
1629456584476,2058
1629456584480,2058
1629456584484,2057
1629456584488,2057
1629456584492,2056
1629456584496,2057
1629456584500,2057
1629456584504,2057
1629456584508,2057
1629456584512,2057
1629456584516,2056
1629456584520,2055
1629456584524,2055
1629456584528,2055
1629456584532,2055
1629456584536,2056
1629456584540,2056
1629456584544,2056
1629456584548,2056
1629456584552,2056
1629456584556,2055
1629456584560,2055
1629456584564,2054
1629456584568,2054
1629456584572,2054
1629456584576,2054
1629456584580,2055
1629456584584,2055
1629456584588,2056
1629456584592,2056
1629456584596,2055
1629456584600,2054
1629456584604,2054
1629456584608,2054
1629456584612,2054
1629456584616,2055
1629456584620,2055
1629456584624,2055
1629456584628,2055
1629456584632,2054
1629456584636,2054
1629456584640,2053
1629456584644,2053
1629456584648,2053
1629456584652,2053
1629456584656,2054
1629456584660,2053
1629456584664,2053
1629456584668,2053
1629456584672,2053
1629456584676,2053
1629456584680,2052
1629456584684,2051
1629456584688,2049
1629456584692,2048
1629456584696,2048
1629456584700,2048
1629456584704,2048
1629456584708,2048
1629456584712,2048
1629456584716,2048
1629456584720,2048
1629456584724,2048
1629456584728,2049
1629456584732,2050
1629456584736,2052
1629456584740,2054
1629456584744,2055
1629456584748,2055
1629456584752,2055
1629456584756,2055
1629456584760,2054
1629456584764,2054
1629456584768,2054
1629456584772,2054
1629456584776,2055
1629456584780,2055
1629456584784,2055
1629456584788,2055
1629456584792,2054
1629456584796,2054
1629456584800,2054
1629456584804,2055
1629456584808,2056
1629456584812,2056
1629456584816,2051
1629456584820,2036
1629456584824,2007
1629456584828,1970
1629456584832,1938
1629456584836,1924
1629456584840,1935
1629456584844,1968
1629456584848,2012
1629456584852,2049
1629456584856,2074
1629456584860,2083
1629456584864,2082
1629456584868,2076
1629456584872,2071
1629456584876,2066
1629456584880,2061
1629456584884,2058
1629456584888,2056
1629456584892,2056
1629456584896,2056
1629456584900,2055
1629456584904,2055
1629456584908,2054
1629456584912,2053
1629456584916,2052
1629456584920,2051
1629456584924,2051
1629456584928,2051
1629456584932,2050
1629456584936,2050
1629456584940,2050
1629456584944,2050
1629456584948,2050
1629456584952,2049
1629456584956,2048
1629456584960,2047
1629456584964,2046
1629456584968,2045
1629456584972,2045
1629456584976,2045
1629456584980,2045
1629456584984,2044
1629456584988,2043
1629456584992,2042
1629456584996,2040
1629456585000,2039
1629456585004,2037
1629456585008,2036
1629456585012,2035
1629456585016,2034
1629456585020,2032
1629456585024,2031
1629456585028,2029
1629456585032,2028
1629456585036,2026
1629456585040,2025
1629456585044,2024
1629456585048,2023
1629456585052,2023
1629456585056,2023
1629456585060,2024
1629456585064,2024
1629456585068,2025
1629456585072,2027
1629456585076,2029
1629456585080,2031
1629456585084,2033
1629456585088,2036
1629456585092,2039
1629456585096,2042
1629456585100,2045
1629456585104,2048
1629456585108,2049
1629456585112,2051
1629456585116,2052
1629456585120,2053
1629456585124,2054
1629456585128,2055
1629456585132,2055
1629456585136,2056
1629456585140,2056
1629456585144,2057
1629456585148,2057
1629456585152,2057
1629456585156,2057
1629456585160,2056
1629456585164,2056
1629456585168,2055
1629456585172,2055
1629456585176,2056
1629456585180,2057
1629456585184,2057
1629456585188,2057
1629456585192,2056
1629456585196,2055
1629456585200,2055
1629456585204,2055
1629456585208,2055
1629456585212,2056
1629456585216,2057
1629456585220,2057
1629456585224,2057
1629456585228,2057
1629456585232,2056
1629456585236,2055
1629456585240,2054
1629456585244,2054
1629456585248,2054
1629456585252,2054
1629456585256,2054
1629456585260,2054
1629456585264,2055
1629456585268,2055
1629456585272,2054
1629456585276,2054
1629456585280,2054
1629456585284,2054
1629456585288,2054
1629456585292,2054
1629456585296,2055
1629456585300,2055
1629456585304,2055
1629456585308,2054
1629456585312,2054
1629456585316,2054
1629456585320,2054
1629456585324,2054
1629456585328,2055
1629456585332,2056
1629456585336,2057
1629456585340,2058
1629456585344,2058
1629456585348,2058
1629456585352,2058
1629456585356,2058
1629456585360,2058
1629456585364,2058
1629456585368,2058
1629456585372,2058
1629456585376,2059
1629456585380,2059
1629456585384,2059
1629456585388,2059
1629456585392,2058
1629456585396,2056
1629456585400,2055
1629456585404,2054
1629456585408,2054
1629456585412,2055
1629456585416,2056
1629456585420,2056
1629456585424,2056
1629456585428,2055
1629456585432,2053
1629456585436,2052
1629456585440,2050
1629456585444,2050
1629456585448,2050
1629456585452,2050
1629456585456,2051
1629456585460,2051
1629456585464,2052
1629456585468,2053
1629456585472,2054
1629456585476,2055
1629456585480,2056
1629456585484,2057
1629456585488,2057
1629456585492,2057
1629456585496,2057
1629456585500,2058
1629456585504,2058
1629456585508,2058
1629456585512,2058
1629456585516,2058
1629456585520,2057
1629456585524,2057
1629456585528,2057
1629456585532,2057
1629456585536,2057
1629456585540,2058
1629456585544,2059
1629456585548,2061
1629456585552,2061
1629456585556,2057
1629456585560,2047
1629456585564,2022
1629456585568,1988
1629456585572,1953
1629456585576,1931
1629456585580,1931
1629456585584,1957
1629456585588,1998
1629456585592,2039
1629456585596,2067
1629456585600,2081
1629456585604,2082
1629456585608,2078
1629456585612,2073
1629456585616,2069
1629456585620,2065
1629456585624,2062
1629456585628,2059
1629456585632,2058
1629456585636,2057
1629456585640,2056
1629456585644,2055
1629456585648,2055
1629456585652,2055
1629456585656,2055
1629456585660,2054
1629456585664,2054
1629456585668,2053
1629456585672,2053
1629456585676,2052
1629456585680,2052
1629456585684,2051
1629456585688,2050
1629456585692,2049
1629456585696,2049
1629456585700,2049
1629456585704,2049
1629456585708,2049
1629456585712,2048
1629456585716,2046
1629456585720,2045
1629456585724,2044
1629456585728,2043
1629456585732,2042
1629456585736,2042
1629456585740,2041
1629456585744,2040
1629456585748,2038
1629456585752,2037
1629456585756,2034
1629456585760,2032
1629456585764,2030
1629456585768,2029
1629456585772,2028
1629456585776,2027
1629456585780,2026
1629456585784,2025
1629456585788,2024
1629456585792,2023
1629456585796,2022
1629456585800,2022
1629456585804,2022
1629456585808,2023
1629456585812,2025
1629456585816,2027
1629456585820,2030
1629456585824,2032
1629456585828,2035
1629456585832,2038
1629456585836,2040
1629456585840,2043
1629456585844,2046
1629456585848,2048
1629456585852,2050
1629456585856,2052
1629456585860,2053
1629456585864,2054
1629456585868,2055
1629456585872,2055
1629456585876,2056
1629456585880,2056
1629456585884,2056
1629456585888,2056
1629456585892,2056
1629456585896,2056
1629456585900,2057
1629456585904,2057
1629456585908,2057
1629456585912,2058
1629456585916,2057
1629456585920,2057
1629456585924,2057
1629456585928,2057
1629456585932,2057
1629456585936,2057
1629456585940,2057
1629456585944,2057
1629456585948,2057
1629456585952,2056
1629456585956,2055
1629456585960,2055
1629456585964,2055
1629456585968,2055
1629456585972,2055
1629456585976,2056
1629456585980,2056
1629456585984,2055
1629456585988,2055
1629456585992,2054
1629456585996,2053
1629456586000,2053
1629456586004,2053
1629456586008,2053
1629456586012,2054
1629456586016,2054
1629456586020,2055
1629456586024,2055
1629456586028,2055
1629456586032,2054
1629456586036,2054
1629456586040,2053
1629456586044,2053
1629456586048,2053
1629456586052,2053
1629456586056,2054
1629456586060,2054
1629456586064,2054
1629456586068,2054
1629456586072,2054
1629456586076,2054
1629456586080,2054
1629456586084,2053
1629456586088,2053
1629456586092,2054
1629456586096,2054
1629456586100,2054
1629456586104,2053
1629456586108,2052
1629456586112,2051
1629456586116,2051
1629456586120,2052
1629456586124,2052
1629456586128,2052
1629456586132,2051
1629456586136,2050
1629456586140,2049
1629456586144,2048
1629456586148,2048
1629456586152,2048
1629456586156,2048
1629456586160,2048
1629456586164,2048
1629456586168,2048
1629456586172,2049
1629456586176,2051
1629456586180,2053
1629456586184,2055
1629456586188,2056
1629456586192,2056
1629456586196,2056
1629456586200,2056
1629456586204,2056
1629456586208,2056
1629456586212,2057
1629456586216,2058
1629456586220,2058
1629456586224,2059
1629456586228,2058
1629456586232,2058
1629456586236,2057
1629456586240,2056
1629456586244,2056
1629456586248,2056
1629456586252,2057
1629456586256,2059
1629456586260,2060
1629456586264,2056
1629456586268,2044
1629456586272,2018
1629456586276,1982
1629456586280,1947
1629456586284,1928
1629456586288,1933
1629456586292,1962
1629456586296,2004
1629456586300,2045
1629456586304,2072
1629456586308,2084
1629456586312,2084
1629456586316,2078
1629456586320,2072
1629456586324,2067
1629456586328,2062
1629456586332,2058
1629456586336,2056
1629456586340,2056
1629456586344,2056
1629456586348,2056
1629456586352,2055
1629456586356,2054
1629456586360,2053
1629456586364,2052
1629456586368,2052
1629456586372,2052
1629456586376,2052
1629456586380,2051
1629456586384,2051
1629456586388,2051
1629456586392,2050
1629456586396,2049
1629456586400,2048
1629456586404,2048
1629456586408,2048
1629456586412,2048
1629456586416,2048
1629456586420,2047
1629456586424,2047
1629456586428,2046
1629456586432,2044
1629456586436,2043
1629456586440,2042
1629456586444,2041
1629456586448,2040
1629456586452,2039
1629456586456,2038
1629456586460,2036
1629456586464,2035
1629456586468,2033
1629456586472,2032
1629456586476,2030
1629456586480,2028
1629456586484,2026
1629456586488,2025
1629456586492,2024
1629456586496,2023
1629456586500,2023
1629456586504,2024
1629456586508,2024
1629456586512,2024
1629456586516,2025
1629456586520,2026
1629456586524,2027
1629456586528,2030
1629456586532,2033
1629456586536,2037
1629456586540,2040
1629456586544,2044
1629456586548,2046
1629456586552,2048
1629456586556,2049
1629456586560,2051
1629456586564,2052
1629456586568,2053
1629456586572,2055
1629456586576,2056
1629456586580,2057
1629456586584,2057
1629456586588,2057
1629456586592,2058
1629456586596,2058
1629456586600,2057
1629456586604,2057
1629456586608,2057
1629456586612,2058
1629456586616,2058
1629456586620,2058
1629456586624,2059
1629456586628,2059
1629456586632,2059
1629456586636,2059
1629456586640,2059
1629456586644,2059
1629456586648,2058
1629456586652,2058
1629456586656,2058
1629456586660,2057
1629456586664,2057
1629456586668,2057
1629456586672,2057
1629456586676,2056
1629456586680,2056
1629456586684,2056
1629456586688,2055
1629456586692,2055
1629456586696,2055
1629456586700,2055
1629456586704,2056
1629456586708,2056
1629456586712,2056
1629456586716,2055
1629456586720,2054
1629456586724,2054
1629456586728,2054
1629456586732,2055
1629456586736,2055
1629456586740,2056
1629456586744,2056
1629456586748,2056
1629456586752,2055
1629456586756,2055
1629456586760,2054
1629456586764,2054
1629456586768,2054
1629456586772,2055
1629456586776,2055
1629456586780,2056
1629456586784,2056
1629456586788,2055
1629456586792,2055
1629456586796,2054
1629456586800,2053
1629456586804,2052
1629456586808,2053
1629456586812,2053
1629456586816,2053
1629456586820,2053
1629456586824,2052
1629456586828,2050
1629456586832,2049
1629456586836,2048
1629456586840,2048
1629456586844,2048
1629456586848,2048
1629456586852,2048
1629456586856,2048
1629456586860,2050
1629456586864,2052
1629456586868,2054
1629456586872,2056
1629456586876,2057
1629456586880,2057
1629456586884,2057
1629456586888,2056
1629456586892,2056
1629456586896,2056
1629456586900,2056
1629456586904,2057
1629456586908,2058
1629456586912,2058
1629456586916,2058
1629456586920,2057
1629456586924,2056
1629456586928,2055
1629456586932,2055
1629456586936,2057
1629456586940,2059
1629456586944,2061
1629456586948,2060
1629456586952,2054
1629456586956,2038
1629456586960,2008
1629456586964,1971
1629456586968,1940
1629456586972,1928
1629456586976,1942
1629456586980,1976
1629456586984,2020
1629456586988,2056
1629456586992,2078
1629456586996,2085
1629456587000,2082
1629456587004,2076
1629456587008,2071
1629456587012,2067
1629456587016,2063
1629456587020,2060
1629456587024,2058
1629456587028,2057
1629456587032,2057
1629456587036,2057
1629456587040,2056
1629456587044,2055
1629456587048,2054
1629456587052,2054
1629456587056,2054
1629456587060,2054
1629456587064,2053
1629456587068,2053
1629456587072,2053
1629456587076,2052
1629456587080,2051
1629456587084,2050
1629456587088,2049
1629456587092,2049
1629456587096,2049
1629456587100,2048
1629456587104,2048
1629456587108,2048
1629456587112,2048
1629456587116,2047
1629456587120,2045
1629456587124,2044
1629456587128,2044
1629456587132,2043
1629456587136,2043
1629456587140,2042
1629456587144,2040
1629456587148,2038
1629456587152,2036
1629456587156,2034
1629456587160,2032
1629456587164,2031
1629456587168,2030
1629456587172,2029
1629456587176,2029
1629456587180,2028
1629456587184,2028
1629456587188,2027
1629456587192,2027
1629456587196,2027
1629456587200,2027
1629456587204,2028
1629456587208,2030
1629456587212,2032
1629456587216,2036
1629456587220,2039
1629456587224,2042
1629456587228,2045
1629456587232,2047
1629456587236,2049
1629456587240,2050
1629456587244,2052
1629456587248,2053
1629456587252,2055
1629456587256,2057
1629456587260,2058
1629456587264,2059
1629456587268,2059
1629456587272,2060
1629456587276,2059
1629456587280,2059
1629456587284,2059
1629456587288,2059
1629456587292,2059
1629456587296,2059
1629456587300,2060
1629456587304,2060
1629456587308,2060
1629456587312,2060
1629456587316,2059
1629456587320,2059
1629456587324,2060
1629456587328,2060
1629456587332,2060
1629456587336,2059
1629456587340,2058
1629456587344,2058
1629456587348,2058
1629456587352,2058
1629456587356,2058
1629456587360,2058
1629456587364,2057
1629456587368,2057
1629456587372,2057
1629456587376,2056
1629456587380,2056
1629456587384,2056
1629456587388,2056
1629456587392,2055
1629456587396,2055
1629456587400,2054
1629456587404,2054
1629456587408,2054
1629456587412,2054
1629456587416,2055
1629456587420,2055
1629456587424,2055
1629456587428,2055
1629456587432,2055
1629456587436,2054
1629456587440,2054
1629456587444,2054
1629456587448,2054
1629456587452,2054
1629456587456,2054
1629456587460,2054
1629456587464,2054
1629456587468,2054
1629456587472,2054
1629456587476,2053
1629456587480,2053
1629456587484,2053
1629456587488,2052
1629456587492,2051
1629456587496,2049
1629456587500,2048
1629456587504,2048
1629456587508,2048
1629456587512,2048
1629456587516,2048
1629456587520,2048
1629456587524,2048
1629456587528,2048
1629456587532,2050
1629456587536,2052
1629456587540,2055
1629456587544,2056
1629456587548,2057
1629456587552,2058
1629456587556,2057
1629456587560,2057
1629456587564,2057
1629456587568,2057
1629456587572,2057
1629456587576,2057
1629456587580,2057
1629456587584,2057
1629456587588,2056
1629456587592,2056
1629456587596,2055
1629456587600,2055
1629456587604,2056
1629456587608,2057
1629456587612,2058
1629456587616,2059
1629456587620,2057
1629456587624,2048
1629456587628,2025
1629456587632,1991
1629456587636,1955
1629456587640,1929
1629456587644,1927
1629456587648,1950
1629456587652,1991
1629456587656,2035
1629456587660,2067
1629456587664,2084
1629456587668,2087
1629456587672,2082
1629456587676,2075
1629456587680,2069
1629456587684,2064
1629456587688,2061
1629456587692,2058
1629456587696,2057
1629456587700,2057
1629456587704,2056
1629456587708,2055
1629456587712,2054
1629456587716,2052
1629456587720,2052
1629456587724,2051
1629456587728,2051
1629456587732,2051
1629456587736,2050
1629456587740,2050
1629456587744,2050
1629456587748,2050
1629456587752,2049
1629456587756,2048
1629456587760,2048
1629456587764,2047
1629456587768,2046
1629456587772,2046
1629456587776,2046
1629456587780,2046
1629456587784,2046
1629456587788,2045
1629456587792,2045
1629456587796,2043
1629456587800,2042
1629456587804,2040
1629456587808,2039
1629456587812,2037
1629456587816,2036
1629456587820,2035
1629456587824,2034
1629456587828,2032
1629456587832,2030
1629456587836,2028
1629456587840,2026
1629456587844,2025
1629456587848,2024
1629456587852,2023
1629456587856,2024
1629456587860,2024
1629456587864,2025
1629456587868,2025
1629456587872,2026
1629456587876,2027
1629456587880,2028
1629456587884,2031
1629456587888,2034
1629456587892,2037
1629456587896,2041
1629456587900,2045
1629456587904,2048
1629456587908,2050
1629456587912,2052
1629456587916,2053
1629456587920,2054
1629456587924,2056
1629456587928,2057
1629456587932,2058
1629456587936,2059
1629456587940,2060
1629456587944,2060
1629456587948,2060
1629456587952,2060
1629456587956,2060
1629456587960,2060
1629456587964,2060
1629456587968,2060
1629456587972,2060
1629456587976,2061
1629456587980,2061
1629456587984,2062
1629456587988,2062
1629456587992,2062
1629456587996,2062
1629456588000,2061
1629456588004,2061
1629456588008,2060
1629456588012,2060
1629456588016,2059
1629456588020,2059
1629456588024,2059
1629456588028,2059
1629456588032,2058
1629456588036,2058
1629456588040,2057
1629456588044,2057
1629456588048,2057
1629456588052,2057
1629456588056,2057
1629456588060,2057
1629456588064,2057
1629456588068,2057
1629456588072,2057
1629456588076,2057
1629456588080,2056
1629456588084,2055
1629456588088,2055
1629456588092,2056
1629456588096,2057
1629456588100,2057
1629456588104,2058
1629456588108,2057
1629456588112,2056
1629456588116,2055
1629456588120,2054
1629456588124,2054
1629456588128,2054
1629456588132,2055
1629456588136,2056
1629456588140,2057
1629456588144,2056
1629456588148,2054
1629456588152,2052
1629456588156,2051
1629456588160,2050
1629456588164,2050
1629456588168,2050
1629456588172,2051
1629456588176,2051
1629456588180,2052
1629456588184,2053
1629456588188,2055
1629456588192,2056
1629456588196,2058
1629456588200,2058
1629456588204,2058
1629456588208,2058
1629456588212,2058
1629456588216,2059
1629456588220,2059
1629456588224,2060
1629456588228,2060
1629456588232,2059
1629456588236,2059
1629456588240,2058
1629456588244,2058
1629456588248,2058
1629456588252,2059
1629456588256,2059
1629456588260,2060
1629456588264,2061
1629456588268,2062
1629456588272,2062
1629456588276,2058
1629456588280,2044
1629456588284,2017
1629456588288,1980
1629456588292,1947
1629456588296,1930
1629456588300,1938
1629456588304,1970
1629456588308,2014
1629456588312,2053
1629456588316,2078
1629456588320,2088
1629456588324,2087
1629456588328,2081
1629456588332,2076
1629456588336,2071
1629456588340,2067
1629456588344,2063
1629456588348,2061
1629456588352,2060
1629456588356,2059
1629456588360,2059
1629456588364,2058
1629456588368,2057
1629456588372,2056
1629456588376,2056
1629456588380,2056
1629456588384,2056
1629456588388,2056
1629456588392,2055
1629456588396,2054
1629456588400,2053
1629456588404,2052
1629456588408,2052
1629456588412,2051
1629456588416,2051
1629456588420,2051
1629456588424,2050
1629456588428,2049
1629456588432,2048
1629456588436,2048
1629456588440,2048
1629456588444,2047
1629456588448,2046
1629456588452,2046
1629456588456,2045
1629456588460,2044
1629456588464,2042
1629456588468,2041
1629456588472,2039
1629456588476,2036
1629456588480,2034
1629456588484,2032
1629456588488,2031
1629456588492,2031
1629456588496,2031
1629456588500,2031
1629456588504,2031
1629456588508,2030
1629456588512,2030
1629456588516,2029
1629456588520,2029
1629456588524,2030
1629456588528,2031
1629456588532,2033
1629456588536,2036
1629456588540,2039
1629456588544,2042
1629456588548,2045
1629456588552,2048
1629456588556,2050
1629456588560,2052
1629456588564,2055
1629456588568,2056
1629456588572,2058
1629456588576,2059
1629456588580,2060
1629456588584,2061
1629456588588,2062
1629456588592,2062
1629456588596,2062
1629456588600,2062
1629456588604,2062
1629456588608,2062
1629456588612,2062
1629456588616,2063
1629456588620,2063
1629456588624,2063
1629456588628,2063
1629456588632,2063
1629456588636,2063
1629456588640,2062
1629456588644,2062
1629456588648,2062
1629456588652,2062
1629456588656,2062
1629456588660,2062
1629456588664,2062
1629456588668,2062
1629456588672,2061
1629456588676,2061
1629456588680,2060
1629456588684,2059
1629456588688,2059
1629456588692,2060
1629456588696,2060
1629456588700,2060
1629456588704,2060
1629456588708,2060
1629456588712,2059
1629456588716,2058
1629456588720,2058
1629456588724,2058
1629456588728,2057
1629456588732,2057
1629456588736,2058
1629456588740,2058
1629456588744,2058
1629456588748,2058
1629456588752,2058
1629456588756,2058
1629456588760,2057
1629456588764,2057
1629456588768,2057
1629456588772,2057
1629456588776,2057
1629456588780,2057
1629456588784,2058
1629456588788,2058
1629456588792,2058
1629456588796,2057
1629456588800,2057
1629456588804,2056
1629456588808,2055
1629456588812,2055
1629456588816,2056
1629456588820,2056
1629456588824,2056
1629456588828,2056
1629456588832,2055
1629456588836,2054
1629456588840,2052
1629456588844,2051
1629456588848,2050
1629456588852,2050
1629456588856,2051
1629456588860,2051
1629456588864,2051
1629456588868,2052
1629456588872,2052
1629456588876,2053
1629456588880,2054
1629456588884,2056
1629456588888,2057
1629456588892,2057
1629456588896,2058
1629456588900,2058
1629456588904,2058
1629456588908,2059
1629456588912,2059
1629456588916,2059
1629456588920,2059
1629456588924,2058
1629456588928,2057
1629456588932,2057
1629456588936,2057
1629456588940,2058
1629456588944,2059
1629456588948,2060
1629456588952,2061
1629456588956,2062
1629456588960,2061
1629456588964,2055
1629456588968,2041
1629456588972,2014
1629456588976,1978
1629456588980,1946
1629456588984,1929
1629456588988,1937
1629456588992,1968
1629456588996,2010
1629456589000,2048
1629456589004,2073
1629456589008,2083
1629456589012,2082
1629456589016,2078
1629456589020,2074
1629456589024,2070
1629456589028,2066
1629456589032,2063
1629456589036,2060
1629456589040,2059
1629456589044,2058
1629456589048,2058
1629456589052,2057
1629456589056,2057
1629456589060,2057
1629456589064,2056
1629456589068,2056
1629456589072,2056
1629456589076,2055
1629456589080,2054
1629456589084,2054
1629456589088,2053
1629456589092,2053
1629456589096,2053
1629456589100,2053
1629456589104,2053
1629456589108,2052
1629456589112,2051
1629456589116,2050
1629456589120,2048
1629456589124,2048
1629456589128,2048
1629456589132,2048
1629456589136,2048
1629456589140,2047
1629456589144,2046
1629456589148,2044
1629456589152,2042
1629456589156,2041
1629456589160,2039
1629456589164,2038
1629456589168,2036
1629456589172,2034
1629456589176,2033
1629456589180,2031
1629456589184,2031
1629456589188,2030
1629456589192,2028
1629456589196,2027
1629456589200,2026
1629456589204,2025
1629456589208,2025
1629456589212,2027
1629456589216,2028
1629456589220,2030
1629456589224,2033
1629456589228,2035
1629456589232,2038
1629456589236,2041
1629456589240,2043
1629456589244,2046
1629456589248,2048
1629456589252,2050
1629456589256,2053
1629456589260,2055
1629456589264,2057
1629456589268,2058
1629456589272,2058
1629456589276,2058
1629456589280,2058
1629456589284,2059
1629456589288,2059
1629456589292,2059
1629456589296,2060
1629456589300,2060
1629456589304,2060
1629456589308,2060
1629456589312,2060
1629456589316,2059
1629456589320,2059
1629456589324,2059
1629456589328,2059
1629456589332,2059
1629456589336,2060
1629456589340,2060
1629456589344,2060
1629456589348,2060
1629456589352,2060
1629456589356,2060
1629456589360,2060
1629456589364,2059
1629456589368,2059
1629456589372,2059
1629456589376,2059
1629456589380,2059
1629456589384,2059
1629456589388,2059
1629456589392,2058
1629456589396,2058
1629456589400,2057
1629456589404,2057
1629456589408,2057
1629456589412,2057
1629456589416,2058
1629456589420,2058
1629456589424,2058
1629456589428,2058
1629456589432,2058
1629456589436,2057
1629456589440,2057
1629456589444,2057
1629456589448,2057
1629456589452,2057
1629456589456,2057
1629456589460,2058
1629456589464,2058
1629456589468,2058
1629456589472,2058
1629456589476,2057
1629456589480,2056
1629456589484,2055
1629456589488,2055
1629456589492,2056
1629456589496,2057
1629456589500,2058
1629456589504,2059
1629456589508,2059
1629456589512,2058
1629456589516,2058
1629456589520,2057
1629456589524,2057
1629456589528,2057
1629456589532,2057
1629456589536,2057
1629456589540,2057
1629456589544,2057
1629456589548,2057
1629456589552,2057
1629456589556,2056
1629456589560,2055
1629456589564,2054
1629456589568,2052
1629456589572,2052
1629456589576,2052
1629456589580,2053
1629456589584,2054
1629456589588,2054
1629456589592,2054
1629456589596,2053
1629456589600,2052
1629456589604,2053
1629456589608,2054
1629456589612,2056
1629456589616,2058
1629456589620,2060
1629456589624,2061
1629456589628,2061
1629456589632,2061
1629456589636,2060
1629456589640,2060
1629456589644,2060
1629456589648,2060
1629456589652,2060
1629456589656,2060
1629456589660,2060
1629456589664,2060
1629456589668,2060
1629456589672,2061
1629456589676,2061
1629456589680,2062
1629456589684,2063
1629456589688,2064
1629456589692,2062
1629456589696,2052
1629456589700,2031
1629456589704,1997
1629456589708,1960
1629456589712,1934
1629456589716,1930
1629456589720,1952
1629456589724,1992
1629456589728,2035
1629456589732,2066
1629456589736,2083
1629456589740,2086
1629456589744,2082
1629456589748,2077
1629456589752,2073
1629456589756,2068
1629456589760,2064
1629456589764,2061
1629456589768,2060
1629456589772,2060
1629456589776,2060
1629456589780,2060
1629456589784,2060
1629456589788,2059
1629456589792,2059
1629456589796,2058
1629456589800,2057
1629456589804,2057
1629456589808,2057
1629456589812,2057
1629456589816,2057
1629456589820,2057
1629456589824,2057
1629456589828,2056
1629456589832,2056
1629456589836,2055
1629456589840,2054
1629456589844,2053
1629456589848,2052
1629456589852,2052
1629456589856,2052
1629456589860,2051
1629456589864,2051
1629456589868,2049
1629456589872,2048
1629456589876,2047
1629456589880,2045
1629456589884,2043
1629456589888,2042
1629456589892,2041
1629456589896,2040
1629456589900,2039
1629456589904,2037
1629456589908,2035
1629456589912,2034
1629456589916,2032
1629456589920,2031
1629456589924,2030
1629456589928,2029
1629456589932,2029
1629456589936,2030
1629456589940,2030
1629456589944,2032
1629456589948,2033
1629456589952,2035
1629456589956,2037
1629456589960,2039
1629456589964,2042
1629456589968,2045
1629456589972,2047
1629456589976,2049
1629456589980,2052
1629456589984,2054
1629456589988,2056
1629456589992,2058
1629456589996,2059
1629456590000,2060
1629456590004,2060
1629456590008,2060
1629456590012,2061
1629456590016,2062
1629456590020,2062
1629456590024,2062
1629456590028,2062
1629456590032,2062
1629456590036,2061
1629456590040,2061
1629456590044,2061
1629456590048,2061
1629456590052,2062
1629456590056,2062
1629456590060,2063
1629456590064,2062
1629456590068,2062
1629456590072,2061
1629456590076,2061
1629456590080,2061
1629456590084,2060
1629456590088,2060
1629456590092,2060
1629456590096,2060
1629456590100,2060
1629456590104,2060
1629456590108,2060
1629456590112,2059
1629456590116,2059
1629456590120,2059
1629456590124,2058
1629456590128,2058
1629456590132,2058
1629456590136,2059
1629456590140,2058
1629456590144,2058
1629456590148,2058
1629456590152,2057
1629456590156,2057
1629456590160,2056
1629456590164,2056
1629456590168,2056
1629456590172,2056
1629456590176,2057
1629456590180,2057
1629456590184,2057
1629456590188,2057
1629456590192,2056
1629456590196,2055
1629456590200,2054
1629456590204,2054
1629456590208,2054
1629456590212,2054
1629456590216,2054
1629456590220,2054
1629456590224,2055
1629456590228,2054
1629456590232,2053
1629456590236,2053
1629456590240,2052
1629456590244,2052
1629456590248,2052
1629456590252,2052
1629456590256,2052
1629456590260,2052
1629456590264,2053
1629456590268,2053
1629456590272,2053
1629456590276,2052
1629456590280,2052
1629456590284,2052
1629456590288,2052
1629456590292,2052
1629456590296,2051
1629456590300,2051
1629456590304,2050
1629456590308,2050
1629456590312,2050
1629456590316,2050
1629456590320,2049
1629456590324,2048
1629456590328,2048
1629456590332,2047
1629456590336,2046
1629456590340,2046
1629456590344,2047
1629456590348,2047
1629456590352,2046
1629456590356,2045
1629456590360,2044
1629456590364,2045
1629456590368,2046
1629456590372,2048
1629456590376,2049
1629456590380,2051
1629456590384,2052
1629456590388,2052
1629456590392,2052
1629456590396,2052
1629456590400,2052
1629456590404,2052
1629456590408,2052
1629456590412,2052
1629456590416,2052
1629456590420,2052
1629456590424,2053
1629456590428,2053
1629456590432,2053
1629456590436,2052
1629456590440,2052
1629456590444,2053
1629456590448,2054
1629456590452,2054
1629456590456,2049
1629456590460,2033
1629456590464,2004
1629456590468,1966
1629456590472,1934
1629456590476,1920
1629456590480,1932
1629456590484,1967
1629456590488,2011
1629456590492,2050
1629456590496,2074
1629456590500,2083
1629456590504,2081
1629456590508,2075
1629456590512,2069
1629456590516,2063
1629456590520,2057
1629456590524,2053
1629456590528,2052
1629456590532,2052
1629456590536,2052
1629456590540,2052
1629456590544,2052
1629456590548,2051
1629456590552,2049
1629456590556,2048
1629456590560,2048
1629456590564,2048
1629456590568,2048
1629456590572,2048
1629456590576,2048
1629456590580,2048
1629456590584,2048
1629456590588,2047
1629456590592,2047
1629456590596,2046
1629456590600,2045
1629456590604,2043
1629456590608,2042
1629456590612,2042
1629456590616,2042
1629456590620,2042
1629456590624,2043
1629456590628,2042
1629456590632,2041
1629456590636,2039
1629456590640,2037
1629456590644,2035
1629456590648,2033
1629456590652,2032
1629456590656,2031
1629456590660,2030
1629456590664,2028
1629456590668,2026
1629456590672,2025
1629456590676,2024
1629456590680,2023
1629456590684,2023
1629456590688,2023
1629456590692,2023
1629456590696,2023
1629456590700,2023
1629456590704,2024
1629456590708,2025
1629456590712,2027
1629456590716,2028
1629456590720,2030
1629456590724,2033
1629456590728,2036
1629456590732,2039
1629456590736,2043
1629456590740,2046
1629456590744,2048
1629456590748,2049
1629456590752,2051
1629456590756,2053
1629456590760,2053
1629456590764,2054
1629456590768,2054
1629456590772,2055
1629456590776,2056
1629456590780,2057
1629456590784,2058
1629456590788,2058
1629456590792,2057
1629456590796,2056
1629456590800,2056
1629456590804,2056
1629456590808,2057
1629456590812,2058
1629456590816,2059
1629456590820,2059
1629456590824,2060
1629456590828,2059
1629456590832,2059
1629456590836,2058
1629456590840,2057
1629456590844,2057
1629456590848,2056
1629456590852,2056
1629456590856,2056
1629456590860,2056
1629456590864,2056
1629456590868,2056
1629456590872,2056
1629456590876,2056
1629456590880,2055
1629456590884,2054
1629456590888,2054
1629456590892,2054
1629456590896,2053
1629456590900,2053
1629456590904,2054
1629456590908,2054
1629456590912,2054
1629456590916,2054
1629456590920,2053
1629456590924,2053
1629456590928,2053
1629456590932,2053
1629456590936,2053
1629456590940,2053
1629456590944,2053
1629456590948,2053
1629456590952,2053
1629456590956,2053
1629456590960,2053
1629456590964,2054
1629456590968,2054
1629456590972,2054
1629456590976,2054
1629456590980,2054
1629456590984,2054
1629456590988,2054
1629456590992,2054
1629456590996,2054
1629456591000,2054
1629456591004,2054
1629456591008,2054
1629456591012,2054
1629456591016,2055
1629456591020,2055
1629456591024,2054
1629456591028,2054
1629456591032,2054
1629456591036,2053
1629456591040,2053
1629456591044,2053
1629456591048,2053
1629456591052,2054
1629456591056,2055
1629456591060,2055
1629456591064,2054
1629456591068,2052
1629456591072,2051
1629456591076,2050
1629456591080,2049
1629456591084,2049
1629456591088,2049
1629456591092,2050
1629456591096,2050
1629456591100,2050
1629456591104,2050
1629456591108,2051
1629456591112,2052
1629456591116,2053
1629456591120,2054
1629456591124,2055
1629456591128,2056
1629456591132,2057
1629456591136,2058
1629456591140,2058
1629456591144,2058
1629456591148,2058
1629456591152,2058
1629456591156,2057
1629456591160,2057
1629456591164,2056
1629456591168,2056
1629456591172,2056
1629456591176,2057
1629456591180,2058
1629456591184,2060
1629456591188,2061
1629456591192,2059
1629456591196,2050
1629456591200,2030
1629456591204,1997
1629456591208,1961
1629456591212,1934
1629456591216,1929
1629456591220,1949
1629456591224,1988
1629456591228,2032
1629456591232,2065
1629456591236,2084
1629456591240,2089
1629456591244,2085
1629456591248,2078
1629456591252,2073
1629456591256,2067
1629456591260,2063
1629456591264,2060
1629456591268,2059
1629456591272,2059
1629456591276,2058
1629456591280,2058
1629456591284,2058
1629456591288,2057
1629456591292,2056
1629456591296,2056
1629456591300,2056
1629456591304,2055
1629456591308,2055
1629456591312,2054
1629456591316,2053
1629456591320,2052
1629456591324,2051
1629456591328,2051
1629456591332,2051
1629456591336,2051
1629456591340,2051
1629456591344,2051
1629456591348,2050
1629456591352,2049
1629456591356,2048
1629456591360,2048
1629456591364,2047
1629456591368,2046
1629456591372,2045
1629456591376,2044
1629456591380,2043
1629456591384,2042
1629456591388,2041
1629456591392,2039
1629456591396,2037
1629456591400,2035
1629456591404,2033
1629456591408,2031
1629456591412,2030
1629456591416,2029
1629456591420,2028
1629456591424,2028
1629456591428,2027
1629456591432,2027
1629456591436,2026
1629456591440,2026
1629456591444,2027
1629456591448,2028
1629456591452,2031
1629456591456,2034
1629456591460,2037
1629456591464,2041
1629456591468,2044
1629456591472,2046
1629456591476,2048
1629456591480,2050
1629456591484,2052
1629456591488,2054
1629456591492,2057
1629456591496,2058
1629456591500,2059
1629456591504,2060
1629456591508,2060
1629456591512,2060
1629456591516,2061
1629456591520,2061
1629456591524,2062
1629456591528,2062
1629456591532,2061
1629456591536,2061
1629456591540,2062
1629456591544,2062
1629456591548,2062
1629456591552,2062
1629456591556,2062
1629456591560,2061
1629456591564,2061
1629456591568,2062
1629456591572,2062
1629456591576,2062
1629456591580,2062
1629456591584,2062
1629456591588,2062
1629456591592,2062
1629456591596,2061
1629456591600,2060
1629456591604,2060
1629456591608,2060
1629456591612,2059
1629456591616,2059
1629456591620,2059
1629456591624,2059
1629456591628,2059
1629456591632,2059
1629456591636,2058
1629456591640,2057
1629456591644,2057
1629456591648,2057
1629456591652,2057
1629456591656,2058
1629456591660,2057
1629456591664,2057
1629456591668,2057
1629456591672,2057
1629456591676,2056
1629456591680,2056
1629456591684,2055
1629456591688,2055
1629456591692,2056
1629456591696,2057
1629456591700,2057
1629456591704,2058
1629456591708,2058
1629456591712,2057
1629456591716,2057
1629456591720,2057
1629456591724,2057
1629456591728,2057
1629456591732,2057
1629456591736,2058
1629456591740,2058
1629456591744,2058
1629456591748,2058
1629456591752,2058
1629456591756,2058
1629456591760,2058
1629456591764,2057
1629456591768,2057
1629456591772,2058
1629456591776,2058
1629456591780,2058
1629456591784,2059
1629456591788,2059
1629456591792,2059
1629456591796,2058
1629456591800,2058
1629456591804,2058
1629456591808,2058
1629456591812,2058
1629456591816,2058
1629456591820,2059
1629456591824,2059
1629456591828,2060
1629456591832,2059
1629456591836,2059
1629456591840,2058
1629456591844,2058
1629456591848,2057
1629456591852,2057
1629456591856,2058
1629456591860,2058
1629456591864,2059
1629456591868,2059
1629456591872,2058
1629456591876,2058
1629456591880,2057
1629456591884,2057
1629456591888,2057
1629456591892,2057
1629456591896,2058
1629456591900,2058
1629456591904,2059
1629456591908,2059
1629456591912,2058
1629456591916,2058
1629456591920,2057
1629456591924,2057
1629456591928,2057
1629456591932,2057
1629456591936,2057
1629456591940,2057
1629456591944,2057
1629456591948,2057
1629456591952,2056
1629456591956,2056
1629456591960,2055
1629456591964,2055
1629456591968,2055
1629456591972,2054
1629456591976,2054
1629456591980,2053
1629456591984,2052
1629456591988,2052
1629456591992,2052
1629456591996,2052
1629456592000,2051
1629456592004,2051
1629456592008,2050
1629456592012,2050
1629456592016,2051
1629456592020,2053
1629456592024,2055
1629456592028,2056
1629456592032,2057
1629456592036,2058
1629456592040,2057
1629456592044,2057
1629456592048,2057
1629456592052,2057
1629456592056,2058
1629456592060,2059
1629456592064,2059
1629456592068,2059
1629456592072,2058
1629456592076,2057
1629456592080,2057
1629456592084,2057
1629456592088,2058
1629456592092,2060
1629456592096,2062
1629456592100,2061
1629456592104,2056
1629456592108,2040
1629456592112,2010
1629456592116,1973
1629456592120,1939
1629456592124,1924
1629456592128,1935
1629456592132,1968
1629456592136,2010
1629456592140,2048
1629456592144,2072
1629456592148,2082
1629456592152,2082
1629456592156,2078
1629456592160,2074
1629456592164,2070
1629456592168,2066
1629456592172,2063
1629456592176,2062
1629456592180,2061
1629456592184,2062
1629456592188,2062
1629456592192,2062
1629456592196,2061
1629456592200,2060
1629456592204,2059
1629456592208,2058
1629456592212,2058
1629456592216,2058
1629456592220,2058
1629456592224,2058
1629456592228,2057
1629456592232,2056
1629456592236,2055
1629456592240,2054
1629456592244,2054
1629456592248,2054
1629456592252,2054
1629456592256,2054
1629456592260,2053
1629456592264,2053
1629456592268,2053
1629456592272,2052
1629456592276,2050
1629456592280,2048
1629456592284,2048
1629456592288,2047
1629456592292,2047
1629456592296,2046
1629456592300,2045
1629456592304,2043
1629456592308,2042
1629456592312,2040
1629456592316,2039
1629456592320,2037
1629456592324,2036
1629456592328,2034
1629456592332,2033
1629456592336,2032
1629456592340,2032
1629456592344,2031
1629456592348,2031
1629456592352,2032
1629456592356,2032
1629456592360,2033
1629456592364,2034
1629456592368,2036
1629456592372,2038
1629456592376,2041
1629456592380,2044
1629456592384,2048
1629456592388,2050
1629456592392,2052
1629456592396,2054
1629456592400,2055
1629456592404,2056
1629456592408,2058
1629456592412,2059
1629456592416,2061
1629456592420,2062
1629456592424,2063
1629456592428,2063
1629456592432,2063
1629456592436,2063
1629456592440,2062
1629456592444,2062
1629456592448,2062
1629456592452,2062
1629456592456,2062
1629456592460,2062
1629456592464,2062
1629456592468,2062
1629456592472,2062
1629456592476,2061
1629456592480,2061
1629456592484,2061
1629456592488,2061
1629456592492,2061
1629456592496,2062
1629456592500,2062
1629456592504,2062
1629456592508,2061
1629456592512,2061
1629456592516,2061
1629456592520,2060
1629456592524,2060
1629456592528,2060
1629456592532,2060
1629456592536,2059
1629456592540,2059
1629456592544,2059
1629456592548,2059
1629456592552,2059
1629456592556,2059
1629456592560,2058
1629456592564,2058
1629456592568,2058
1629456592572,2058
1629456592576,2058
1629456592580,2058
1629456592584,2059
1629456592588,2059
1629456592592,2059
1629456592596,2058
1629456592600,2058
1629456592604,2058
1629456592608,2058
1629456592612,2058
1629456592616,2059
1629456592620,2059
1629456592624,2059
1629456592628,2059
1629456592632,2059
1629456592636,2059
1629456592640,2059
1629456592644,2058
1629456592648,2058
1629456592652,2058
1629456592656,2059
1629456592660,2059
1629456592664,2059
1629456592668,2059
1629456592672,2059
1629456592676,2059
1629456592680,2058
1629456592684,2058
1629456592688,2058
1629456592692,2058
1629456592696,2059
1629456592700,2059
1629456592704,2059
1629456592708,2059
1629456592712,2059
1629456592716,2058
1629456592720,2058
1629456592724,2058
1629456592728,2058
1629456592732,2058
1629456592736,2058
1629456592740,2059
1629456592744,2059
1629456592748,2059
1629456592752,2059
1629456592756,2058
1629456592760,2057
1629456592764,2057
1629456592768,2057
1629456592772,2057
1629456592776,2057
1629456592780,2057
1629456592784,2058
1629456592788,2057
1629456592792,2057
1629456592796,2056
1629456592800,2055
1629456592804,2053
1629456592808,2052
1629456592812,2052
1629456592816,2052
1629456592820,2052
1629456592824,2053
1629456592828,2052
1629456592832,2051
1629456592836,2051
1629456592840,2050
1629456592844,2051
1629456592848,2052
1629456592852,2055
1629456592856,2057
1629456592860,2059
1629456592864,2060
1629456592868,2060
1629456592872,2060
1629456592876,2059
1629456592880,2059
1629456592884,2059
1629456592888,2059
1629456592892,2059
1629456592896,2059
1629456592900,2059
1629456592904,2059
1629456592908,2058
1629456592912,2059
1629456592916,2060
1629456592920,2061
1629456592924,2062
1629456592928,2060
1629456592932,2053
1629456592936,2035
1629456592940,2003
1629456592944,1967
1629456592948,1937
1629456592952,1928
1629456592956,1944
1629456592960,1979
1629456592964,2021
1629456592968,2055
1629456592972,2076
1629456592976,2083
1629456592980,2081
1629456592984,2077
1629456592988,2073
1629456592992,2069
1629456592996,2065
1629456593000,2062
1629456593004,2060
1629456593008,2060
1629456593012,2060
1629456593016,2060
1629456593020,2060
1629456593024,2060
1629456593028,2059
1629456593032,2058
1629456593036,2057
1629456593040,2056
1629456593044,2055
1629456593048,2055
1629456593052,2054
1629456593056,2055
1629456593060,2055
1629456593064,2055
1629456593068,2054
1629456593072,2054
1629456593076,2053
1629456593080,2052
1629456593084,2051
1629456593088,2050
1629456593092,2050
1629456593096,2050
1629456593100,2050
1629456593104,2049
1629456593108,2048
1629456593112,2047
1629456593116,2046
1629456593120,2044
1629456593124,2042
1629456593128,2041
1629456593132,2040
1629456593136,2039
1629456593140,2037
1629456593144,2036
1629456593148,2034
1629456593152,2032
1629456593156,2030
1629456593160,2029
1629456593164,2028
1629456593168,2028
1629456593172,2028
1629456593176,2028
1629456593180,2029
1629456593184,2030
1629456593188,2031
1629456593192,2033
1629456593196,2035
1629456593200,2037
1629456593204,2040
1629456593208,2043
1629456593212,2046
1629456593216,2049
1629456593220,2051
1629456593224,2054
1629456593228,2055
1629456593232,2056
1629456593236,2057
1629456593240,2058
1629456593244,2059
1629456593248,2060
1629456593252,2060
1629456593256,2061
1629456593260,2061
1629456593264,2062
1629456593268,2061
1629456593272,2061
1629456593276,2061
1629456593280,2060
1629456593284,2060
1629456593288,2060
1629456593292,2060
1629456593296,2061
1629456593300,2061
1629456593304,2062
1629456593308,2062
1629456593312,2061
1629456593316,2061
1629456593320,2060
1629456593324,2060
1629456593328,2060
1629456593332,2061
1629456593336,2061
1629456593340,2061
1629456593344,2061
1629456593348,2060
1629456593352,2060
1629456593356,2059
1629456593360,2058
1629456593364,2058
1629456593368,2058
1629456593372,2058
1629456593376,2058
1629456593380,2058
1629456593384,2059
1629456593388,2058
1629456593392,2058
1629456593396,2057
1629456593400,2056
1629456593404,2056
1629456593408,2055
1629456593412,2056
1629456593416,2057
1629456593420,2058
1629456593424,2058
1629456593428,2058
1629456593432,2057
1629456593436,2056
1629456593440,2055
1629456593444,2056
1629456593448,2056
1629456593452,2057
1629456593456,2058
1629456593460,2058
1629456593464,2057
1629456593468,2057
1629456593472,2057
1629456593476,2057
1629456593480,2056
1629456593484,2056
1629456593488,2056
1629456593492,2056
1629456593496,2056
1629456593500,2057
1629456593504,2058
1629456593508,2058
1629456593512,2057
1629456593516,2056
1629456593520,2056
1629456593524,2056
1629456593528,2056
1629456593532,2055
1629456593536,2055
1629456593540,2055
1629456593544,2055
1629456593548,2055
1629456593552,2055
1629456593556,2055
1629456593560,2054
1629456593564,2054
1629456593568,2055
1629456593572,2055
1629456593576,2055
1629456593580,2055
1629456593584,2055
1629456593588,2054
1629456593592,2054
1629456593596,2053
1629456593600,2053
1629456593604,2052
1629456593608,2052
1629456593612,2052
1629456593616,2052
1629456593620,2052
1629456593624,2051
1629456593628,2049
1629456593632,2048
1629456593636,2046
1629456593640,2046
1629456593644,2047
1629456593648,2048
1629456593652,2048
1629456593656,2048
1629456593660,2047
1629456593664,2045
1629456593668,2044
1629456593672,2044
1629456593676,2044
1629456593680,2044
1629456593684,2043
1629456593688,2042
1629456593692,2041
1629456593696,2042
1629456593700,2044
1629456593704,2046
1629456593708,2048
1629456593712,2049
1629456593716,2049
1629456593720,2050
1629456593724,2050
1629456593728,2051
1629456593732,2051
1629456593736,2052
1629456593740,2053
1629456593744,2052
1629456593748,2051
1629456593752,2049
1629456593756,2048
1629456593760,2048
1629456593764,2048
1629456593768,2048
1629456593772,2051
1629456593776,2053
1629456593780,2052
1629456593784,2045
1629456593788,2024
1629456593792,1992
1629456593796,1958
1629456593800,1934
1629456593804,1933
1629456593808,1956
1629456593812,1997
1629456593816,2040
1629456593820,2072
1629456593824,2090
1629456593828,2094
1629456593832,2091
1629456593836,2086
1629456593840,2080
1629456593844,2075
1629456593848,2071
1629456593852,2068
1629456593856,2068
1629456593860,2068
1629456593864,2069
1629456593868,2069
1629456593872,2069
1629456593876,2069
1629456593880,2068
1629456593884,2069
1629456593888,2069
1629456593892,2070
1629456593896,2070
1629456593900,2070
1629456593904,2070
1629456593908,2069
1629456593912,2068
1629456593916,2068
1629456593920,2067
1629456593924,2066
1629456593928,2066
1629456593932,2065
1629456593936,2065
1629456593940,2065
1629456593944,2064
1629456593948,2064
1629456593952,2063
1629456593956,2061
1629456593960,2060
1629456593964,2059
1629456593968,2058
1629456593972,2057
1629456593976,2055
1629456593980,2054
1629456593984,2052
1629456593988,2050
1629456593992,2048
1629456593996,2047
1629456594000,2045
1629456594004,2044
1629456594008,2044
1629456594012,2043
1629456594016,2043
1629456594020,2043
1629456594024,2042
1629456594028,2041
1629456594032,2040
1629456594036,2041
1629456594040,2041
1629456594044,2043
1629456594048,2045
1629456594052,2048
1629456594056,2049
1629456594060,2052
1629456594064,2055
1629456594068,2057
1629456594072,2059
1629456594076,2061
1629456594080,2061
1629456594084,2062
1629456594088,2063
1629456594092,2064
1629456594096,2065
1629456594100,2066
1629456594104,2066
1629456594108,2067
1629456594112,2066
1629456594116,2066
1629456594120,2065
1629456594124,2064
1629456594128,2064
1629456594132,2064
1629456594136,2065
1629456594140,2065
1629456594144,2065
1629456594148,2065
1629456594152,2065
1629456594156,2064
1629456594160,2063
1629456594164,2063
1629456594168,2062
1629456594172,2062
1629456594176,2062
1629456594180,2062
1629456594184,2062
1629456594188,2062
1629456594192,2061
1629456594196,2060
1629456594200,2059
1629456594204,2058
1629456594208,2058
1629456594212,2057
1629456594216,2057
1629456594220,2057
1629456594224,2058
1629456594228,2057
1629456594232,2057
1629456594236,2056
1629456594240,2055
1629456594244,2055
1629456594248,2055
1629456594252,2055
1629456594256,2056
1629456594260,2056
1629456594264,2057
1629456594268,2057
1629456594272,2057
1629456594276,2057
1629456594280,2057
1629456594284,2056
1629456594288,2055
1629456594292,2054
1629456594296,2054
1629456594300,2054
1629456594304,2055
1629456594308,2056
1629456594312,2057
1629456594316,2057
1629456594320,2057
1629456594324,2056
1629456594328,2054
1629456594332,2053
1629456594336,2052
1629456594340,2052
1629456594344,2053
1629456594348,2054
1629456594352,2054
1629456594356,2053
1629456594360,2051
1629456594364,2049
1629456594368,2048
1629456594372,2047
1629456594376,2047
1629456594380,2047
1629456594384,2048
1629456594388,2048
1629456594392,2048
1629456594396,2048
1629456594400,2048
1629456594404,2049
1629456594408,2050
1629456594412,2052
1629456594416,2053
1629456594420,2053
1629456594424,2053
1629456594428,2053
1629456594432,2053
1629456594436,2054
1629456594440,2054
1629456594444,2054
1629456594448,2054
1629456594452,2053
1629456594456,2052
1629456594460,2052
1629456594464,2052
1629456594468,2053
1629456594472,2054
1629456594476,2054
1629456594480,2053
1629456594484,2048
1629456594488,2033
1629456594492,2006
1629456594496,1970
1629456594500,1938
1629456594504,1923
1629456594508,1933
1629456594512,1966
1629456594516,2011
1629456594520,2050
1629456594524,2077
1629456594528,2088
1629456594532,2088
1629456594536,2082
1629456594540,2075
1629456594544,2069
1629456594548,2062
1629456594552,2057
1629456594556,2054
1629456594560,2053
1629456594564,2054
1629456594568,2054
1629456594572,2054
1629456594576,2053
1629456594580,2052
1629456594584,2051
1629456594588,2050
1629456594592,2050
1629456594596,2049
1629456594600,2049
1629456594604,2048
1629456594608,2048
1629456594612,2048
1629456594616,2048
1629456594620,2048
1629456594624,2049
1629456594628,2049
1629456594632,2048
1629456594636,2048
1629456594640,2047
1629456594644,2046
1629456594648,2045
1629456594652,2045
1629456594656,2045
1629456594660,2044
1629456594664,2043
1629456594668,2042
1629456594672,2041
1629456594676,2040
1629456594680,2038
1629456594684,2036
1629456594688,2034
1629456594692,2033
1629456594696,2031
1629456594700,2030
1629456594704,2029
1629456594708,2028
1629456594712,2028
1629456594716,2027
1629456594720,2027
1629456594724,2026
1629456594728,2026
1629456594732,2026
1629456594736,2028
1629456594740,2030
1629456594744,2032
1629456594748,2035
1629456594752,2038
1629456594756,2040
1629456594760,2043
1629456594764,2046
1629456594768,2048
1629456594772,2050
1629456594776,2052
1629456594780,2054
1629456594784,2055
1629456594788,2057
1629456594792,2057
1629456594796,2058
1629456594800,2058
1629456594804,2058
1629456594808,2058
1629456594812,2059
1629456594816,2059
1629456594820,2060
1629456594824,2060
1629456594828,2060
1629456594832,2060
1629456594836,2060
1629456594840,2060
1629456594844,2060
1629456594848,2059
1629456594852,2060
1629456594856,2060
1629456594860,2061
1629456594864,2061
1629456594868,2061
1629456594872,2060
1629456594876,2059
1629456594880,2058
1629456594884,2058
1629456594888,2057
1629456594892,2057
1629456594896,2057
1629456594900,2057
1629456594904,2057
1629456594908,2057
1629456594912,2057
1629456594916,2057
1629456594920,2056
1629456594924,2056
1629456594928,2055
1629456594932,2054
1629456594936,2054
1629456594940,2054
1629456594944,2054
1629456594948,2054
1629456594952,2053
1629456594956,2053
1629456594960,2052
1629456594964,2052
1629456594968,2053
1629456594972,2054
1629456594976,2054
1629456594980,2054
1629456594984,2054
1629456594988,2054
1629456594992,2053
1629456594996,2053
1629456595000,2053
1629456595004,2053
1629456595008,2053
1629456595012,2053
1629456595016,2052
1629456595020,2051
1629456595024,2050
1629456595028,2049
1629456595032,2048
1629456595036,2048
1629456595040,2048
1629456595044,2048
1629456595048,2048
1629456595052,2050
1629456595056,2052
1629456595060,2054
1629456595064,2055
1629456595068,2056
1629456595072,2057
1629456595076,2057
1629456595080,2056
1629456595084,2056
1629456595088,2056
1629456595092,2056
1629456595096,2057
1629456595100,2057
1629456595104,2057
1629456595108,2057
1629456595112,2056
1629456595116,2055
1629456595120,2055
1629456595124,2055
1629456595128,2056
1629456595132,2058
1629456595136,2058
1629456595140,2056
1629456595144,2046
1629456595148,2023
1629456595152,1989
1629456595156,1954
1629456595160,1929
1629456595164,1927
1629456595168,1951
1629456595172,1992
1629456595176,2035
1629456595180,2067
1629456595184,2084
1629456595188,2088
1629456595192,2085
1629456595196,2079
1629456595200,2073
1629456595204,2068
1629456595208,2063
1629456595212,2060
1629456595216,2059
1629456595220,2059
1629456595224,2059
1629456595228,2058
1629456595232,2057
1629456595236,2056
1629456595240,2054
1629456595244,2054
1629456595248,2053
1629456595252,2053
1629456595256,2053
1629456595260,2053
1629456595264,2053
1629456595268,2053
1629456595272,2053
1629456595276,2052
1629456595280,2051
1629456595284,2050
1629456595288,2049
1629456595292,2049
1629456595296,2049
1629456595300,2049
1629456595304,2049
1629456595308,2048
1629456595312,2048
1629456595316,2047
1629456595320,2045
1629456595324,2044
1629456595328,2044
1629456595332,2043
1629456595336,2043
1629456595340,2042
1629456595344,2040
1629456595348,2038
1629456595352,2036
1629456595356,2034
1629456595360,2032
1629456595364,2030
1629456595368,2029
1629456595372,2029
1629456595376,2029
1629456595380,2029
1629456595384,2029
1629456595388,2029
1629456595392,2029
1629456595396,2030
1629456595400,2032
1629456595404,2034
1629456595408,2037
1629456595412,2040
1629456595416,2043
1629456595420,2046
1629456595424,2048
1629456595428,2049
1629456595432,2051
1629456595436,2053
1629456595440,2054
1629456595444,2055
1629456595448,2056
1629456595452,2057
1629456595456,2058
1629456595460,2059
1629456595464,2060
1629456595468,2060
1629456595472,2059
1629456595476,2059
1629456595480,2058
1629456595484,2058
1629456595488,2058
1629456595492,2059
1629456595496,2060
1629456595500,2060
1629456595504,2061
1629456595508,2061
1629456595512,2060
1629456595516,2060
1629456595520,2059
1629456595524,2059
1629456595528,2059
1629456595532,2059
1629456595536,2059
1629456595540,2059
1629456595544,2060
1629456595548,2060
1629456595552,2060
1629456595556,2060
1629456595560,2059
1629456595564,2058
1629456595568,2058
1629456595572,2058
1629456595576,2058
1629456595580,2058
1629456595584,2058
1629456595588,2058
1629456595592,2057
1629456595596,2057
1629456595600,2056
1629456595604,2056
1629456595608,2057
1629456595612,2057
1629456595616,2057
1629456595620,2057
1629456595624,2056
1629456595628,2056
1629456595632,2056
1629456595636,2056
1629456595640,2056
1629456595644,2056
1629456595648,2056
1629456595652,2055
1629456595656,2053
1629456595660,2052
1629456595664,2052
1629456595668,2051
1629456595672,2051
1629456595676,2051
1629456595680,2050
1629456595684,2051
1629456595688,2052
1629456595692,2054
1629456595696,2056
1629456595700,2058
1629456595704,2060
1629456595708,2061
1629456595712,2062
1629456595716,2062
1629456595720,2062
1629456595724,2063
1629456595728,2063
1629456595732,2062
1629456595736,2062
1629456595740,2062
1629456595744,2062
1629456595748,2062
1629456595752,2061
1629456595756,2061
1629456595760,2060
1629456595764,2060
1629456595768,2061
1629456595772,2062
1629456595776,2062
1629456595780,2057
1629456595784,2042
1629456595788,2013
1629456595792,1977
1629456595796,1944
1629456595800,1928
1629456595804,1938
1629456595808,1971
1629456595812,2015
1629456595816,2053
1629456595820,2079
1629456595824,2089
1629456595828,2089
1629456595832,2084
1629456595836,2079
1629456595840,2074
1629456595844,2069
1629456595848,2065
1629456595852,2063
1629456595856,2062
1629456595860,2062
1629456595864,2062
1629456595868,2061
1629456595872,2061
1629456595876,2060
1629456595880,2058
1629456595884,2057
1629456595888,2057
1629456595892,2056
1629456595896,2056
1629456595900,2057
1629456595904,2057
1629456595908,2057
1629456595912,2056
1629456595916,2055
1629456595920,2054
1629456595924,2053
1629456595928,2053
1629456595932,2053
1629456595936,2053
1629456595940,2053
1629456595944,2053
1629456595948,2052
1629456595952,2052
1629456595956,2051
1629456595960,2049
1629456595964,2048
1629456595968,2048
1629456595972,2047
1629456595976,2046
1629456595980,2044
1629456595984,2043
1629456595988,2041
1629456595992,2039
1629456595996,2038
1629456596000,2037
1629456596004,2036
1629456596008,2035
1629456596012,2034
1629456596016,2034
1629456596020,2034
1629456596024,2034
1629456596028,2034
1629456596032,2035
1629456596036,2036
1629456596040,2038
1629456596044,2040
1629456596048,2043
1629456596052,2045
1629456596056,2048
1629456596060,2050
1629456596064,2053
1629456596068,2055
1629456596072,2057
1629456596076,2058
1629456596080,2058
1629456596084,2059
1629456596088,2060
1629456596092,2061
1629456596096,2062
1629456596100,2063
1629456596104,2063
1629456596108,2063
1629456596112,2062
1629456596116,2061
1629456596120,2061
1629456596124,2060
1629456596128,2061
1629456596132,2061
1629456596136,2062
1629456596140,2063
1629456596144,2063
1629456596148,2063
1629456596152,2063
1629456596156,2062
1629456596160,2061
1629456596164,2061
1629456596168,2061
1629456596172,2061
1629456596176,2061
1629456596180,2061
1629456596184,2061
1629456596188,2061
1629456596192,2061
1629456596196,2060
1629456596200,2060
1629456596204,2060
1629456596208,2059
1629456596212,2059
1629456596216,2059
1629456596220,2059
1629456596224,2059
1629456596228,2059
1629456596232,2059
1629456596236,2058
1629456596240,2058
1629456596244,2058
1629456596248,2058
1629456596252,2058
1629456596256,2059
1629456596260,2059
1629456596264,2060
1629456596268,2060
1629456596272,2060
1629456596276,2059
1629456596280,2059
1629456596284,2059
1629456596288,2058
1629456596292,2058
1629456596296,2058
1629456596300,2059
1629456596304,2059
1629456596308,2059
1629456596312,2060
1629456596316,2059
1629456596320,2059
1629456596324,2059
1629456596328,2059
1629456596332,2060
1629456596336,2060
1629456596340,2060
1629456596344,2060
1629456596348,2060
1629456596352,2060
1629456596356,2059
1629456596360,2059
1629456596364,2059
1629456596368,2060
1629456596372,2060
1629456596376,2060
1629456596380,2060
1629456596384,2060
1629456596388,2060
1629456596392,2060
1629456596396,2060
1629456596400,2059
1629456596404,2058
1629456596408,2057
1629456596412,2056
1629456596416,2056
1629456596420,2056
1629456596424,2056
1629456596428,2055
1629456596432,2055
1629456596436,2054
1629456596440,2053
1629456596444,2054
1629456596448,2055
1629456596452,2057
1629456596456,2059
1629456596460,2060
1629456596464,2062
1629456596468,2062
1629456596472,2062
1629456596476,2062
1629456596480,2062
1629456596484,2062
1629456596488,2063
1629456596492,2063
1629456596496,2063
1629456596500,2063
1629456596504,2062
1629456596508,2062
1629456596512,2061
1629456596516,2061
1629456596520,2062
1629456596524,2063
1629456596528,2064
1629456596532,2061
1629456596536,2051
1629456596540,2030
1629456596544,1996
1629456596548,1960
1629456596552,1935
1629456596556,1933
1629456596560,1955
1629456596564,1995
1629456596568,2038
1629456596572,2070
1629456596576,2088
1629456596580,2092
1629456596584,2089
1629456596588,2083
1629456596592,2078
1629456596596,2072
1629456596600,2067
1629456596604,2064
1629456596608,2063
1629456596612,2063
1629456596616,2064
1629456596620,2064
1629456596624,2063
1629456596628,2062
1629456596632,2061
1629456596636,2060
1629456596640,2059
1629456596644,2059
1629456596648,2059
1629456596652,2058
1629456596656,2058
1629456596660,2058
1629456596664,2058
1629456596668,2057
1629456596672,2057
1629456596676,2056
1629456596680,2055
1629456596684,2054
1629456596688,2054
1629456596692,2054
1629456596696,2054
1629456596700,2053
1629456596704,2053
1629456596708,2052
1629456596712,2051
1629456596716,2049
1629456596720,2048
1629456596724,2047
1629456596728,2045
1629456596732,2044
1629456596736,2044
1629456596740,2043
1629456596744,2042
1629456596748,2041
1629456596752,2039
1629456596756,2038
1629456596760,2037
1629456596764,2036
1629456596768,2035
1629456596772,2035
1629456596776,2035
1629456596780,2035
1629456596784,2036
1629456596788,2036
1629456596792,2038
1629456596796,2039
1629456596800,2040
1629456596804,2042
1629456596808,2044
1629456596812,2047
1629456596816,2049
1629456596820,2051
1629456596824,2053
1629456596828,2055
1629456596832,2056
1629456596836,2057
1629456596840,2057
1629456596844,2058
1629456596848,2059
1629456596852,2060
1629456596856,2061
1629456596860,2062
1629456596864,2062
1629456596868,2062
1629456596872,2062
1629456596876,2061
1629456596880,2061
1629456596884,2061
1629456596888,2061
1629456596892,2061
1629456596896,2062
1629456596900,2062
1629456596904,2062
1629456596908,2062
1629456596912,2062
1629456596916,2061
1629456596920,2060
1629456596924,2060
1629456596928,2060
1629456596932,2060
1629456596936,2060
1629456596940,2061
1629456596944,2060
1629456596948,2060
1629456596952,2059
1629456596956,2059
1629456596960,2058
1629456596964,2058
1629456596968,2057
1629456596972,2058
1629456596976,2058
1629456596980,2058
1629456596984,2058
1629456596988,2058
1629456596992,2058
1629456596996,2058
1629456597000,2057
1629456597004,2057
1629456597008,2057
1629456597012,2057
1629456597016,2058
1629456597020,2058
1629456597024,2058
1629456597028,2058
1629456597032,2058
1629456597036,2058
1629456597040,2058
1629456597044,2058
1629456597048,2058
1629456597052,2058
1629456597056,2058
1629456597060,2059
1629456597064,2059
1629456597068,2059
1629456597072,2059
1629456597076,2059
1629456597080,2058
1629456597084,2058
1629456597088,2058
1629456597092,2059
1629456597096,2060
1629456597100,2060
1629456597104,2060
1629456597108,2059
1629456597112,2058
1629456597116,2057
1629456597120,2057
1629456597124,2058
1629456597128,2059
1629456597132,2059
1629456597136,2059
1629456597140,2058
1629456597144,2056
1629456597148,2055
1629456597152,2054
1629456597156,2053
1629456597160,2053
1629456597164,2053
1629456597168,2052
1629456597172,2052
1629456597176,2053
1629456597180,2054
1629456597184,2056
1629456597188,2058
1629456597192,2060
1629456597196,2060
1629456597200,2060
1629456597204,2060
1629456597208,2059
1629456597212,2060
1629456597216,2061
1629456597220,2061
1629456597224,2062
1629456597228,2061
1629456597232,2061
1629456597236,2060
1629456597240,2059
1629456597244,2060
1629456597248,2060
1629456597252,2061
1629456597256,2062
1629456597260,2064
1629456597264,2064
1629456597268,2060
1629456597272,2048
1629456597276,2022
1629456597280,1986
1629456597284,1952
1629456597288,1932
1629456597292,1936
1629456597296,1965
1629456597300,2006
1629456597304,2047
1629456597308,2074
1629456597312,2086
1629456597316,2087
1629456597320,2083
1629456597324,2078
1629456597328,2074
1629456597332,2070
1629456597336,2066
1629456597340,2065
1629456597344,2064
1629456597348,2064
1629456597352,2064
1629456597356,2063
1629456597360,2062
1629456597364,2061
1629456597368,2060
1629456597372,2060
1629456597376,2060
1629456597380,2060
1629456597384,2060
1629456597388,2059
1629456597392,2059
1629456597396,2058
1629456597400,2057
1629456597404,2057
1629456597408,2056
1629456597412,2056
1629456597416,2057
1629456597420,2056
1629456597424,2056
1629456597428,2055
1629456597432,2053
1629456597436,2052
1629456597440,2051
1629456597444,2050
1629456597448,2049
1629456597452,2048
1629456597456,2048
1629456597460,2048
1629456597464,2047
1629456597468,2046
1629456597472,2045
1629456597476,2043
1629456597480,2041
1629456597484,2039
1629456597488,2038
1629456597492,2037
1629456597496,2036
1629456597500,2036
1629456597504,2036
1629456597508,2036
1629456597512,2036
1629456597516,2036
1629456597520,2036
1629456597524,2037
1629456597528,2039
1629456597532,2041
1629456597536,2043
1629456597540,2046
1629456597544,2048
1629456597548,2050
1629456597552,2053
1629456597556,2054
1629456597560,2055
1629456597564,2057
1629456597568,2058
1629456597572,2060
1629456597576,2061
1629456597580,2062
1629456597584,2063
1629456597588,2063
1629456597592,2063
1629456597596,2063
1629456597600,2062
1629456597604,2062
1629456597608,2062
1629456597612,2063
1629456597616,2063
1629456597620,2064
1629456597624,2064
1629456597628,2064
1629456597632,2064
1629456597636,2063
1629456597640,2063
1629456597644,2063
1629456597648,2063
1629456597652,2063
1629456597656,2064
1629456597660,2063
1629456597664,2063
1629456597668,2062
1629456597672,2062
1629456597676,2062
1629456597680,2061
1629456597684,2061
1629456597688,2061
1629456597692,2060
1629456597696,2060
1629456597700,2061
1629456597704,2061
1629456597708,2061
1629456597712,2061
1629456597716,2060
1629456597720,2059
1629456597724,2058
1629456597728,2058
1629456597732,2058
1629456597736,2059
1629456597740,2060
1629456597744,2061
1629456597748,2061
1629456597752,2060
1629456597756,2059
1629456597760,2058
1629456597764,2058
1629456597768,2059
1629456597772,2059
1629456597776,2060
1629456597780,2060
1629456597784,2060
1629456597788,2060
1629456597792,2059
1629456597796,2059
1629456597800,2059
1629456597804,2060
1629456597808,2060
1629456597812,2060
1629456597816,2060
1629456597820,2060
1629456597824,2061
1629456597828,2061
1629456597832,2060
1629456597836,2060
1629456597840,2060
1629456597844,2060
1629456597848,2060
1629456597852,2061
1629456597856,2061
1629456597860,2062
1629456597864,2062
1629456597868,2061
1629456597872,2061
1629456597876,2060
1629456597880,2059
1629456597884,2059
1629456597888,2059
1629456597892,2059
1629456597896,2060
1629456597900,2060
1629456597904,2060
1629456597908,2060
1629456597912,2060
1629456597916,2059
1629456597920,2059
1629456597924,2059
1629456597928,2058
1629456597932,2057
1629456597936,2058
1629456597940,2058
1629456597944,2058
1629456597948,2058
1629456597952,2058
1629456597956,2056
1629456597960,2054
1629456597964,2053
1629456597968,2052
1629456597972,2052
1629456597976,2053
1629456597980,2053
1629456597984,2053
1629456597988,2053
1629456597992,2053
1629456597996,2054
1629456598000,2055
1629456598004,2057
1629456598008,2058
1629456598012,2060
1629456598016,2061
1629456598020,2061
1629456598024,2061
1629456598028,2061
1629456598032,2061
1629456598036,2061
1629456598040,2060
1629456598044,2060
1629456598048,2060
1629456598052,2060
1629456598056,2060
1629456598060,2061
1629456598064,2061
1629456598068,2062
1629456598072,2062
1629456598076,2062
1629456598080,2059
1629456598084,2048
1629456598088,2027
1629456598092,1994
1629456598096,1959
1629456598100,1935
1629456598104,1934
1629456598108,1957
1629456598112,1996
1629456598116,2037
1629456598120,2066
1629456598124,2082
1629456598128,2085
1629456598132,2082
1629456598136,2077
1629456598140,2073
1629456598144,2069
1629456598148,2066
1629456598152,2063
1629456598156,2062
1629456598160,2062
1629456598164,2061
1629456598168,2061
1629456598172,2060
1629456598176,2060
1629456598180,2060
1629456598184,2059
1629456598188,2059
1629456598192,2058
1629456598196,2057
1629456598200,2057
1629456598204,2056
1629456598208,2056
1629456598212,2055
1629456598216,2056
1629456598220,2056
1629456598224,2056
1629456598228,2055
1629456598232,2055
1629456598236,2054
1629456598240,2052
1629456598244,2052
1629456598248,2051
1629456598252,2051
1629456598256,2051
1629456598260,2050
1629456598264,2049
1629456598268,2048
1629456598272,2047
1629456598276,2046
1629456598280,2044
1629456598284,2043
1629456598288,2041
1629456598292,2041
1629456598296,2039
1629456598300,2039
1629456598304,2038
1629456598308,2036
1629456598312,2036
1629456598316,2035
1629456598320,2034
1629456598324,2034
1629456598328,2034
1629456598332,2035
1629456598336,2036
1629456598340,2038
1629456598344,2039
1629456598348,2041
1629456598352,2043
1629456598356,2045
1629456598360,2047
1629456598364,2048
1629456598368,2049
1629456598372,2050
1629456598376,2052
1629456598380,2054
1629456598384,2056
1629456598388,2060
1629456598392,2063
1629456598396,2065
1629456598400,2066
1629456598404,2065
1629456598408,2063
1629456598412,2061
1629456598416,2059
1629456598420,2059
1629456598424,2061
1629456598428,2063
1629456598432,2064
1629456598436,2064
1629456598440,2063
1629456598444,2061
1629456598448,2061
1629456598452,2061
1629456598456,2062
1629456598460,2064
1629456598464,2064
1629456598468,2063
1629456598472,2061
1629456598476,2058
1629456598480,2057
1629456598484,2056
1629456598488,2057
1629456598492,2058
1629456598496,2059
1629456598500,2059
1629456598504,2058
1629456598508,2057
1629456598512,2055
1629456598516,2054
1629456598520,2053
1629456598524,2052
1629456598528,2053
1629456598532,2053
1629456598536,2054
1629456598540,2055
1629456598544,2056
1629456598548,2056
1629456598552,2056
1629456598556,2056
1629456598560,2056
1629456598564,2055
1629456598568,2055
1629456598572,2055
1629456598576,2056
1629456598580,2056
1629456598584,2056
1629456598588,2057
1629456598592,2057
1629456598596,2057
1629456598600,2056
1629456598604,2056
1629456598608,2056
1629456598612,2056
1629456598616,2056
1629456598620,2056
1629456598624,2056
1629456598628,2056
1629456598632,2056
1629456598636,2056
1629456598640,2056
1629456598644,2056
1629456598648,2056
1629456598652,2057
1629456598656,2057
1629456598660,2058
1629456598664,2058
1629456598668,2058
1629456598672,2058
1629456598676,2057
1629456598680,2057
1629456598684,2057
1629456598688,2058
1629456598692,2058
1629456598696,2058
1629456598700,2058
1629456598704,2057
1629456598708,2056
1629456598712,2056
1629456598716,2056
1629456598720,2056
1629456598724,2056
1629456598728,2056
1629456598732,2055
1629456598736,2054
1629456598740,2054
1629456598744,2054
1629456598748,2054
1629456598752,2054
1629456598756,2054
1629456598760,2053
1629456598764,2052
1629456598768,2052
1629456598772,2053
1629456598776,2055
1629456598780,2057
1629456598784,2059
1629456598788,2060
1629456598792,2061
1629456598796,2060
1629456598800,2060
1629456598804,2059
1629456598808,2059
1629456598812,2060
1629456598816,2061
1629456598820,2061
1629456598824,2061
1629456598828,2060
1629456598832,2060
1629456598836,2061
1629456598840,2061
1629456598844,2061
1629456598848,2062
1629456598852,2062
1629456598856,2059
1629456598860,2048
1629456598864,2026
1629456598868,1992
1629456598872,1959
1629456598876,1938
1629456598880,1940
1629456598884,1967
1629456598888,2009
1629456598892,2050
1629456598896,2080
1629456598900,2094
1629456598904,2095
1629456598908,2089
1629456598912,2081
1629456598916,2075
1629456598920,2068
1629456598924,2064
1629456598928,2061
1629456598932,2061
1629456598936,2061
1629456598940,2062
1629456598944,2061
1629456598948,2060
1629456598952,2059
1629456598956,2057
1629456598960,2056
1629456598964,2056
1629456598968,2056
1629456598972,2056
1629456598976,2056
1629456598980,2056
1629456598984,2056
1629456598988,2056
1629456598992,2056
1629456598996,2055
1629456599000,2053
1629456599004,2052
1629456599008,2050
1629456599012,2050
1629456599016,2050
1629456599020,2050
1629456599024,2050
1629456599028,2049
1629456599032,2049
1629456599036,2048
1629456599040,2047
1629456599044,2045
1629456599048,2043
1629456599052,2042
1629456599056,2041
1629456599060,2040
1629456599064,2039
1629456599068,2037
1629456599072,2036
1629456599076,2035
1629456599080,2033
1629456599084,2033
1629456599088,2032
1629456599092,2032
1629456599096,2033
1629456599100,2033
1629456599104,2033
1629456599108,2034
1629456599112,2034
1629456599116,2036
1629456599120,2037
1629456599124,2039
1629456599128,2042
1629456599132,2045
1629456599136,2047
1629456599140,2049
1629456599144,2052
1629456599148,2054
1629456599152,2055
1629456599156,2057
1629456599160,2057
1629456599164,2058
1629456599168,2059
1629456599172,2060
1629456599176,2060
1629456599180,2061
1629456599184,2062
1629456599188,2062
1629456599192,2062
1629456599196,2062
1629456599200,2062
1629456599204,2062
1629456599208,2062
1629456599212,2063
1629456599216,2063
1629456599220,2064
1629456599224,2064
1629456599228,2063
1629456599232,2063
1629456599236,2062
1629456599240,2062
1629456599244,2062
1629456599248,2061
1629456599252,2061
1629456599256,2061
1629456599260,2061
1629456599264,2061
1629456599268,2060
1629456599272,2060
1629456599276,2058
1629456599280,2057
1629456599284,2057
1629456599288,2057
1629456599292,2057
1629456599296,2058
1629456599300,2058
1629456599304,2058
1629456599308,2058
1629456599312,2058
1629456599316,2057
1629456599320,2057
1629456599324,2056
1629456599328,2056
1629456599332,2056
1629456599336,2057
1629456599340,2057
1629456599344,2058
1629456599348,2058
1629456599352,2058
1629456599356,2057
1629456599360,2057
1629456599364,2056
1629456599368,2056
1629456599372,2056
1629456599376,2057
1629456599380,2057
1629456599384,2056
1629456599388,2055
1629456599392,2053
1629456599396,2052
1629456599400,2051
1629456599404,2051
1629456599408,2051
1629456599412,2051
1629456599416,2052
1629456599420,2053
1629456599424,2054
1629456599428,2055
1629456599432,2057
1629456599436,2058
1629456599440,2059
1629456599444,2059
1629456599448,2060
1629456599452,2060
1629456599456,2061
1629456599460,2061
1629456599464,2062
1629456599468,2061
1629456599472,2061
1629456599476,2060
1629456599480,2059
1629456599484,2058
1629456599488,2058
1629456599492,2058
1629456599496,2060
1629456599500,2061
1629456599504,2063
1629456599508,2064
1629456599512,2061
1629456599516,2051
1629456599520,2030
1629456599524,1998
1629456599528,1963
1629456599532,1938
1629456599536,1934
1629456599540,1956
1629456599544,1995
1629456599548,2038
1629456599552,2070
1629456599556,2087
1629456599560,2091
1629456599564,2088
1629456599568,2082
1629456599572,2076
1629456599576,2071
1629456599580,2066
1629456599584,2062
1629456599588,2061
1629456599592,2060
1629456599596,2060
1629456599600,2059
1629456599604,2059
1629456599608,2058
1629456599612,2058
1629456599616,2058
1629456599620,2058
1629456599624,2057
1629456599628,2057
1629456599632,2056
1629456599636,2055
1629456599640,2055
1629456599644,2054
1629456599648,2053
1629456599652,2053
1629456599656,2053
1629456599660,2053
1629456599664,2053
1629456599668,2052
1629456599672,2051
1629456599676,2050
1629456599680,2049
1629456599684,2048
1629456599688,2048
1629456599692,2048
1629456599696,2047
1629456599700,2046
1629456599704,2045
1629456599708,2044
1629456599712,2042
1629456599716,2040
1629456599720,2038
1629456599724,2037
1629456599728,2035
1629456599732,2035
1629456599736,2034
1629456599740,2034
1629456599744,2034
1629456599748,2033
1629456599752,2032
1629456599756,2031
1629456599760,2031
1629456599764,2032
1629456599768,2034
1629456599772,2036
1629456599776,2040
1629456599780,2042
1629456599784,2045
1629456599788,2048
1629456599792,2049
1629456599796,2052
1629456599800,2054
1629456599804,2056
1629456599808,2058
1629456599812,2060
1629456599816,2061
1629456599820,2062
1629456599824,2063
1629456599828,2063
1629456599832,2063
1629456599836,2063
1629456599840,2063
1629456599844,2064
1629456599848,2065
1629456599852,2066
1629456599856,2067
1629456599860,2067
1629456599864,2067
1629456599868,2066
1629456599872,2066
1629456599876,2065
1629456599880,2065
1629456599884,2065
1629456599888,2065
1629456599892,2065
1629456599896,2065
1629456599900,2065
1629456599904,2064
1629456599908,2064
1629456599912,2064
1629456599916,2064
1629456599920,2063
1629456599924,2063
1629456599928,2062
1629456599932,2061
1629456599936,2060
1629456599940,2060
1629456599944,2060
1629456599948,2060
1629456599952,2060
1629456599956,2060
1629456599960,2059
1629456599964,2059
1629456599968,2060
1629456599972,2060
1629456599976,2060
1629456599980,2060
1629456599984,2061
1629456599988,2061
1629456599992,2060
1629456599996,2060
1629456600000,2060
1629456600004,2060
1629456600008,2060
1629456600012,2060
1629456600016,2061
1629456600020,2061
1629456600024,2060
1629456600028,2060
1629456600032,2060
1629456600036,2059
1629456600040,2059
1629456600044,2059
1629456600048,2058
1629456600052,2057
1629456600056,2056
1629456600060,2056
1629456600064,2055
1629456600068,2056
1629456600072,2056
1629456600076,2055
1629456600080,2055
1629456600084,2055
1629456600088,2056
1629456600092,2058
1629456600096,2060
1629456600100,2062
1629456600104,2063
1629456600108,2063
1629456600112,2063
1629456600116,2062
1629456600120,2062
1629456600124,2062
1629456600128,2062
1629456600132,2063
1629456600136,2063
1629456600140,2063
1629456600144,2063
1629456600148,2062
1629456600152,2062
1629456600156,2062
1629456600160,2062
1629456600164,2063
1629456600168,2064
1629456600172,2065
1629456600176,2064
1629456600180,2058
1629456600184,2040
1629456600188,2010
1629456600192,1974
1629456600196,1944
1629456600200,1932
1629456600204,1946
1629456600208,1980
1629456600212,2022
1629456600216,2058
1629456600220,2080
1629456600224,2089
1629456600228,2087
1629456600232,2082
1629456600236,2077
1629456600240,2072
1629456600244,2067
1629456600248,2062
1629456600252,2061
1629456600256,2060
1629456600260,2061
1629456600264,2062
1629456600268,2062
1629456600272,2062
1629456600276,2060
1629456600280,2058
1629456600284,2057
1629456600288,2056
1629456600292,2056
1629456600296,2057
1629456600300,2057
1629456600304,2057
1629456600308,2056
1629456600312,2056
1629456600316,2055
1629456600320,2055
1629456600324,2055
1629456600328,2054
1629456600332,2054
1629456600336,2054
1629456600340,2053
1629456600344,2053
1629456600348,2052
1629456600352,2051
1629456600356,2050
1629456600360,2049
1629456600364,2049
1629456600368,2048
1629456600372,2048
1629456600376,2047
1629456600380,2046
1629456600384,2045
1629456600388,2043
1629456600392,2042
1629456600396,2040
1629456600400,2038
1629456600404,2037
1629456600408,2036
1629456600412,2036
1629456600416,2037
1629456600420,2037
1629456600424,2037
1629456600428,2037
1629456600432,2038
1629456600436,2039
1629456600440,2040
1629456600444,2042
1629456600448,2045
1629456600452,2048
1629456600456,2051
1629456600460,2053
1629456600464,2056
1629456600468,2058
1629456600472,2060
1629456600476,2061
1629456600480,2062
1629456600484,2062
1629456600488,2062
1629456600492,2063
1629456600496,2064
1629456600500,2065
1629456600504,2065
1629456600508,2066
1629456600512,2065
1629456600516,2065
1629456600520,2065
1629456600524,2065
1629456600528,2065
1629456600532,2066
1629456600536,2066
1629456600540,2067
1629456600544,2067
1629456600548,2067
1629456600552,2066
1629456600556,2066
1629456600560,2065
1629456600564,2064
1629456600568,2064
1629456600572,2064
1629456600576,2064
1629456600580,2064
1629456600584,2063
1629456600588,2063
1629456600592,2062
1629456600596,2062
1629456600600,2061
1629456600604,2061
1629456600608,2061
1629456600612,2061
1629456600616,2061
1629456600620,2061
1629456600624,2062
1629456600628,2061
1629456600632,2061
1629456600636,2061
1629456600640,2061
1629456600644,2062
1629456600648,2063
1629456600652,2063
1629456600656,2064
1629456600660,2064
1629456600664,2065
1629456600668,2066
1629456600672,2066
1629456600676,2066
1629456600680,2065
1629456600684,2063
1629456600688,2061
1629456600692,2059
1629456600696,2058
1629456600700,2058
1629456600704,2058
1629456600708,2058
1629456600712,2058
1629456600716,2058
1629456600720,2058
1629456600724,2056
1629456600728,2055
1629456600732,2054
1629456600736,2054
1629456600740,2054
1629456600744,2054
1629456600748,2053
1629456600752,2053
1629456600756,2053
1629456600760,2053
1629456600764,2055
1629456600768,2057
1629456600772,2060
1629456600776,2062
1629456600780,2063
1629456600784,2062
1629456600788,2062
1629456600792,2061
1629456600796,2061
1629456600800,2062
1629456600804,2062
1629456600808,2063
1629456600812,2062
1629456600816,2062
1629456600820,2061
1629456600824,2060
1629456600828,2060
1629456600832,2060
1629456600836,2060
1629456600840,2061
1629456600844,2062
1629456600848,2061
1629456600852,2054
1629456600856,2035
1629456600860,2003
1629456600864,1967
1629456600868,1941
1629456600872,1935
1629456600876,1955
1629456600880,1994
1629456600884,2040
1629456600888,2076
1629456600892,2096
1629456600896,2102
1629456600900,2096
1629456600904,2087
1629456600908,2079
1629456600912,2073
1629456600916,2068
1629456600920,2064
1629456600924,2063
1629456600928,2062
1629456600932,2061
1629456600936,2061
1629456600940,2060
1629456600944,2060
1629456600948,2060
1629456600952,2060
1629456600956,2059
1629456600960,2058
1629456600964,2058
1629456600968,2058
1629456600972,2058
1629456600976,2058
1629456600980,2058
1629456600984,2058
1629456600988,2058
1629456600992,2057
1629456600996,2057
1629456601000,2056
1629456601004,2056
1629456601008,2055
1629456601012,2054
1629456601016,2054
1629456601020,2053
1629456601024,2052
1629456601028,2052
1629456601032,2051
1629456601036,2050
1629456601040,2048
1629456601044,2048
1629456601048,2046
1629456601052,2045
1629456601056,2044
1629456601060,2043
1629456601064,2042
1629456601068,2041
1629456601072,2040
1629456601076,2038
1629456601080,2037
1629456601084,2036
1629456601088,2036
1629456601092,2036
1629456601096,2037
1629456601100,2038
1629456601104,2039
1629456601108,2040
1629456601112,2042
1629456601116,2043
1629456601120,2045
1629456601124,2048
1629456601128,2050
1629456601132,2052
1629456601136,2055
1629456601140,2057
1629456601144,2059
1629456601148,2061
1629456601152,2062
1629456601156,2063
1629456601160,2064
1629456601164,2064
1629456601168,2064
1629456601172,2064
1629456601176,2065
1629456601180,2066
1629456601184,2067
1629456601188,2067
1629456601192,2068
1629456601196,2067
1629456601200,2067
1629456601204,2066
1629456601208,2066
1629456601212,2066
1629456601216,2066
1629456601220,2066
1629456601224,2066
1629456601228,2065
1629456601232,2065
1629456601236,2064
1629456601240,2063
1629456601244,2063
1629456601248,2062
1629456601252,2062
1629456601256,2061
1629456601260,2060
1629456601264,2060
1629456601268,2060
1629456601272,2061
1629456601276,2061
1629456601280,2061
1629456601284,2060
1629456601288,2059
1629456601292,2059
1629456601296,2060
1629456601300,2060
1629456601304,2061
1629456601308,2060
1629456601312,2060
1629456601316,2059
1629456601320,2059
1629456601324,2059
1629456601328,2059
1629456601332,2059
1629456601336,2059
1629456601340,2059
1629456601344,2059
1629456601348,2060
1629456601352,2060
1629456601356,2061
1629456601360,2060
1629456601364,2058
1629456601368,2056
1629456601372,2054
1629456601376,2054
1629456601380,2054
1629456601384,2055
1629456601388,2055
1629456601392,2054
1629456601396,2054
1629456601400,2055
1629456601404,2057
1629456601408,2059
1629456601412,2062
1629456601416,2064
1629456601420,2065
1629456601424,2066
1629456601428,2065
1629456601432,2064
1629456601436,2064
1629456601440,2063
1629456601444,2062
1629456601448,2062
1629456601452,2062
1629456601456,2063
1629456601460,2064
1629456601464,2064
1629456601468,2064
1629456601472,2064
1629456601476,2064
1629456601480,2064
1629456601484,2064
1629456601488,2063
1629456601492,2056
1629456601496,2039
1629456601500,2009
1629456601504,1974
1629456601508,1947
1629456601512,1938
1629456601516,1954
1629456601520,1989
1629456601524,2030
1629456601528,2064
1629456601532,2085
1629456601536,2092
1629456601540,2091
1629456601544,2086
1629456601548,2081
1629456601552,2074
1629456601556,2068
1629456601560,2064
1629456601564,2062
1629456601568,2061
1629456601572,2062
1629456601576,2063
1629456601580,2063
1629456601584,2062
1629456601588,2061
1629456601592,2060
1629456601596,2058
1629456601600,2057
1629456601604,2057
1629456601608,2057
1629456601612,2057
1629456601616,2057
1629456601620,2057
1629456601624,2056
1629456601628,2056
1629456601632,2055
1629456601636,2055
1629456601640,2054
1629456601644,2054
1629456601648,2053
1629456601652,2052
1629456601656,2052
1629456601660,2051
1629456601664,2050
1629456601668,2049
1629456601672,2048
1629456601676,2048
1629456601680,2046
1629456601684,2044
1629456601688,2043
1629456601692,2042
1629456601696,2041
1629456601700,2039
1629456601704,2038
1629456601708,2037
1629456601712,2036
1629456601716,2035
1629456601720,2034
1629456601724,2034
1629456601728,2034
1629456601732,2035
1629456601736,2036
1629456601740,2037
1629456601744,2038
1629456601748,2039
1629456601752,2040
1629456601756,2042
1629456601760,2044
1629456601764,2047
1629456601768,2049
1629456601772,2053
1629456601776,2055
1629456601780,2057
1629456601784,2058
1629456601788,2059
1629456601792,2059
1629456601796,2060
1629456601800,2060
1629456601804,2061
1629456601808,2061
1629456601812,2061
1629456601816,2062
1629456601820,2062
1629456601824,2063
1629456601828,2063
1629456601832,2063
1629456601836,2063
1629456601840,2063
1629456601844,2063
1629456601848,2063
1629456601852,2063
1629456601856,2063
1629456601860,2063
1629456601864,2063
1629456601868,2063
1629456601872,2063
1629456601876,2062
1629456601880,2061
1629456601884,2060
1629456601888,2060
1629456601892,2060
1629456601896,2060
1629456601900,2061
1629456601904,2061
1629456601908,2061
1629456601912,2060
1629456601916,2060
1629456601920,2059
1629456601924,2059
1629456601928,2058
1629456601932,2058
1629456601936,2059
1629456601940,2059
1629456601944,2060
1629456601948,2059
1629456601952,2059
1629456601956,2058
1629456601960,2058
1629456601964,2058
1629456601968,2058
1629456601972,2058
1629456601976,2057
1629456601980,2058
1629456601984,2058
1629456601988,2059
1629456601992,2059
1629456601996,2058
1629456602000,2056
1629456602004,2054
1629456602008,2053
1629456602012,2052
1629456602016,2052
1629456602020,2052
1629456602024,2052
1629456602028,2052
1629456602032,2052
1629456602036,2053
1629456602040,2054
1629456602044,2055
1629456602048,2057
1629456602052,2059
1629456602056,2061
1629456602060,2061
1629456602064,2061
1629456602068,2061
1629456602072,2061
1629456602076,2061
1629456602080,2060
1629456602084,2060
1629456602088,2061
1629456602092,2061
1629456602096,2062
1629456602100,2062
1629456602104,2061
1629456602108,2061
1629456602112,2061
1629456602116,2061
1629456602120,2062
1629456602124,2063
1629456602128,2060
1629456602132,2048
1629456602136,2026
1629456602140,1992
1629456602144,1958
1629456602148,1937
1629456602152,1939
1629456602156,1965
1629456602160,2005
1629456602164,2045
1629456602168,2073
1629456602172,2088
1629456602176,2090
1629456602180,2086
1629456602184,2081
1629456602188,2075
1629456602192,2070
1629456602196,2065
1629456602200,2062
1629456602204,2062
1629456602208,2062
1629456602212,2062
1629456602216,2062
1629456602220,2062
1629456602224,2061
1629456602228,2059
1629456602232,2058
1629456602236,2058
1629456602240,2057
1629456602244,2057
1629456602248,2056
1629456602252,2056
