timestamp,ecg_waveform
1630501821547,2050
1630501821551,2048
1630501821555,2046
1630501821559,2044
1630501821563,2043
1630501821567,2043
1630501821571,2043
1630501821575,2042
1630501821579,2042
1630501821583,2041
1630501821587,2039
1630501821591,2038
1630501821595,2037
1630501821599,2037
1630501821603,2039
1630501821607,2040
1630501821611,2040
1630501821615,2040
1630501821619,2039
1630501821623,2037
1630501821627,2035
1630501821631,2033
1630501821635,2032
1630501821639,2033
1630501821643,2038
1630501821647,2049
1630501821651,2068
1630501821655,2090
1630501821659,2108
1630501821663,2112
1630501821667,2097
1630501821671,2067
1630501821675,2033
1630501821679,2004
1630501821683,1988
1630501821687,1986
1630501821691,1992
1630501821695,2002
1630501821699,2012
1630501821703,2020
1630501821707,2025
1630501821711,2029
1630501821715,2030
1630501821719,2031
1630501821723,2033
1630501821727,2037
1630501821731,2041
1630501821735,2045
1630501821739,2045
1630501821743,2045
1630501821747,2044
1630501821751,2045
1630501821755,2046
1630501821759,2048
1630501821763,2048
1630501821767,2048
1630501821771,2048
1630501821775,2048
1630501821779,2048
1630501821783,2049
1630501821787,2050
1630501821791,2050
1630501821795,2050
1630501821799,2050
1630501821803,2051
1630501821807,2052
1630501821811,2053
1630501821815,2054
1630501821819,2055
1630501821823,2057
1630501821827,2059
1630501821831,2061
1630501821835,2062
1630501821839,2062
1630501821843,2063
1630501821847,2063
1630501821851,2063
1630501821855,2064
1630501821859,2065
1630501821863,2066
1630501821867,2066
1630501821871,2066
1630501821875,2066
1630501821879,2067
1630501821883,2067
1630501821887,2068
1630501821891,2069
1630501821895,2069
1630501821899,2069
1630501821903,2068
1630501821907,2067
1630501821911,2065
1630501821915,2063
1630501821919,2062
1630501821923,2062
1630501821927,2061
1630501821931,2060
1630501821935,2059
1630501821939,2056
1630501821943,2053
1630501821947,2050
1630501821951,2048
1630501821955,2047
1630501821959,2046
1630501821963,2046
1630501821967,2046
1630501821971,2046
1630501821975,2047
1630501821979,2047
1630501821983,2046
1630501821987,2045
1630501821991,2044
1630501821995,2043
1630501821999,2043
1630501822003,2044
1630501822007,2045
1630501822011,2046
1630501822015,2047
1630501822019,2047
1630501822023,2047
1630501822027,2046
1630501822031,2045
1630501822035,2044
1630501822039,2044
1630501822043,2045
1630501822047,2046
1630501822051,2046
1630501822055,2047
1630501822059,2046
1630501822063,2046
1630501822067,2045
1630501822071,2045
1630501822075,2045
1630501822079,2045
1630501822083,2045
1630501822087,2044
1630501822091,2045
1630501822095,2045
1630501822099,2045
1630501822103,2045
1630501822107,2044
1630501822111,2043
1630501822115,2043
1630501822119,2043
1630501822123,2045
1630501822127,2046
1630501822131,2048
1630501822135,2048
1630501822139,2050
1630501822143,2051
1630501822147,2052
1630501822151,2052
1630501822155,2052
1630501822159,2051
1630501822163,2050
1630501822167,2050
1630501822171,2049
1630501822175,2048
1630501822179,2048
1630501822183,2045
1630501822187,2042
1630501822191,2039
1630501822195,2038
1630501822199,2038
1630501822203,2040
1630501822207,2040
1630501822211,2040
1630501822215,2039
1630501822219,2039
1630501822223,2039
1630501822227,2040
1630501822231,2040
1630501822235,2039
1630501822239,2037
1630501822243,2036
1630501822247,2035
1630501822251,2035
1630501822255,2037
1630501822259,2043
1630501822263,2054
1630501822267,2073
1630501822271,2093
1630501822275,2107
1630501822279,2106
1630501822283,2088
1630501822287,2057
1630501822291,2025
1630501822295,2000
1630501822299,1987
1630501822303,1987
1630501822307,1993
1630501822311,2003
1630501822315,2012
1630501822319,2020
1630501822323,2027
1630501822327,2032
1630501822331,2035
1630501822335,2037
1630501822339,2038
1630501822343,2040
1630501822347,2041
1630501822351,2042
1630501822355,2042
1630501822359,2042
1630501822363,2043
1630501822367,2045
1630501822371,2047
1630501822375,2048
1630501822379,2048
1630501822383,2048
1630501822387,2048
1630501822391,2047
1630501822395,2047
1630501822399,2047
1630501822403,2048
1630501822407,2049
1630501822411,2051
1630501822415,2052
1630501822419,2053
1630501822423,2054
1630501822427,2054
1630501822431,2053
1630501822435,2053
1630501822439,2053
1630501822443,2054
1630501822447,2056
1630501822451,2059
1630501822455,2061
1630501822459,2062
1630501822463,2062
1630501822467,2062
1630501822471,2063
1630501822475,2064
1630501822479,2065
1630501822483,2066
1630501822487,2067
1630501822491,2068
1630501822495,2068
1630501822499,2068
1630501822503,2067
1630501822507,2066
1630501822511,2066
1630501822515,2066
1630501822519,2066
1630501822523,2066
1630501822527,2065
1630501822531,2064
1630501822535,2062
1630501822539,2060
1630501822543,2057
1630501822547,2056
1630501822551,2054
1630501822555,2053
1630501822559,2052
1630501822563,2051
1630501822567,2049
1630501822571,2048
1630501822575,2047
1630501822579,2045
1630501822583,2044
1630501822587,2043
1630501822591,2043
1630501822595,2042
1630501822599,2042
1630501822603,2042
1630501822607,2042
1630501822611,2042
1630501822615,2042
1630501822619,2042
1630501822623,2043
1630501822627,2043
1630501822631,2043
1630501822635,2044
1630501822639,2044
1630501822643,2045
1630501822647,2046
1630501822651,2046
1630501822655,2046
1630501822659,2045
1630501822663,2045
1630501822667,2044
1630501822671,2044
1630501822675,2044
1630501822679,2044
1630501822683,2044
1630501822687,2044
1630501822691,2044
1630501822695,2043
1630501822699,2042
1630501822703,2041
1630501822707,2040
1630501822711,2040
1630501822715,2040
1630501822719,2041
1630501822723,2043
1630501822727,2045
1630501822731,2046
1630501822735,2046
1630501822739,2046
1630501822743,2046
1630501822747,2046
1630501822751,2047
1630501822755,2048
1630501822759,2050
1630501822763,2052
1630501822767,2054
1630501822771,2055
1630501822775,2055
1630501822779,2053
1630501822783,2052
1630501822787,2049
1630501822791,2048
1630501822795,2048
1630501822799,2048
1630501822803,2047
1630501822807,2047
1630501822811,2046
1630501822815,2045
1630501822819,2045
1630501822823,2045
1630501822827,2045
1630501822831,2044
1630501822835,2043
1630501822839,2041
1630501822843,2041
1630501822847,2041
1630501822851,2043
1630501822855,2044
1630501822859,2044
1630501822863,2043
1630501822867,2041
1630501822871,2038
1630501822875,2037
1630501822879,2038
1630501822883,2043
1630501822887,2055
1630501822891,2075
1630501822895,2097
1630501822899,2113
1630501822903,2113
1630501822907,2096
1630501822911,2065
1630501822915,2031
1630501822919,2003
1630501822923,1989
1630501822927,1988
1630501822931,1994
1630501822935,2004
1630501822939,2013
1630501822943,2021
1630501822947,2027
1630501822951,2032
1630501822955,2036
1630501822959,2038
1630501822963,2040
1630501822967,2042
1630501822971,2044
1630501822975,2046
1630501822979,2047
1630501822983,2048
1630501822987,2049
1630501822991,2049
1630501822995,2048
1630501822999,2049
1630501823003,2049
1630501823007,2051
1630501823011,2053
1630501823015,2054
1630501823019,2055
1630501823023,2055
1630501823027,2054
1630501823031,2054
1630501823035,2054
1630501823039,2055
1630501823043,2056
1630501823047,2058
1630501823051,2059
1630501823055,2060
1630501823059,2061
1630501823063,2061
1630501823067,2060
1630501823071,2060
1630501823075,2060
1630501823079,2062
1630501823083,2064
1630501823087,2066
1630501823091,2067
1630501823095,2068
1630501823099,2068
1630501823103,2069
1630501823107,2069
1630501823111,2069
1630501823115,2070
1630501823119,2071
1630501823123,2073
1630501823127,2074
1630501823131,2074
1630501823135,2074
1630501823139,2073
1630501823143,2073
1630501823147,2073
1630501823151,2072
1630501823155,2071
1630501823159,2068
1630501823163,2064
1630501823167,2060
1630501823171,2057
1630501823175,2056
1630501823179,2056
1630501823183,2056
1630501823187,2055
1630501823191,2053
1630501823195,2050
1630501823199,2048
1630501823203,2047
1630501823207,2045
1630501823211,2045
1630501823215,2046
1630501823219,2047
1630501823223,2048
1630501823227,2048
1630501823231,2047
1630501823235,2045
1630501823239,2044
1630501823243,2043
1630501823247,2043
1630501823251,2044
1630501823255,2044
1630501823259,2045
1630501823263,2046
1630501823267,2047
1630501823271,2047
1630501823275,2047
1630501823279,2045
1630501823283,2044
1630501823287,2043
1630501823291,2043
1630501823295,2044
1630501823299,2046
1630501823303,2047
1630501823307,2046
1630501823311,2046
1630501823315,2045
1630501823319,2044
1630501823323,2043
1630501823327,2043
1630501823331,2042
1630501823335,2042
1630501823339,2042
1630501823343,2043
1630501823347,2044
1630501823351,2045
1630501823355,2046
1630501823359,2046
1630501823363,2046
1630501823367,2047
1630501823371,2048
1630501823375,2050
1630501823379,2051
1630501823383,2051
1630501823387,2051
1630501823391,2051
1630501823395,2052
1630501823399,2052
1630501823403,2052
1630501823407,2052
1630501823411,2051
1630501823415,2049
1630501823419,2048
1630501823423,2048
1630501823427,2046
1630501823431,2044
1630501823435,2043
1630501823439,2042
1630501823443,2043
1630501823447,2043
1630501823451,2043
1630501823455,2042
1630501823459,2041
1630501823463,2040
1630501823467,2040
1630501823471,2041
1630501823475,2042
1630501823479,2042
1630501823483,2042
1630501823487,2040
1630501823491,2038
1630501823495,2036
1630501823499,2034
1630501823503,2034
1630501823507,2038
1630501823511,2048
1630501823515,2066
1630501823519,2088
1630501823523,2107
1630501823527,2114
1630501823531,2103
1630501823535,2074
1630501823539,2038
1630501823543,2006
1630501823547,1987
1630501823551,1982
1630501823555,1987
1630501823559,1996
1630501823563,2005
1630501823567,2013
1630501823571,2020
1630501823575,2026
1630501823579,2030
1630501823583,2032
1630501823587,2033
1630501823591,2034
1630501823595,2035
1630501823599,2038
1630501823603,2042
1630501823607,2045
1630501823611,2047
1630501823615,2048
1630501823619,2048
1630501823623,2046
1630501823627,2046
1630501823631,2047
1630501823635,2048
1630501823639,2050
1630501823643,2051
1630501823647,2051
1630501823651,2050
1630501823655,2050
1630501823659,2051
1630501823663,2052
1630501823667,2053
1630501823671,2053
1630501823675,2053
1630501823679,2053
1630501823683,2055
1630501823687,2057
1630501823691,2059
1630501823695,2062
1630501823699,2064
1630501823703,2066
1630501823707,2067
1630501823711,2066
1630501823715,2066
1630501823719,2065
1630501823723,2066
1630501823727,2067
1630501823731,2069
1630501823735,2070
1630501823739,2071
1630501823743,2072
1630501823747,2072
1630501823751,2071
1630501823755,2070
1630501823759,2069
1630501823763,2068
1630501823767,2068
1630501823771,2069
1630501823775,2069
1630501823779,2069
1630501823783,2068
1630501823787,2066
1630501823791,2063
1630501823795,2060
1630501823799,2057
1630501823803,2055
1630501823807,2054
1630501823811,2053
1630501823815,2051
1630501823819,2049
1630501823823,2048
1630501823827,2046
1630501823831,2044
1630501823835,2043
1630501823839,2043
1630501823843,2042
1630501823847,2041
1630501823851,2040
1630501823855,2039
1630501823859,2039
1630501823863,2041
1630501823867,2043
1630501823871,2044
1630501823875,2045
1630501823879,2046
1630501823883,2046
1630501823887,2045
1630501823891,2045
1630501823895,2045
1630501823899,2045
1630501823903,2045
1630501823907,2045
1630501823911,2044
1630501823915,2043
1630501823919,2042
1630501823923,2042
1630501823927,2042
1630501823931,2043
1630501823935,2044
1630501823939,2045
1630501823943,2044
1630501823947,2043
1630501823951,2042
1630501823955,2041
1630501823959,2041
1630501823963,2042
1630501823967,2043
1630501823971,2044
1630501823975,2045
1630501823979,2044
1630501823983,2044
1630501823987,2043
1630501823991,2043
1630501823995,2044
1630501823999,2045
1630501824003,2047
1630501824007,2048
1630501824011,2050
1630501824015,2052
1630501824019,2053
1630501824023,2052
1630501824027,2050
1630501824031,2048
1630501824035,2047
1630501824039,2045
1630501824043,2045
1630501824047,2045
1630501824051,2044
1630501824055,2043
1630501824059,2041
1630501824063,2040
1630501824067,2040
1630501824071,2040
1630501824075,2039
1630501824079,2039
1630501824083,2038
1630501824087,2037
1630501824091,2038
1630501824095,2039
1630501824099,2040
1630501824103,2040
1630501824107,2038
1630501824111,2035
1630501824115,2032
1630501824119,2030
1630501824123,2032
1630501824127,2037
1630501824131,2047
1630501824135,2062
1630501824139,2082
1630501824143,2102
1630501824147,2111
1630501824151,2105
1630501824155,2083
1630501824159,2049
1630501824163,2018
1630501824167,1996
1630501824171,1987
1630501824175,1990
1630501824179,1998
1630501824183,2008
1630501824187,2016
1630501824191,2022
1630501824195,2026
1630501824199,2030
1630501824203,2033
1630501824207,2036
1630501824211,2038
1630501824215,2041
1630501824219,2043
1630501824223,2043
1630501824227,2044
1630501824231,2045
1630501824235,2046
1630501824239,2047
1630501824243,2047
1630501824247,2047
1630501824251,2047
1630501824255,2047
1630501824259,2047
1630501824263,2048
1630501824267,2048
1630501824271,2049
1630501824275,2050
1630501824279,2050
1630501824283,2052
1630501824287,2053
1630501824291,2055
1630501824295,2055
1630501824299,2056
1630501824303,2056
1630501824307,2056
1630501824311,2056
1630501824315,2057
1630501824319,2059
1630501824323,2061
1630501824327,2062
1630501824331,2063
1630501824335,2063
1630501824339,2064
1630501824343,2065
1630501824347,2066
1630501824351,2067
1630501824355,2068
1630501824359,2068
1630501824363,2067
1630501824367,2067
1630501824371,2067
1630501824375,2069
1630501824379,2070
1630501824383,2070
1630501824387,2069
1630501824391,2067
1630501824395,2065
1630501824399,2063
1630501824403,2061
1630501824407,2059
1630501824411,2057
1630501824415,2056
1630501824419,2054
1630501824423,2053
1630501824427,2052
1630501824431,2051
1630501824435,2048
1630501824439,2047
1630501824443,2045
1630501824447,2045
1630501824451,2046
1630501824455,2047
1630501824459,2046
1630501824463,2045
1630501824467,2043
1630501824471,2042
1630501824475,2041
1630501824479,2041
1630501824483,2042
1630501824487,2043
1630501824491,2044
1630501824495,2044
1630501824499,2043
1630501824503,2043
1630501824507,2043
1630501824511,2043
1630501824515,2043
1630501824519,2043
1630501824523,2043
1630501824527,2044
1630501824531,2044
1630501824535,2045
1630501824539,2046
1630501824543,2046
1630501824547,2045
1630501824551,2045
1630501824555,2045
1630501824559,2046
1630501824563,2046
1630501824567,2046
1630501824571,2045
1630501824575,2043
1630501824579,2042
1630501824583,2040
1630501824587,2039
1630501824591,2040
1630501824595,2041
1630501824599,2042
1630501824603,2043
1630501824607,2043
1630501824611,2044
1630501824615,2044
1630501824619,2045
1630501824623,2046
1630501824627,2047
1630501824631,2047
1630501824635,2048
1630501824639,2049
1630501824643,2052
1630501824647,2054
1630501824651,2056
1630501824655,2055
1630501824659,2053
1630501824663,2050
1630501824667,2048
1630501824671,2046
1630501824675,2044
1630501824679,2043
1630501824683,2042
1630501824687,2041
1630501824691,2040
1630501824695,2040
1630501824699,2039
1630501824703,2039
1630501824707,2040
1630501824711,2040
1630501824715,2039
1630501824719,2039
1630501824723,2039
1630501824727,2040
1630501824731,2041
1630501824735,2041
1630501824739,2040
1630501824743,2038
1630501824747,2036
1630501824751,2036
1630501824755,2039
1630501824759,2048
1630501824763,2065
1630501824767,2088
1630501824771,2107
1630501824775,2115
1630501824779,2105
1630501824783,2078
1630501824787,2044
1630501824791,2011
1630501824795,1990
1630501824799,1983
1630501824803,1988
1630501824807,1998
1630501824811,2009
1630501824815,2019
1630501824819,2026
1630501824823,2031
1630501824827,2033
1630501824831,2035
1630501824835,2037
1630501824839,2038
1630501824843,2040
1630501824847,2042
1630501824851,2044
1630501824855,2045
1630501824859,2047
1630501824863,2047
1630501824867,2046
1630501824871,2044
1630501824875,2043
1630501824879,2042
1630501824883,2043
1630501824887,2045
1630501824891,2047
1630501824895,2048
1630501824899,2049
1630501824903,2048
1630501824907,2048
1630501824911,2048
1630501824915,2048
1630501824919,2049
1630501824923,2052
1630501824927,2054
1630501824931,2055
1630501824935,2055
1630501824939,2055
1630501824943,2055
1630501824947,2055
1630501824951,2056
1630501824955,2056
1630501824959,2057
1630501824963,2058
1630501824967,2059
1630501824971,2060
1630501824975,2060
1630501824979,2061
1630501824983,2060
1630501824987,2060
1630501824991,2060
1630501824995,2062
1630501824999,2063
1630501825003,2064
1630501825007,2065
1630501825011,2065
1630501825015,2065
1630501825019,2063
1630501825023,2061
1630501825027,2059
1630501825031,2058
1630501825035,2057
1630501825039,2056
1630501825043,2055
1630501825047,2052
1630501825051,2049
1630501825055,2048
1630501825059,2046
1630501825063,2046
1630501825067,2045
1630501825071,2045
1630501825075,2045
1630501825079,2044
1630501825083,2042
1630501825087,2040
1630501825091,2039
1630501825095,2037
1630501825099,2036
1630501825103,2036
1630501825107,2037
1630501825111,2038
1630501825115,2039
1630501825119,2039
1630501825123,2040
1630501825127,2041
1630501825131,2042
1630501825135,2043
1630501825139,2043
1630501825143,2043
1630501825147,2042
1630501825151,2041
1630501825155,2040
1630501825159,2040
1630501825163,2040
1630501825167,2040
1630501825171,2039
1630501825175,2039
1630501825179,2039
1630501825183,2039
1630501825187,2039
1630501825191,2039
1630501825195,2039
1630501825199,2038
1630501825203,2037
1630501825207,2036
1630501825211,2037
1630501825215,2037
1630501825219,2037
1630501825223,2037
1630501825227,2037
1630501825231,2037
1630501825235,2037
1630501825239,2037
1630501825243,2038
1630501825247,2038
1630501825251,2038
1630501825255,2039
1630501825259,2040
1630501825263,2041
1630501825267,2042
1630501825271,2043
1630501825275,2044
1630501825279,2046
1630501825283,2047
1630501825287,2048
1630501825291,2048
1630501825295,2047
1630501825299,2046
1630501825303,2045
1630501825307,2044
1630501825311,2043
1630501825315,2040
1630501825319,2037
1630501825323,2035
1630501825327,2033
1630501825331,2033
1630501825335,2035
1630501825339,2037
1630501825343,2038
1630501825347,2039
1630501825351,2039
1630501825355,2038
1630501825359,2037
1630501825363,2037
1630501825367,2036
1630501825371,2034
1630501825375,2032
1630501825379,2031
1630501825383,2029
1630501825387,2029
1630501825391,2030
1630501825395,2036
1630501825399,2047
1630501825403,2064
1630501825407,2086
1630501825411,2103
1630501825415,2108
1630501825419,2095
1630501825423,2066
1630501825427,2032
1630501825431,2003
1630501825435,1985
1630501825439,1980
1630501825443,1985
1630501825447,1994
1630501825451,2004
1630501825455,2013
1630501825459,2020
1630501825463,2025
1630501825467,2029
1630501825471,2031
1630501825475,2032
1630501825479,2034
1630501825483,2036
1630501825487,2037
1630501825491,2039
1630501825495,2040
1630501825499,2041
1630501825503,2042
1630501825507,2043
1630501825511,2043
1630501825515,2043
1630501825519,2044
1630501825523,2045
1630501825527,2047
1630501825531,2047
1630501825535,2047
1630501825539,2046
1630501825543,2046
1630501825547,2045
1630501825551,2046
1630501825555,2048
1630501825559,2048
1630501825563,2050
1630501825567,2052
1630501825571,2053
1630501825575,2055
1630501825579,2056
1630501825583,2057
1630501825587,2057
1630501825591,2057
1630501825595,2058
1630501825599,2059
1630501825603,2061
1630501825607,2063
1630501825611,2064
1630501825615,2064
1630501825619,2063
1630501825623,2062
1630501825627,2062
1630501825631,2063
1630501825635,2064
1630501825639,2065
1630501825643,2065
1630501825647,2065
1630501825651,2065
1630501825655,2065
1630501825659,2065
1630501825663,2065
1630501825667,2064
1630501825671,2062
1630501825675,2060
1630501825679,2058
1630501825683,2057
1630501825687,2055
1630501825691,2054
1630501825695,2051
1630501825699,2049
1630501825703,2048
1630501825707,2045
1630501825711,2044
1630501825715,2042
1630501825719,2041
1630501825723,2041
1630501825727,2041
1630501825731,2041
1630501825735,2041
1630501825739,2040
1630501825743,2041
1630501825747,2041
1630501825751,2043
1630501825755,2044
1630501825759,2044
1630501825763,2043
1630501825767,2043
1630501825771,2043
1630501825775,2043
1630501825779,2043
1630501825783,2043
1630501825787,2043
1630501825791,2043
1630501825795,2044
1630501825799,2044
1630501825803,2044
1630501825807,2043
1630501825811,2042
1630501825815,2042
1630501825819,2042
1630501825823,2043
1630501825827,2043
1630501825831,2043
1630501825835,2043
1630501825839,2042
1630501825843,2042
1630501825847,2042
1630501825851,2042
1630501825855,2042
1630501825859,2042
1630501825863,2042
1630501825867,2041
1630501825871,2041
1630501825875,2041
1630501825879,2041
1630501825883,2042
1630501825887,2043
1630501825891,2045
1630501825895,2046
1630501825899,2047
1630501825903,2047
1630501825907,2048
1630501825911,2048
1630501825915,2048
1630501825919,2049
1630501825923,2050
1630501825927,2050
1630501825931,2050
1630501825935,2048
1630501825939,2048
1630501825943,2046
1630501825947,2044
1630501825951,2043
1630501825955,2041
1630501825959,2039
1630501825963,2038
1630501825967,2037
1630501825971,2037
1630501825975,2038
1630501825979,2040
1630501825983,2042
1630501825987,2043
1630501825991,2043
1630501825995,2043
1630501825999,2042
1630501826003,2041
1630501826007,2040
1630501826011,2038
1630501826015,2036
1630501826019,2034
1630501826023,2033
1630501826027,2036
1630501826031,2044
1630501826035,2057
1630501826039,2078
1630501826043,2099
1630501826047,2112
1630501826051,2108
1630501826055,2087
1630501826059,2054
1630501826063,2020
1630501826067,1994
1630501826071,1982
1630501826075,1982
1630501826079,1990
1630501826083,2000
1630501826087,2009
1630501826091,2016
1630501826095,2022
1630501826099,2026
1630501826103,2029
1630501826107,2030
1630501826111,2032
1630501826115,2034
1630501826119,2038
1630501826123,2040
1630501826127,2042
1630501826131,2043
1630501826135,2043
1630501826139,2043
1630501826143,2044
1630501826147,2044
1630501826151,2046
1630501826155,2046
1630501826159,2047
1630501826163,2046
1630501826167,2047
1630501826171,2047
1630501826175,2048
1630501826179,2048
1630501826183,2048
1630501826187,2048
1630501826191,2049
1630501826195,2050
1630501826199,2051
1630501826203,2054
1630501826207,2056
1630501826211,2058
1630501826215,2059
1630501826219,2060
1630501826223,2059
1630501826227,2058
1630501826231,2057
1630501826235,2057
1630501826239,2058
1630501826243,2060
1630501826247,2062
1630501826251,2064
1630501826255,2065
1630501826259,2066
1630501826263,2067
1630501826267,2068
1630501826271,2069
1630501826275,2070
1630501826279,2069
1630501826283,2069
1630501826287,2067
1630501826291,2065
1630501826295,2063
1630501826299,2062
1630501826303,2063
1630501826307,2062
1630501826311,2061
1630501826315,2058
1630501826319,2055
1630501826323,2052
1630501826327,2050
1630501826331,2048
1630501826335,2047
1630501826339,2046
1630501826343,2044
1630501826347,2043
1630501826351,2042
1630501826355,2042
1630501826359,2042
1630501826363,2042
1630501826367,2041
1630501826371,2040
1630501826375,2038
1630501826379,2037
1630501826383,2037
1630501826387,2038
1630501826391,2040
1630501826395,2041
1630501826399,2041
1630501826403,2040
1630501826407,2039
1630501826411,2038
1630501826415,2039
1630501826419,2040
1630501826423,2042
1630501826427,2043
1630501826431,2042
1630501826435,2041
1630501826439,2040
1630501826443,2040
1630501826447,2039
1630501826451,2040
1630501826455,2041
1630501826459,2041
1630501826463,2040
1630501826467,2038
1630501826471,2037
1630501826475,2037
1630501826479,2038
1630501826483,2039
1630501826487,2040
1630501826491,2039
1630501826495,2038
1630501826499,2038
1630501826503,2038
1630501826507,2040
1630501826511,2041
1630501826515,2042
1630501826519,2043
1630501826523,2043
1630501826527,2045
1630501826531,2046
1630501826535,2047
1630501826539,2048
1630501826543,2049
1630501826547,2051
1630501826551,2052
1630501826555,2052
1630501826559,2050
1630501826563,2048
1630501826567,2047
1630501826571,2046
1630501826575,2045
1630501826579,2043
1630501826583,2042
1630501826587,2041
1630501826591,2040
1630501826595,2039
1630501826599,2039
1630501826603,2039
1630501826607,2039
1630501826611,2038
1630501826615,2039
1630501826619,2039
1630501826623,2040
1630501826627,2040
1630501826631,2039
1630501826635,2038
1630501826639,2037
1630501826643,2036
1630501826647,2035
1630501826651,2034
1630501826655,2034
1630501826659,2037
1630501826663,2044
1630501826667,2057
1630501826671,2079
1630501826675,2101
1630501826679,2113
1630501826683,2110
1630501826687,2088
1630501826691,2054
1630501826695,2022
1630501826699,1998
1630501826703,1988
1630501826707,1988
1630501826711,1995
1630501826715,2005
1630501826719,2013
1630501826723,2021
1630501826727,2028
1630501826731,2033
1630501826735,2036
1630501826739,2037
1630501826743,2037
1630501826747,2037
1630501826751,2038
1630501826755,2039
1630501826759,2041
1630501826763,2044
1630501826767,2046
1630501826771,2047
1630501826775,2046
1630501826779,2046
1630501826783,2045
1630501826787,2045
1630501826791,2046
1630501826795,2048
1630501826799,2048
1630501826803,2050
1630501826807,2051
1630501826811,2051
1630501826815,2052
1630501826819,2052
1630501826823,2053
1630501826827,2054
1630501826831,2054
1630501826835,2055
1630501826839,2055
1630501826843,2056
1630501826847,2057
1630501826851,2059
1630501826855,2061
1630501826859,2063
1630501826863,2064
1630501826867,2065
1630501826871,2065
1630501826875,2066
1630501826879,2066
1630501826883,2067
1630501826887,2067
1630501826891,2067
1630501826895,2067
1630501826899,2066
1630501826903,2066
1630501826907,2067
1630501826911,2067
1630501826915,2068
1630501826919,2069
1630501826923,2069
1630501826927,2068
1630501826931,2066
1630501826935,2065
1630501826939,2064
1630501826943,2063
1630501826947,2061
1630501826951,2059
1630501826955,2056
1630501826959,2054
1630501826963,2052
1630501826967,2051
1630501826971,2050
1630501826975,2049
1630501826979,2048
1630501826983,2047
1630501826987,2046
1630501826991,2045
1630501826995,2044
1630501826999,2044
1630501827003,2045
1630501827007,2046
1630501827011,2047
1630501827015,2047
1630501827019,2046
1630501827023,2046
1630501827027,2045
1630501827031,2046
1630501827035,2047
1630501827039,2048
1630501827043,2048
1630501827047,2048
1630501827051,2047
1630501827055,2047
1630501827059,2047
1630501827063,2048
1630501827067,2048
1630501827071,2048
1630501827075,2047
1630501827079,2046
1630501827083,2046
1630501827087,2046
1630501827091,2047
1630501827095,2048
1630501827099,2048
1630501827103,2048
1630501827107,2048
1630501827111,2047
1630501827115,2046
1630501827119,2046
1630501827123,2045
1630501827127,2046
1630501827131,2046
1630501827135,2047
1630501827139,2047
1630501827143,2047
1630501827147,2046
1630501827151,2046
1630501827155,2047
1630501827159,2048
1630501827163,2049
1630501827167,2051
1630501827171,2053
1630501827175,2055
1630501827179,2057
1630501827183,2058
1630501827187,2057
1630501827191,2056
1630501827195,2054
1630501827199,2052
1630501827203,2051
1630501827207,2050
1630501827211,2049
1630501827215,2048
1630501827219,2047
1630501827223,2046
1630501827227,2045
1630501827231,2043
1630501827235,2043
1630501827239,2043
1630501827243,2044
1630501827247,2045
1630501827251,2047
1630501827255,2047
1630501827259,2046
1630501827263,2045
1630501827267,2043
1630501827271,2042
1630501827275,2041
1630501827279,2041
1630501827283,2041
1630501827287,2042
1630501827291,2046
1630501827295,2053
1630501827299,2068
1630501827303,2090
1630501827307,2109
1630501827311,2119
1630501827315,2110
1630501827319,2085
1630501827323,2050
1630501827327,2018
1630501827331,1997
1630501827335,1991
1630501827339,1995
1630501827343,2004
1630501827347,2014
1630501827351,2022
1630501827355,2029
1630501827359,2035
1630501827363,2039
1630501827367,2042
1630501827371,2043
1630501827375,2045
1630501827379,2046
1630501827383,2047
1630501827387,2047
1630501827391,2047
1630501827395,2048
1630501827399,2048
1630501827403,2049
1630501827407,2050
1630501827411,2052
1630501827415,2053
1630501827419,2054
1630501827423,2055
1630501827427,2056
1630501827431,2057
1630501827435,2057
1630501827439,2056
1630501827443,2055
1630501827447,2055
1630501827451,2056
1630501827455,2058
1630501827459,2059
1630501827463,2059
1630501827467,2059
1630501827471,2058
1630501827475,2059
1630501827479,2060
1630501827483,2062
1630501827487,2064
1630501827491,2065
1630501827495,2067
1630501827499,2068
1630501827503,2069
1630501827507,2070
1630501827511,2070
1630501827515,2070
1630501827519,2069
1630501827523,2070
1630501827527,2070
1630501827531,2071
1630501827535,2072
1630501827539,2073
1630501827543,2073
1630501827547,2072
1630501827551,2072
1630501827555,2072
1630501827559,2072
1630501827563,2071
1630501827567,2069
1630501827571,2066
1630501827575,2062
1630501827579,2060
1630501827583,2058
1630501827587,2057
1630501827591,2056
1630501827595,2056
1630501827599,2055
1630501827603,2053
1630501827607,2050
1630501827611,2048
1630501827615,2048
1630501827619,2047
1630501827623,2046
1630501827627,2046
1630501827631,2047
1630501827635,2048
1630501827639,2049
1630501827643,2050
1630501827647,2050
1630501827651,2049
1630501827655,2048
1630501827659,2045
1630501827663,2044
1630501827667,2044
1630501827671,2045
1630501827675,2046
1630501827679,2047
1630501827683,2048
1630501827687,2048
1630501827691,2048
1630501827695,2047
1630501827699,2046
1630501827703,2047
1630501827707,2047
1630501827711,2048
1630501827715,2048
1630501827719,2048
1630501827723,2047
1630501827727,2046
1630501827731,2045
1630501827735,2045
1630501827739,2045
1630501827743,2044
1630501827747,2044
1630501827751,2045
1630501827755,2045
1630501827759,2045
1630501827763,2046
1630501827767,2047
1630501827771,2048
1630501827775,2048
1630501827779,2048
1630501827783,2048
1630501827787,2048
1630501827791,2047
1630501827795,2047
1630501827799,2047
1630501827803,2048
1630501827807,2049
1630501827811,2050
1630501827815,2050
1630501827819,2052
1630501827823,2053
1630501827827,2054
1630501827831,2053
1630501827835,2053
1630501827839,2051
1630501827843,2050
1630501827847,2049
1630501827851,2048
1630501827855,2047
1630501827859,2046
1630501827863,2045
1630501827867,2044
1630501827871,2044
1630501827875,2044
1630501827879,2044
1630501827883,2044
1630501827887,2043
1630501827891,2042
1630501827895,2041
1630501827899,2041
1630501827903,2041
1630501827907,2040
1630501827911,2040
1630501827915,2039
1630501827919,2038
1630501827923,2037
1630501827927,2037
1630501827931,2040
1630501827935,2046
1630501827939,2056
1630501827943,2074
1630501827947,2096
1630501827951,2112
1630501827955,2115
1630501827959,2100
1630501827963,2069
1630501827967,2033
1630501827971,2004
1630501827975,1988
1630501827979,1986
1630501827983,1993
1630501827987,2004
1630501827991,2013
1630501827995,2021
1630501827999,2027
1630501828003,2032
1630501828007,2035
1630501828011,2037
1630501828015,2039
1630501828019,2041
1630501828023,2043
1630501828027,2044
1630501828031,2045
1630501828035,2046
1630501828039,2047
1630501828043,2048
1630501828047,2048
1630501828051,2048
1630501828055,2048
1630501828059,2048
1630501828063,2048
1630501828067,2048
1630501828071,2048
1630501828075,2048
1630501828079,2049
1630501828083,2051
1630501828087,2052
1630501828091,2053
1630501828095,2053
1630501828099,2053
1630501828103,2053
1630501828107,2053
1630501828111,2054
1630501828115,2056
1630501828119,2058
1630501828123,2059
1630501828127,2061
1630501828131,2063
1630501828135,2064
1630501828139,2065
1630501828143,2066
1630501828147,2065
1630501828151,2065
1630501828155,2065
1630501828159,2065
1630501828163,2066
1630501828167,2067
1630501828171,2067
1630501828175,2067
1630501828179,2066
1630501828183,2067
1630501828187,2067
1630501828191,2067
1630501828195,2067
1630501828199,2068
1630501828203,2068
1630501828207,2067
1630501828211,2065
1630501828215,2062
1630501828219,2059
1630501828223,2056
1630501828227,2054
1630501828231,2052
1630501828235,2051
1630501828239,2050
1630501828243,2048
1630501828247,2048
1630501828251,2047
1630501828255,2046
1630501828259,2045
1630501828263,2045
1630501828267,2044
1630501828271,2044
1630501828275,2043
1630501828279,2043
1630501828283,2044
1630501828287,2043
1630501828291,2043
1630501828295,2042
1630501828299,2042
1630501828303,2042
1630501828307,2042
1630501828311,2042
1630501828315,2042
1630501828319,2042
1630501828323,2043
1630501828327,2043
1630501828331,2044
1630501828335,2045
1630501828339,2046
1630501828343,2046
1630501828347,2047
1630501828351,2046
1630501828355,2045
1630501828359,2043
1630501828363,2042
1630501828367,2042
1630501828371,2044
1630501828375,2045
1630501828379,2046
1630501828383,2045
1630501828387,2043
1630501828391,2042
1630501828395,2041
1630501828399,2041
1630501828403,2041
1630501828407,2043
1630501828411,2044
1630501828415,2045
1630501828419,2045
1630501828423,2045
1630501828427,2045
1630501828431,2045
1630501828435,2045
1630501828439,2046
1630501828443,2048
1630501828447,2049
1630501828451,2051
1630501828455,2053
1630501828459,2053
1630501828463,2051
1630501828467,2049
1630501828471,2047
1630501828475,2045
1630501828479,2044
1630501828483,2044
1630501828487,2044
1630501828491,2043
1630501828495,2043
1630501828499,2042
1630501828503,2041
1630501828507,2041
1630501828511,2041
1630501828515,2041
1630501828519,2041
1630501828523,2040
1630501828527,2040
1630501828531,2039
1630501828535,2039
1630501828539,2038
1630501828543,2037
1630501828547,2035
1630501828551,2033
1630501828555,2031
1630501828559,2031
1630501828563,2034
1630501828567,2039
1630501828571,2048
1630501828575,2063
1630501828579,2083
1630501828583,2102
1630501828587,2112
1630501828591,2105
1630501828595,2081
1630501828599,2047
1630501828603,2014
1630501828607,1991
1630501828611,1983
1630501828615,1985
1630501828619,1992
1630501828623,2000
1630501828627,2006
1630501828631,2013
1630501828635,2020
1630501828639,2027
1630501828643,2033
1630501828647,2036
1630501828651,2038
1630501828655,2039
1630501828659,2041
1630501828663,2042
1630501828667,2042
1630501828671,2043
1630501828675,2044
1630501828679,2045
1630501828683,2047
1630501828687,2048
1630501828691,2049
1630501828695,2050
1630501828699,2050
1630501828703,2050
1630501828707,2050
1630501828711,2051
1630501828715,2051
1630501828719,2052
1630501828723,2053
1630501828727,2054
1630501828731,2056
1630501828735,2057
1630501828739,2058
1630501828743,2059
1630501828747,2060
1630501828751,2061
1630501828755,2062
1630501828759,2063
1630501828763,2064
1630501828767,2065
1630501828771,2066
1630501828775,2067
1630501828779,2068
1630501828783,2069
1630501828787,2070
1630501828791,2071
1630501828795,2071
1630501828799,2072
1630501828803,2072
1630501828807,2073
1630501828811,2073
1630501828815,2075
1630501828819,2076
1630501828823,2076
1630501828827,2076
1630501828831,2074
1630501828835,2073
1630501828839,2070
1630501828843,2069
1630501828847,2067
1630501828851,2065
1630501828855,2063
1630501828859,2060
1630501828863,2056
1630501828867,2053
1630501828871,2051
1630501828875,2049
1630501828879,2049
1630501828883,2048
1630501828887,2048
1630501828891,2048
1630501828895,2048
1630501828899,2048
1630501828903,2047
1630501828907,2045
1630501828911,2043
1630501828915,2042
1630501828919,2041
1630501828923,2043
1630501828927,2045
1630501828931,2047
1630501828935,2048
1630501828939,2048
1630501828943,2047
1630501828947,2046
1630501828951,2045
1630501828955,2046
1630501828959,2046
1630501828963,2048
1630501828967,2048
1630501828971,2048
1630501828975,2047
1630501828979,2046
1630501828983,2045
1630501828987,2045
1630501828991,2045
1630501828995,2046
1630501828999,2047
1630501829003,2048
1630501829007,2048
1630501829011,2047
1630501829015,2046
1630501829019,2045
1630501829023,2043
1630501829027,2043
1630501829031,2042
1630501829035,2042
1630501829039,2042
1630501829043,2042
1630501829047,2043
1630501829051,2043
1630501829055,2045
1630501829059,2046
1630501829063,2048
1630501829067,2048
1630501829071,2049
1630501829075,2051
1630501829079,2052
1630501829083,2053
1630501829087,2055
1630501829091,2057
1630501829095,2058
1630501829099,2056
1630501829103,2053
1630501829107,2050
1630501829111,2048
1630501829115,2047
1630501829119,2046
1630501829123,2045
1630501829127,2045
1630501829131,2043
1630501829135,2043
1630501829139,2043
1630501829143,2045
1630501829147,2046
1630501829151,2046
1630501829155,2046
1630501829159,2044
1630501829163,2043
1630501829167,2044
1630501829171,2044
1630501829175,2044
1630501829179,2043
1630501829183,2040
1630501829187,2037
1630501829191,2035
1630501829195,2036
1630501829199,2041
1630501829203,2052
1630501829207,2071
1630501829211,2095
1630501829215,2115
1630501829219,2121
1630501829223,2109
1630501829227,2079
1630501829231,2043
1630501829235,2010
1630501829239,1991
1630501829243,1988
1630501829247,1994
1630501829251,2006
1630501829255,2016
1630501829259,2024
1630501829263,2029
1630501829267,2033
1630501829271,2034
1630501829275,2035
1630501829279,2036
1630501829283,2040
1630501829287,2044
1630501829291,2048
1630501829295,2048
1630501829299,2049
1630501829303,2048
1630501829307,2048
1630501829311,2048
1630501829315,2049
1630501829319,2051
1630501829323,2052
1630501829327,2052
1630501829331,2053
1630501829335,2052
1630501829339,2053
1630501829343,2053
1630501829347,2053
1630501829351,2053
1630501829355,2054
1630501829359,2055
1630501829363,2057
1630501829367,2059
1630501829371,2060
1630501829375,2061
1630501829379,2062
1630501829383,2063
1630501829387,2063
1630501829391,2063
1630501829395,2064
1630501829399,2065
1630501829403,2067
1630501829407,2069
1630501829411,2071
1630501829415,2071
1630501829419,2071
1630501829423,2071
1630501829427,2071
1630501829431,2071
1630501829435,2072
1630501829439,2073
1630501829443,2074
1630501829447,2074
1630501829451,2074
1630501829455,2073
1630501829459,2071
1630501829463,2070
1630501829467,2069
1630501829471,2069
1630501829475,2070
1630501829479,2070
1630501829483,2069
1630501829487,2067
1630501829491,2064
1630501829495,2062
1630501829499,2059
1630501829503,2057
1630501829507,2054
1630501829511,2051
1630501829515,2049
1630501829519,2048
1630501829523,2048
1630501829527,2048
1630501829531,2048
1630501829535,2048
1630501829539,2047
1630501829543,2047
1630501829547,2048
1630501829551,2048
1630501829555,2049
1630501829559,2049
1630501829563,2049
1630501829567,2048
1630501829571,2048
1630501829575,2048
1630501829579,2048
1630501829583,2049
1630501829587,2050
1630501829591,2051
1630501829595,2050
1630501829599,2050
1630501829603,2050
1630501829607,2050
1630501829611,2050
1630501829615,2050
1630501829619,2049
1630501829623,2048
1630501829627,2048
1630501829631,2048
1630501829635,2049
1630501829639,2049
1630501829643,2050
1630501829647,2050
1630501829651,2049
1630501829655,2048
1630501829659,2048
1630501829663,2048
1630501829667,2048
1630501829671,2047
1630501829675,2047
1630501829679,2047
1630501829683,2048
1630501829687,2049
1630501829691,2051
1630501829695,2052
1630501829699,2052
1630501829703,2052
1630501829707,2052
1630501829711,2053
1630501829715,2054
1630501829719,2055
1630501829723,2056
1630501829727,2058
1630501829731,2059
1630501829735,2059
1630501829739,2058
1630501829743,2056
1630501829747,2054
1630501829751,2052
1630501829755,2051
1630501829759,2050
1630501829763,2049
1630501829767,2049
1630501829771,2048
1630501829775,2048
1630501829779,2048
1630501829783,2048
1630501829787,2047
1630501829791,2046
1630501829795,2046
1630501829799,2046
1630501829803,2046
1630501829807,2047
1630501829811,2047
1630501829815,2046
1630501829819,2044
1630501829823,2042
1630501829827,2040
1630501829831,2040
1630501829835,2043
1630501829839,2049
1630501829843,2063
1630501829847,2083
1630501829851,2106
1630501829855,2122
1630501829859,2123
1630501829863,2105
1630501829867,2071
1630501829871,2035
1630501829875,2006
1630501829879,1990
1630501829883,1990
1630501829887,1999
1630501829891,2011
1630501829895,2023
1630501829899,2031
1630501829903,2037
1630501829907,2040
1630501829911,2041
1630501829915,2042
1630501829919,2044
1630501829923,2046
1630501829927,2048
1630501829931,2048
1630501829935,2048
1630501829939,2048
1630501829943,2048
1630501829947,2049
1630501829951,2052
1630501829955,2054
1630501829959,2055
1630501829963,2054
1630501829967,2053
1630501829971,2053
1630501829975,2054
1630501829979,2056
1630501829983,2057
1630501829987,2058
1630501829991,2058
1630501829995,2058
1630501829999,2058
1630501830003,2059
1630501830007,2059
1630501830011,2059
1630501830015,2060
1630501830019,2060
1630501830023,2062
1630501830027,2062
1630501830031,2063
1630501830035,2064
1630501830039,2064
1630501830043,2066
1630501830047,2068
1630501830051,2070
1630501830055,2072
1630501830059,2073
1630501830063,2073
1630501830067,2072
1630501830071,2071
1630501830075,2070
1630501830079,2070
1630501830083,2070
1630501830087,2070
1630501830091,2070
1630501830095,2071
1630501830099,2071
1630501830103,2071
1630501830107,2070
1630501830111,2069
1630501830115,2067
1630501830119,2065
1630501830123,2062
1630501830127,2060
1630501830131,2058
1630501830135,2056
1630501830139,2055
1630501830143,2053
1630501830147,2052
1630501830151,2050
1630501830155,2048
1630501830159,2047
1630501830163,2046
1630501830167,2045
1630501830171,2046
1630501830175,2048
1630501830179,2049
1630501830183,2050
1630501830187,2049
1630501830191,2048
1630501830195,2048
1630501830199,2048
1630501830203,2048
1630501830207,2048
1630501830211,2049
1630501830215,2048
1630501830219,2047
1630501830223,2046
1630501830227,2045
1630501830231,2045
1630501830235,2046
1630501830239,2047
1630501830243,2047
1630501830247,2046
1630501830251,2046
1630501830255,2045
1630501830259,2046
1630501830263,2048
1630501830267,2048
1630501830271,2048
1630501830275,2047
1630501830279,2046
1630501830283,2045
1630501830287,2045
1630501830291,2047
1630501830295,2048
1630501830299,2048
1630501830303,2047
1630501830307,2045
1630501830311,2043
1630501830315,2042
1630501830319,2042
1630501830323,2043
1630501830327,2045
1630501830331,2045
1630501830335,2045
1630501830339,2046
1630501830343,2047
1630501830347,2048
1630501830351,2049
1630501830355,2051
1630501830359,2052
1630501830363,2052
1630501830367,2053
1630501830371,2054
1630501830375,2054
1630501830379,2053
1630501830383,2051
1630501830387,2049
1630501830391,2048
1630501830395,2048
1630501830399,2047
1630501830403,2047
1630501830407,2047
1630501830411,2046
1630501830415,2045
1630501830419,2043
1630501830423,2041
1630501830427,2040
1630501830431,2040
1630501830435,2041
1630501830439,2042
1630501830443,2043
1630501830447,2044
1630501830451,2045
1630501830455,2044
1630501830459,2042
1630501830463,2040
1630501830467,2038
1630501830471,2036
1630501830475,2036
1630501830479,2039
1630501830483,2046
1630501830487,2059
1630501830491,2080
1630501830495,2101
1630501830499,2115
1630501830503,2114
1630501830507,2094
1630501830511,2061
1630501830515,2027
1630501830519,2001
1630501830523,1988
1630501830527,1988
1630501830531,1995
1630501830535,2006
1630501830539,2015
1630501830543,2022
1630501830547,2027
1630501830551,2031
1630501830555,2034
1630501830559,2036
1630501830563,2039
1630501830567,2041
1630501830571,2042
1630501830575,2043
1630501830579,2044
1630501830583,2045
1630501830587,2047
1630501830591,2048
1630501830595,2048
1630501830599,2048
1630501830603,2047
1630501830607,2047
1630501830611,2048
1630501830615,2048
1630501830619,2048
1630501830623,2048
1630501830627,2049
1630501830631,2049
1630501830635,2050
1630501830639,2051
1630501830643,2052
1630501830647,2053
1630501830651,2054
1630501830655,2055
1630501830659,2056
1630501830663,2057
1630501830667,2058
1630501830671,2059
1630501830675,2058
1630501830679,2058
1630501830683,2058
1630501830687,2060
1630501830691,2062
1630501830695,2064
1630501830699,2066
1630501830703,2068
1630501830707,2068
1630501830711,2067
1630501830715,2067
1630501830719,2067
1630501830723,2068
1630501830727,2068
1630501830731,2067
1630501830735,2067
1630501830739,2066
1630501830743,2066
1630501830747,2065
1630501830751,2065
1630501830755,2064
1630501830759,2063
1630501830763,2062
1630501830767,2060
1630501830771,2059
1630501830775,2057
1630501830779,2054
1630501830783,2051
1630501830787,2048
1630501830791,2046
1630501830795,2044
1630501830799,2044
1630501830803,2044
1630501830807,2044
1630501830811,2044
1630501830815,2044
1630501830819,2043
1630501830823,2043
1630501830827,2042
1630501830831,2041
1630501830835,2041
1630501830839,2041
1630501830843,2042
1630501830847,2044
1630501830851,2045
1630501830855,2045
1630501830859,2044
1630501830863,2043
1630501830867,2042
1630501830871,2041
1630501830875,2042
1630501830879,2042
1630501830883,2043
1630501830887,2044
1630501830891,2044
1630501830895,2044
1630501830899,2044
1630501830903,2044
1630501830907,2044
1630501830911,2043
1630501830915,2043
1630501830919,2044
1630501830923,2044
1630501830927,2044
1630501830931,2044
1630501830935,2043
1630501830939,2043
1630501830943,2043
1630501830947,2043
1630501830951,2042
1630501830955,2040
1630501830959,2040
1630501830963,2040
1630501830967,2041
1630501830971,2043
1630501830975,2044
1630501830979,2045
1630501830983,2044
1630501830987,2043
1630501830991,2042
1630501830995,2043
1630501830999,2045
1630501831003,2048
1630501831007,2050
1630501831011,2053
1630501831015,2055
1630501831019,2055
1630501831023,2054
1630501831027,2052
1630501831031,2049
1630501831035,2048
1630501831039,2046
1630501831043,2046
1630501831047,2045
1630501831051,2044
1630501831055,2044
1630501831059,2043
1630501831063,2042
1630501831067,2041
1630501831071,2041
1630501831075,2040
1630501831079,2041
1630501831083,2043
1630501831087,2045
1630501831091,2045
1630501831095,2045
1630501831099,2043
1630501831103,2041
1630501831107,2039
1630501831111,2039
1630501831115,2039
1630501831119,2039
1630501831123,2039
1630501831127,2040
1630501831131,2046
1630501831135,2057
1630501831139,2078
1630501831143,2101
1630501831147,2117
1630501831151,2117
1630501831155,2098
1630501831159,2064
1630501831163,2028
1630501831167,2000
1630501831171,1986
1630501831175,1985
1630501831179,1993
1630501831183,2003
1630501831187,2011
1630501831191,2018
1630501831195,2024
1630501831199,2029
1630501831203,2033
1630501831207,2037
1630501831211,2040
1630501831215,2042
1630501831219,2044
1630501831223,2046
1630501831227,2046
1630501831231,2046
1630501831235,2047
1630501831239,2048
1630501831243,2050
1630501831247,2051
1630501831251,2053
1630501831255,2052
1630501831259,2051
1630501831263,2050
1630501831267,2050
1630501831271,2051
1630501831275,2052
1630501831279,2053
1630501831283,2054
1630501831287,2054
1630501831291,2054
1630501831295,2055
1630501831299,2057
1630501831303,2058
1630501831307,2059
1630501831311,2059
1630501831315,2059
1630501831319,2060
1630501831323,2062
1630501831327,2065
1630501831331,2068
1630501831335,2070
1630501831339,2071
1630501831343,2072
1630501831347,2072
1630501831351,2072
1630501831355,2072
1630501831359,2072
1630501831363,2072
1630501831367,2072
1630501831371,2072
1630501831375,2072
1630501831379,2071
1630501831383,2071
1630501831387,2071
1630501831391,2071
1630501831395,2071
1630501831399,2070
1630501831403,2069
1630501831407,2066
1630501831411,2064
1630501831415,2062
1630501831419,2060
1630501831423,2059
1630501831427,2057
1630501831431,2054
1630501831435,2050
1630501831439,2048
1630501831443,2045
1630501831447,2044
1630501831451,2045
1630501831455,2045
1630501831459,2045
1630501831463,2045
1630501831467,2043
1630501831471,2041
1630501831475,2040
1630501831479,2040
1630501831483,2041
1630501831487,2042
1630501831491,2043
1630501831495,2044
1630501831499,2044
1630501831503,2044
1630501831507,2042
1630501831511,2041
1630501831515,2040
1630501831519,2041
1630501831523,2042
1630501831527,2043
1630501831531,2044
1630501831535,2045
1630501831539,2044
1630501831543,2044
1630501831547,2044
1630501831551,2044
1630501831555,2043
1630501831559,2043
1630501831563,2042
1630501831567,2042
1630501831571,2042
1630501831575,2042
1630501831579,2042
1630501831583,2041
1630501831587,2040
1630501831591,2039
1630501831595,2039
1630501831599,2039
1630501831603,2040
1630501831607,2041
1630501831611,2042
1630501831615,2042
1630501831619,2042
1630501831623,2042
1630501831627,2042
1630501831631,2042
1630501831635,2043
1630501831639,2044
1630501831643,2046
1630501831647,2047
1630501831651,2048
1630501831655,2049
1630501831659,2049
1630501831663,2050
1630501831667,2049
1630501831671,2049
1630501831675,2048
1630501831679,2047
1630501831683,2047
1630501831687,2046
1630501831691,2046
1630501831695,2045
1630501831699,2043
1630501831703,2042
1630501831707,2041
1630501831711,2040
1630501831715,2040
1630501831719,2040
1630501831723,2040
1630501831727,2040
1630501831731,2040
1630501831735,2040
1630501831739,2041
1630501831743,2040
1630501831747,2040
1630501831751,2038
1630501831755,2035
1630501831759,2033
1630501831763,2032
1630501831767,2034
1630501831771,2041
1630501831775,2053
1630501831779,2073
1630501831783,2096
1630501831787,2114
1630501831791,2118
1630501831795,2103
1630501831799,2072
1630501831803,2037
1630501831807,2007
1630501831811,1990
1630501831815,1987
1630501831819,1992
1630501831823,2001
1630501831827,2009
1630501831831,2017
1630501831835,2024
1630501831839,2029
1630501831843,2034
1630501831847,2036
1630501831851,2038
1630501831855,2040
1630501831859,2042
1630501831863,2043
1630501831867,2043
1630501831871,2042
1630501831875,2043
1630501831879,2045
1630501831883,2047
1630501831887,2048
1630501831891,2049
1630501831895,2048
1630501831899,2048
1630501831903,2048
1630501831907,2049
1630501831911,2049
1630501831915,2049
1630501831919,2049
1630501831923,2050
1630501831927,2051
1630501831931,2052
1630501831935,2053
1630501831939,2053
1630501831943,2053
1630501831947,2054
1630501831951,2055
1630501831955,2057
1630501831959,2059
1630501831963,2061
1630501831967,2063
1630501831971,2064
1630501831975,2064
1630501831979,2064
1630501831983,2063
1630501831987,2063
1630501831991,2064
1630501831995,2066
1630501831999,2068
1630501832003,2069
1630501832007,2070
1630501832011,2070
1630501832015,2069
1630501832019,2068
1630501832023,2066
1630501832027,2065
1630501832031,2063
1630501832035,2062
1630501832039,2062
1630501832043,2063
1630501832047,2062
1630501832051,2061
1630501832055,2059
1630501832059,2057
1630501832063,2055
1630501832067,2053
1630501832071,2051
1630501832075,2048
1630501832079,2047
1630501832083,2046
1630501832087,2045
1630501832091,2044
1630501832095,2043
1630501832099,2042
1630501832103,2041
1630501832107,2041
1630501832111,2041
1630501832115,2040
1630501832119,2040
1630501832123,2040
1630501832127,2039
1630501832131,2039
1630501832135,2040
1630501832139,2041
1630501832143,2042
1630501832147,2042
1630501832151,2042
1630501832155,2041
1630501832159,2039
1630501832163,2039
1630501832167,2039
1630501832171,2039
1630501832175,2039
1630501832179,2040
1630501832183,2040
1630501832187,2040
1630501832191,2039
1630501832195,2038
1630501832199,2037
1630501832203,2036
1630501832207,2037
1630501832211,2038
1630501832215,2038
1630501832219,2038
1630501832223,2038
1630501832227,2037
1630501832231,2035
1630501832235,2034
1630501832239,2033
1630501832243,2033
1630501832247,2033
1630501832251,2034
1630501832255,2034
1630501832259,2035
1630501832263,2035
1630501832267,2035
1630501832271,2035
1630501832275,2035
1630501832279,2036
1630501832283,2037
1630501832287,2039
1630501832291,2041
1630501832295,2042
1630501832299,2043
1630501832303,2045
1630501832307,2045
1630501832311,2044
1630501832315,2043
1630501832319,2041
1630501832323,2040
1630501832327,2039
1630501832331,2039
1630501832335,2038
1630501832339,2036
1630501832343,2034
1630501832347,2032
1630501832351,2030
1630501832355,2031
1630501832359,2032
1630501832363,2033
1630501832367,2034
1630501832371,2035
1630501832375,2034
1630501832379,2033
1630501832383,2031
1630501832387,2030
1630501832391,2030
1630501832395,2030
1630501832399,2029
1630501832403,2028
1630501832407,2026
1630501832411,2024
1630501832415,2023
1630501832419,2025
1630501832423,2031
1630501832427,2044
1630501832431,2061
1630501832435,2082
1630501832439,2098
1630501832443,2100
1630501832447,2086
1630501832451,2058
1630501832455,2026
1630501832459,1999
1630501832463,1983
1630501832467,1980
1630501832471,1985
1630501832475,1994
1630501832479,2002
1630501832483,2009
1630501832487,2015
1630501832491,2019
1630501832495,2022
1630501832499,2025
1630501832503,2027
1630501832507,2030
1630501832511,2032
1630501832515,2034
1630501832519,2035
1630501832523,2036
1630501832527,2037
1630501832531,2039
1630501832535,2039
1630501832539,2040
1630501832543,2040
1630501832547,2040
1630501832551,2040
1630501832555,2041
1630501832559,2041
1630501832563,2042
1630501832567,2043
1630501832571,2044
1630501832575,2044
1630501832579,2045
1630501832583,2045
1630501832587,2046
1630501832591,2048
1630501832595,2050
1630501832599,2053
1630501832603,2055
1630501832607,2057
1630501832611,2057
1630501832615,2058
1630501832619,2059
1630501832623,2060
1630501832627,2061
1630501832631,2061
1630501832635,2062
1630501832639,2063
1630501832643,2064
1630501832647,2066
1630501832651,2067
1630501832655,2069
1630501832659,2070
1630501832663,2071
1630501832667,2071
1630501832671,2073
1630501832675,2074
1630501832679,2074
1630501832683,2074
1630501832687,2073
1630501832691,2072
1630501832695,2070
1630501832699,2069
1630501832703,2068
1630501832707,2067
1630501832711,2066
1630501832715,2065
1630501832719,2064
1630501832723,2063
1630501832727,2062
1630501832731,2062
1630501832735,2061
1630501832739,2061
1630501832743,2060
1630501832747,2060
1630501832751,2060
1630501832755,2061
1630501832759,2062
1630501832763,2064
1630501832767,2065
1630501832771,2065
1630501832775,2064
1630501832779,2064
1630501832783,2064
1630501832787,2064
1630501832791,2064
1630501832795,2065
1630501832799,2065
1630501832803,2067
1630501832807,2070
1630501832811,2072
1630501832815,2074
1630501832819,2075
1630501832823,2074
1630501832827,2074
1630501832831,2074
1630501832835,2075
1630501832839,2076
1630501832843,2077
1630501832847,2078
1630501832851,2078
1630501832855,2078
1630501832859,2078
1630501832863,2078
1630501832867,2077
1630501832871,2077
1630501832875,2079
1630501832879,2081
1630501832883,2083
1630501832887,2086
1630501832891,2088
1630501832895,2089
1630501832899,2089
1630501832903,2089
1630501832907,2089
1630501832911,2090
1630501832915,2092
1630501832919,2094
1630501832923,2096
1630501832927,2098
1630501832931,2100
1630501832935,2102
1630501832939,2104
1630501832943,2107
1630501832947,2109
1630501832951,2110
1630501832955,2111
1630501832959,2111
1630501832963,2112
1630501832967,2113
1630501832971,2113
1630501832975,2113
1630501832979,2113
1630501832983,2112
1630501832987,2112
1630501832991,2112
1630501832995,2113
1630501832999,2114
1630501833003,2115
1630501833007,2115
1630501833011,2115
1630501833015,2116
1630501833019,2116
1630501833023,2118
1630501833027,2120
1630501833031,2122
1630501833035,2123
1630501833039,2123
1630501833043,2123
1630501833047,2122
1630501833051,2122
1630501833055,2123
1630501833059,2123
1630501833063,2125
1630501833067,2129
1630501833071,2138
1630501833075,2153
1630501833079,2174
1630501833083,2194
1630501833087,2205
1630501833091,2198
1630501833095,2173
1630501833099,2139
1630501833103,2107
1630501833107,2086
1630501833111,2079
1630501833115,2084
1630501833119,2094
1630501833123,2106
1630501833127,2115
1630501833131,2123
1630501833135,2129
1630501833139,2133
1630501833143,2137
1630501833147,2142
1630501833151,2147
1630501833155,2152
1630501833159,2155
1630501833163,2155
1630501833167,2153
1630501833171,2152
1630501833175,2151
1630501833179,2152
1630501833183,2154
1630501833187,2156
1630501833191,2158
1630501833195,2160
1630501833199,2162
1630501833203,2163
1630501833207,2164
1630501833211,2166
1630501833215,2168
1630501833219,2171
1630501833223,2173
1630501833227,2174
1630501833231,2176
1630501833235,2177
1630501833239,2180
1630501833243,2184
1630501833247,2187
1630501833251,2188
1630501833255,2187
1630501833259,2185
1630501833263,2183
1630501833267,2182
1630501833271,2184
1630501833275,2187
1630501833279,2189
1630501833283,2191
1630501833287,2192
1630501833291,2194
1630501833295,2196
1630501833299,2197
1630501833303,2199
1630501833307,2200
1630501833311,2200
1630501833315,2200
1630501833319,2199
1630501833323,2198
1630501833327,2197
1630501833331,2197
1630501833335,2198
1630501833339,2200
1630501833343,2201
1630501833347,2201
1630501833351,2198
1630501833355,2192
1630501833359,2186
1630501833363,2181
1630501833367,2178
1630501833371,2177
1630501833375,2177
1630501833379,2177
1630501833383,2175
1630501833387,2173
1630501833391,2171
1630501833395,2170
1630501833399,2170
1630501833403,2171
1630501833407,2172
1630501833411,2172
1630501833415,2173
1630501833419,2174
1630501833423,2175
1630501833427,2174
1630501833431,2174
1630501833435,2173
1630501833439,2172
1630501833443,2171
1630501833447,2170
1630501833451,2170
1630501833455,2169
1630501833459,2169
1630501833463,2170
1630501833467,2170
1630501833471,2170
1630501833475,2170
1630501833479,2171
1630501833483,2171
1630501833487,2171
1630501833491,2170
1630501833495,2170
1630501833499,2170
1630501833503,2170
1630501833507,2170
1630501833511,2170
1630501833515,2168
1630501833519,2165
1630501833523,2162
1630501833527,2158
1630501833531,2155
1630501833535,2153
1630501833539,2153
1630501833543,2154
1630501833547,2155
1630501833551,2156
1630501833555,2156
1630501833559,2156
1630501833563,2155
1630501833567,2155
1630501833571,2156
1630501833575,2157
1630501833579,2158
1630501833583,2158
1630501833587,2159
1630501833591,2160
1630501833595,2160
1630501833599,2159
1630501833603,2158
1630501833607,2156
1630501833611,2154
1630501833615,2152
1630501833619,2150
1630501833623,2148
1630501833627,2146
1630501833631,2145
1630501833635,2144
1630501833639,2144
1630501833643,2143
1630501833647,2142
1630501833651,2141
1630501833655,2140
1630501833659,2140
1630501833663,2139
1630501833667,2138
1630501833671,2137
1630501833675,2136
1630501833679,2134
1630501833683,2133
1630501833687,2132
1630501833691,2130
1630501833695,2128
1630501833699,2128
1630501833703,2130
1630501833707,2136
1630501833711,2148
1630501833715,2167
1630501833719,2188
1630501833723,2201
1630501833727,2198
1630501833731,2176
1630501833735,2140
1630501833739,2102
1630501833743,2074
1630501833747,2061
1630501833751,2061
1630501833755,2068
1630501833759,2078
1630501833763,2088
1630501833767,2096
1630501833771,2102
1630501833775,2107
1630501833779,2110
1630501833783,2112
1630501833787,2112
1630501833791,2112
1630501833795,2113
1630501833799,2113
1630501833803,2113
1630501833807,2114
1630501833811,2115
1630501833815,2117
1630501833819,2118
1630501833823,2118
1630501833827,2117
1630501833831,2117
1630501833835,2117
1630501833839,2118
1630501833843,2118
1630501833847,2118
1630501833851,2118
1630501833855,2117
1630501833859,2116
1630501833863,2116
1630501833867,2115
1630501833871,2114
1630501833875,2114
1630501833879,2113
1630501833883,2113
1630501833887,2113
1630501833891,2114
1630501833895,2115
1630501833899,2115
1630501833903,2115
1630501833907,2116
1630501833911,2117
1630501833915,2118
1630501833919,2121
1630501833923,2122
1630501833927,2122
1630501833931,2121
1630501833935,2119
1630501833939,2116
1630501833943,2114
1630501833947,2113
1630501833951,2113
1630501833955,2115
1630501833959,2116
1630501833963,2116
1630501833967,2116
1630501833971,2114
1630501833975,2112
1630501833979,2111
1630501833983,2109
1630501833987,2107
1630501833991,2103
1630501833995,2100
1630501833999,2097
1630501834003,2095
1630501834007,2092
1630501834011,2089
1630501834015,2086
1630501834019,2083
1630501834023,2081
1630501834027,2080
1630501834031,2080
1630501834035,2080
1630501834039,2080
1630501834043,2079
1630501834047,2077
1630501834051,2075
1630501834055,2073
1630501834059,2073
1630501834063,2075
1630501834067,2077
1630501834071,2079
1630501834075,2079
1630501834079,2078
1630501834083,2076
1630501834087,2074
1630501834091,2073
1630501834095,2073
1630501834099,2073
1630501834103,2073
1630501834107,2072
1630501834111,2072
1630501834115,2071
1630501834119,2070
1630501834123,2069
1630501834127,2069
1630501834131,2068
1630501834135,2068
1630501834139,2069
1630501834143,2069
1630501834147,2069
1630501834151,2068
1630501834155,2067
1630501834159,2065
1630501834163,2063
1630501834167,2063
1630501834171,2063
1630501834175,2064
1630501834179,2065
1630501834183,2065
1630501834187,2063
1630501834191,2061
1630501834195,2060
1630501834199,2061
1630501834203,2064
1630501834207,2066
1630501834211,2067
1630501834215,2066
1630501834219,2064
1630501834223,2062
1630501834227,2061
1630501834231,2060
1630501834235,2060
1630501834239,2060
1630501834243,2059
1630501834247,2057
1630501834251,2055
1630501834255,2051
1630501834259,2048
1630501834263,2045
1630501834267,2043
1630501834271,2043
1630501834275,2044
1630501834279,2045
1630501834283,2046
1630501834287,2045
1630501834291,2045
1630501834295,2045
1630501834299,2045
1630501834303,2044
1630501834307,2043
1630501834311,2042
1630501834315,2041
1630501834319,2041
1630501834323,2041
1630501834327,2041
1630501834331,2041
1630501834335,2043
1630501834339,2050
1630501834343,2065
1630501834347,2087
1630501834351,2108
1630501834355,2117
1630501834359,2108
1630501834363,2081
1630501834367,2046
1630501834371,2013
1630501834375,1991
1630501834379,1982
1630501834383,1985
1630501834387,1994
1630501834391,2005
1630501834395,2015
1630501834399,2023
1630501834403,2029
1630501834407,2032
1630501834411,2034
1630501834415,2034
1630501834419,2035
1630501834423,2038
1630501834427,2040
1630501834431,2042
1630501834435,2042
1630501834439,2041
1630501834443,2040
1630501834447,2039
1630501834451,2039
1630501834455,2040
1630501834459,2042
1630501834463,2044
1630501834467,2045
1630501834471,2045
1630501834475,2045
1630501834479,2044
1630501834483,2044
1630501834487,2044
1630501834491,2044
1630501834495,2044
1630501834499,2044
1630501834503,2044
1630501834507,2044
1630501834511,2043
1630501834515,2043
1630501834519,2043
1630501834523,2044
1630501834527,2046
1630501834531,2048
1630501834535,2050
1630501834539,2052
1630501834543,2053
1630501834547,2053
1630501834551,2053
1630501834555,2053
1630501834559,2053
1630501834563,2053
1630501834567,2052
1630501834571,2052
1630501834575,2052
1630501834579,2052
1630501834583,2051
1630501834587,2050
1630501834591,2050
1630501834595,2049
1630501834599,2048
1630501834603,2048
1630501834607,2048
1630501834611,2048
1630501834615,2046
1630501834619,2044
1630501834623,2042
1630501834627,2041
1630501834631,2040
1630501834635,2039
1630501834639,2037
1630501834643,2034
1630501834647,2031
1630501834651,2029
1630501834655,2028
1630501834659,2027
1630501834663,2026
1630501834667,2025
1630501834671,2023
1630501834675,2021
1630501834679,2021
1630501834683,2021
1630501834687,2021
1630501834691,2022
1630501834695,2022
1630501834699,2022
1630501834703,2021
1630501834707,2020
1630501834711,2020
1630501834715,2020
1630501834719,2020
1630501834723,2021
1630501834727,2021
1630501834731,2021
1630501834735,2021
1630501834739,2021
1630501834743,2020
1630501834747,2020
1630501834751,2019
1630501834755,2019
1630501834759,2019
1630501834763,2019
1630501834767,2018
1630501834771,2017
1630501834775,2016
1630501834779,2016
1630501834783,2016
1630501834787,2016
1630501834791,2017
1630501834795,2016
1630501834799,2014
1630501834803,2013
1630501834807,2013
1630501834811,2015
1630501834815,2017
1630501834819,2018
1630501834823,2017
1630501834827,2015
1630501834831,2013
1630501834835,2013
1630501834839,2014
1630501834843,2017
1630501834847,2022
1630501834851,2026
1630501834855,2028
1630501834859,2027
1630501834863,2023
1630501834867,2018
1630501834871,2013
1630501834875,2010
1630501834879,2008
1630501834883,2008
1630501834887,2008
1630501834891,2008
1630501834895,2008
1630501834899,2007
1630501834903,2007
1630501834907,2005
1630501834911,2004
1630501834915,2003
1630501834919,2002
1630501834923,2003
1630501834927,2004
1630501834931,2005
1630501834935,2004
1630501834939,2003
1630501834943,2000
1630501834947,1997
1630501834951,1995
1630501834955,1995
1630501834959,1995
1630501834963,1997
1630501834967,2001
1630501834971,2011
1630501834975,2027
1630501834979,2048
1630501834983,2065
1630501834987,2072
1630501834991,2060
1630501834995,2034
1630501834999,1998
1630501835003,1967
1630501835007,1947
1630501835011,1942
1630501835015,1947
1630501835019,1956
1630501835023,1967
1630501835027,1975
1630501835031,1983
1630501835035,1989
1630501835039,1994
1630501835043,1997
1630501835047,1999
1630501835051,2000
1630501835055,2001
1630501835059,2003
1630501835063,2003
1630501835067,2003
1630501835071,2004
1630501835075,2004
1630501835079,2004
1630501835083,2005
1630501835087,2005
1630501835091,2005
1630501835095,2006
1630501835099,2007
1630501835103,2009
1630501835107,2009
1630501835111,2010
1630501835115,2010
1630501835119,2010
1630501835123,2010
1630501835127,2011
1630501835131,2013
1630501835135,2015
1630501835139,2017
1630501835143,2018
1630501835147,2018
1630501835151,2019
1630501835155,2020
1630501835159,2021
1630501835163,2023
1630501835167,2025
1630501835171,2027
1630501835175,2027
1630501835179,2027
1630501835183,2026
1630501835187,2025
1630501835191,2027
1630501835195,2030
1630501835199,2033
1630501835203,2035
1630501835207,2035
1630501835211,2034
1630501835215,2032
1630501835219,2031
1630501835223,2030
1630501835227,2029
1630501835231,2027
1630501835235,2026
1630501835239,2025
1630501835243,2024
1630501835247,2025
1630501835251,2025
1630501835255,2023
1630501835259,2020
1630501835263,2017
1630501835267,2014
1630501835271,2012
1630501835275,2011
1630501835279,2011
1630501835283,2009
1630501835287,2006
1630501835291,2004
1630501835295,2001
1630501835299,1999
1630501835303,1999
1630501835307,2000
1630501835311,2001
1630501835315,2002
1630501835319,2002
1630501835323,2002
1630501835327,2002
1630501835331,2002
1630501835335,2002
1630501835339,2002
1630501835343,2001
1630501835347,2000
1630501835351,1999
1630501835355,1998
1630501835359,1999
1630501835363,2001
1630501835367,2003
1630501835371,2003
1630501835375,2004
1630501835379,2004
1630501835383,2005
1630501835387,2006
1630501835391,2004
1630501835395,2001
1630501835399,1997
1630501835403,1993
1630501835407,1991
1630501835411,1991
1630501835415,1993
1630501835419,1996
1630501835423,1998
1630501835427,2000
1630501835431,2002
1630501835435,2004
1630501835439,2005
1630501835443,2005
1630501835447,2005
1630501835451,2005
1630501835455,2005
1630501835459,2005
1630501835463,2005
1630501835467,2004
1630501835471,2004
1630501835475,2003
1630501835479,2002
1630501835483,2002
1630501835487,2001
1630501835491,2000
1630501835495,2001
1630501835499,2001
1630501835503,2001
1630501835507,2002
1630501835511,2003
1630501835515,2003
1630501835519,2003
1630501835523,2001
1630501835527,1999
1630501835531,1996
1630501835535,1994
1630501835539,1993
1630501835543,1993
1630501835547,1994
1630501835551,1996
1630501835555,1998
1630501835559,1999
1630501835563,1999
1630501835567,1998
1630501835571,1995
1630501835575,1992
1630501835579,1990
1630501835583,1991
1630501835587,1997
1630501835591,2010
1630501835595,2032
1630501835599,2055
1630501835603,2073
1630501835607,2075
1630501835611,2057
1630501835615,2022
1630501835619,1982
1630501835623,1950
1630501835627,1934
1630501835631,1934
1630501835635,1943
1630501835639,1955
1630501835643,1966
1630501835647,1975
1630501835651,1982
1630501835655,1988
1630501835659,1992
1630501835663,1995
1630501835667,1998
1630501835671,2002
1630501835675,2006
1630501835679,2010
1630501835683,2013
1630501835687,2014
1630501835691,2015
1630501835695,2015
1630501835699,2014
1630501835703,2014
1630501835707,2014
1630501835711,2014
1630501835715,2016
1630501835719,2019
1630501835723,2022
1630501835727,2023
1630501835731,2024
1630501835735,2024
1630501835739,2023
1630501835743,2022
1630501835747,2022
1630501835751,2022
1630501835755,2023
1630501835759,2024
1630501835763,2026
1630501835767,2029
1630501835771,2031
1630501835775,2032
1630501835779,2033
1630501835783,2033
1630501835787,2033
1630501835791,2034
1630501835795,2035
1630501835799,2037
1630501835803,2039
1630501835807,2041
1630501835811,2042
1630501835815,2043
1630501835819,2043
1630501835823,2043
1630501835827,2044
1630501835831,2045
1630501835835,2047
1630501835839,2048
1630501835843,2049
1630501835847,2048
1630501835851,2048
1630501835855,2045
1630501835859,2042
1630501835863,2040
1630501835867,2037
1630501835871,2036
1630501835875,2035
1630501835879,2033
1630501835883,2032
1630501835887,2032
1630501835891,2030
1630501835895,2028
1630501835899,2024
1630501835903,2021
1630501835907,2018
1630501835911,2017
1630501835915,2019
1630501835919,2022
1630501835923,2023
1630501835927,2023
1630501835931,2022
1630501835935,2020
1630501835939,2020
1630501835943,2023
1630501835947,2026
1630501835951,2029
1630501835955,2029
1630501835959,2025
1630501835963,2019
1630501835967,2014
1630501835971,2011
1630501835975,2012
1630501835979,2014
1630501835983,2015
1630501835987,2016
1630501835991,2015
1630501835995,2014
1630501835999,2015
1630501836003,2018
1630501836007,2021
1630501836011,2022
1630501836015,2022
1630501836019,2022
1630501836023,2022
1630501836027,2024
1630501836031,2027
1630501836035,2029
1630501836039,2028
1630501836043,2027
1630501836047,2027
1630501836051,2027
1630501836055,2028
1630501836059,2029
1630501836063,2030
1630501836067,2031
1630501836071,2034
1630501836075,2037
1630501836079,2037
1630501836083,2035
1630501836087,2029
1630501836091,2022
1630501836095,2018
1630501836099,2017
1630501836103,2019
1630501836107,2022
1630501836111,2024
1630501836115,2025
1630501836119,2023
1630501836123,2021
1630501836127,2021
1630501836131,2021
1630501836135,2023
1630501836139,2024
1630501836143,2025
1630501836147,2024
1630501836151,2023
1630501836155,2024
1630501836159,2026
1630501836163,2028
1630501836167,2027
1630501836171,2024
1630501836175,2019
1630501836179,2015
1630501836183,2015
1630501836187,2019
1630501836191,2027
1630501836195,2039
1630501836199,2057
1630501836203,2080
1630501836207,2101
1630501836211,2111
1630501836215,2101
1630501836219,2071
1630501836223,2030
1630501836227,1990
1630501836231,1966
1630501836235,1959
1630501836239,1966
1630501836243,1978
1630501836247,1990
1630501836251,1999
1630501836255,2007
1630501836259,2015
1630501836263,2022
1630501836267,2028
1630501836271,2032
1630501836275,2033
1630501836279,2032
1630501836283,2029
1630501836287,2026
1630501836291,2024
1630501836295,2025
1630501836299,2027
1630501836303,2032
1630501836307,2034
1630501836311,2036
1630501836315,2036
1630501836319,2034
1630501836323,2032
1630501836327,2029
1630501836331,2027
1630501836335,2027
1630501836339,2028
1630501836343,2030
1630501836347,2031
1630501836351,2034
1630501836355,2037
1630501836359,2041
1630501836363,2046
1630501836367,2051
1630501836371,2057
1630501836375,2062
1630501836379,2066
1630501836383,2067
1630501836387,2067
1630501836391,2065
1630501836395,2063
1630501836399,2063
1630501836403,2064
1630501836407,2066
1630501836411,2069
1630501836415,2071
1630501836419,2071
1630501836423,2070
1630501836427,2068
1630501836431,2067
1630501836435,2068
1630501836439,2070
1630501836443,2073
1630501836447,2073
1630501836451,2072
1630501836455,2069
1630501836459,2065
1630501836463,2063
1630501836467,2062
1630501836471,2062
1630501836475,2060
1630501836479,2058
1630501836483,2054
1630501836487,2051
1630501836491,2049
1630501836495,2048
1630501836499,2048
1630501836503,2048
1630501836507,2048
1630501836511,2048
1630501836515,2048
1630501836519,2047
1630501836523,2045
1630501836527,2043
1630501836531,2040
1630501836535,2038
1630501836539,2036
1630501836543,2037
1630501836547,2038
1630501836551,2040
1630501836555,2043
1630501836559,2044
1630501836563,2043
1630501836567,2043
1630501836571,2042
1630501836575,2042
1630501836579,2042
1630501836583,2043
1630501836587,2044
1630501836591,2044
1630501836595,2043
1630501836599,2041
1630501836603,2041
1630501836607,2040
1630501836611,2041
1630501836615,2044
1630501836619,2045
1630501836623,2046
1630501836627,2045
1630501836631,2043
1630501836635,2042
1630501836639,2042
1630501836643,2043
1630501836647,2044
1630501836651,2044
1630501836655,2045
1630501836659,2045
1630501836663,2045
1630501836667,2045
1630501836671,2045
1630501836675,2045
1630501836679,2043
1630501836683,2041
1630501836687,2038
1630501836691,2036
1630501836695,2034
1630501836699,2032
1630501836703,2031
1630501836707,2031
1630501836711,2030
1630501836715,2029
1630501836719,2028
1630501836723,2030
1630501836727,2031
1630501836731,2033
1630501836735,2034
1630501836739,2033
1630501836743,2031
1630501836747,2028
1630501836751,2026
1630501836755,2025
1630501836759,2024
1630501836763,2025
1630501836767,2025
1630501836771,2028
1630501836775,2036
1630501836779,2050
1630501836783,2073
1630501836787,2096
1630501836791,2111
1630501836795,2110
1630501836799,2091
1630501836803,2060
1630501836807,2027
1630501836811,2001
1630501836815,1987
1630501836819,1982
1630501836823,1984
1630501836827,1987
1630501836831,1993
1630501836835,2001
1630501836839,2011
1630501836843,2020
1630501836847,2026
1630501836851,2028
1630501836855,2028
1630501836859,2027
1630501836863,2028
1630501836867,2030
1630501836871,2034
1630501836875,2037
1630501836879,2038
1630501836883,2039
1630501836887,2039
1630501836891,2038
1630501836895,2038
1630501836899,2038
1630501836903,2040
1630501836907,2041
1630501836911,2044
1630501836915,2046
1630501836919,2048
1630501836923,2048
1630501836927,2048
1630501836931,2047
1630501836935,2045
1630501836939,2043
1630501836943,2042
1630501836947,2042
1630501836951,2044
1630501836955,2046
1630501836959,2047
1630501836963,2048
1630501836967,2048
1630501836971,2049
1630501836975,2051
1630501836979,2052
1630501836983,2053
1630501836987,2053
1630501836991,2054
1630501836995,2055
1630501836999,2056
1630501837003,2058
1630501837007,2059
1630501837011,2060
1630501837015,2060
1630501837019,2060
1630501837023,2059
1630501837027,2058
1630501837031,2056
1630501837035,2055
1630501837039,2053
1630501837043,2051
1630501837047,2050
1630501837051,2048
1630501837055,2047
1630501837059,2044
1630501837063,2041
1630501837067,2039
1630501837071,2039
1630501837075,2040
1630501837079,2040
1630501837083,2039
1630501837087,2036
1630501837091,2033
1630501837095,2030
1630501837099,2029
1630501837103,2029
1630501837107,2029
1630501837111,2029
1630501837115,2028
1630501837119,2027
1630501837123,2028
1630501837127,2030
1630501837131,2032
1630501837135,2034
1630501837139,2034
1630501837143,2033
1630501837147,2031
1630501837151,2029
1630501837155,2029
1630501837159,2030
1630501837163,2032
1630501837167,2032
1630501837171,2032
1630501837175,2030
1630501837179,2029
1630501837183,2031
1630501837187,2033
1630501837191,2036
1630501837195,2037
1630501837199,2037
1630501837203,2035
1630501837207,2033
1630501837211,2034
1630501837215,2036
1630501837219,2038
1630501837223,2041
1630501837227,2040
1630501837231,2038
1630501837235,2036
1630501837239,2035
1630501837243,2036
1630501837247,2039
1630501837251,2043
1630501837255,2046
1630501837259,2048
1630501837263,2047
1630501837267,2044
1630501837271,2040
1630501837275,2036
1630501837279,2033
1630501837283,2032
1630501837287,2032
1630501837291,2032
1630501837295,2032
1630501837299,2031
1630501837303,2028
1630501837307,2025
1630501837311,2024
1630501837315,2025
1630501837319,2028
1630501837323,2031
1630501837327,2033
1630501837331,2032
1630501837335,2028
1630501837339,2025
1630501837343,2021
1630501837347,2020
1630501837351,2021
1630501837355,2024
1630501837359,2029
1630501837363,2039
1630501837367,2055
1630501837371,2077
1630501837375,2100
1630501837379,2114
1630501837383,2110
1630501837387,2088
1630501837391,2054
1630501837395,2021
1630501837399,1995
1630501837403,1984
1630501837407,1984
1630501837411,1991
1630501837415,1998
1630501837419,2005
1630501837423,2012
1630501837427,2017
1630501837431,2021
1630501837435,2024
1630501837439,2024
1630501837443,2025
1630501837447,2025
1630501837451,2026
1630501837455,2027
1630501837459,2028
1630501837463,2030
1630501837467,2033
1630501837471,2037
1630501837475,2041
1630501837479,2045
1630501837483,2048
1630501837487,2048
1630501837491,2048
1630501837495,2048
1630501837499,2048
1630501837503,2045
1630501837507,2043
1630501837511,2041
1630501837515,2041
1630501837519,2043
1630501837523,2045
1630501837527,2047
1630501837531,2048
1630501837535,2048
1630501837539,2048
1630501837543,2050
1630501837547,2051
1630501837551,2053
1630501837555,2053
1630501837559,2053
1630501837563,2055
1630501837567,2057
1630501837571,2060
1630501837575,2064
1630501837579,2066
1630501837583,2067
1630501837587,2067
1630501837591,2067
1630501837595,2066
1630501837599,2067
1630501837603,2067
1630501837607,2068
1630501837611,2067
1630501837615,2065
1630501837619,2062
1630501837623,2060
1630501837627,2058
1630501837631,2058
1630501837635,2059
1630501837639,2059
1630501837643,2059
1630501837647,2058
1630501837651,2056
1630501837655,2055
1630501837659,2052
1630501837663,2048
1630501837667,2044
1630501837671,2040
1630501837675,2038
1630501837679,2038
1630501837683,2039
1630501837687,2039
1630501837691,2037
1630501837695,2034
1630501837699,2031
1630501837703,2032
1630501837707,2034
1630501837711,2039
1630501837715,2044
1630501837719,2047
1630501837723,2048
1630501837727,2049
1630501837731,2049
1630501837735,2049
1630501837739,2050
1630501837743,2050
1630501837747,2050
1630501837751,2050
1630501837755,2050
1630501837759,2049
1630501837763,2048
1630501837767,2048
1630501837771,2048
1630501837775,2049
1630501837779,2052
1630501837783,2054
1630501837787,2055
1630501837791,2055
1630501837795,2054
1630501837799,2055
1630501837803,2057
1630501837807,2060
1630501837811,2063
1630501837815,2065
1630501837819,2067
1630501837823,2069
1630501837827,2070
1630501837831,2072
1630501837835,2072
1630501837839,2070
1630501837843,2068
1630501837847,2066
1630501837851,2064
1630501837855,2063
1630501837859,2062
1630501837863,2061
1630501837867,2061
1630501837871,2060
1630501837875,2060
1630501837879,2059
1630501837883,2059
1630501837887,2060
1630501837891,2061
1630501837895,2063
1630501837899,2064
1630501837903,2063
1630501837907,2062
1630501837911,2062
1630501837915,2062
1630501837919,2063
1630501837923,2062
1630501837927,2059
1630501837931,2056
1630501837935,2053
1630501837939,2056
1630501837943,2068
1630501837947,2089
1630501837951,2120
1630501837955,2150
1630501837959,2168
1630501837963,2165
1630501837967,2139
1630501837971,2099
1630501837975,2057
1630501837979,2026
1630501837983,2010
1630501837987,2008
1630501837991,2014
1630501837995,2022
1630501837999,2030
1630501838003,2038
1630501838007,2045
1630501838011,2051
1630501838015,2055
1630501838019,2057
1630501838023,2060
1630501838027,2061
1630501838031,2062
1630501838035,2062
1630501838039,2062
1630501838043,2061
1630501838047,2061
1630501838051,2061
1630501838055,2061
1630501838059,2062
1630501838063,2063
1630501838067,2064
1630501838071,2066
1630501838075,2066
1630501838079,2067
1630501838083,2067
1630501838087,2068
1630501838091,2068
1630501838095,2068
1630501838099,2067
1630501838103,2066
1630501838107,2064
1630501838111,2064
1630501838115,2066
1630501838119,2069
1630501838123,2072
1630501838127,2075
1630501838131,2078
1630501838135,2080
1630501838139,2081
1630501838143,2082
1630501838147,2081
1630501838151,2080
1630501838155,2079
1630501838159,2078
1630501838163,2079
1630501838167,2080
1630501838171,2081
1630501838175,2082
1630501838179,2083
1630501838183,2082
1630501838187,2082
1630501838191,2082
1630501838195,2082
1630501838199,2081
1630501838203,2081
1630501838207,2080
1630501838211,2079
1630501838215,2079
1630501838219,2078
1630501838223,2075
1630501838227,2069
1630501838231,2064
1630501838235,2061
1630501838239,2059
1630501838243,2059
1630501838247,2059
1630501838251,2058
1630501838255,2056
1630501838259,2056
1630501838263,2056
1630501838267,2056
1630501838271,2056
1630501838275,2056
1630501838279,2055
1630501838283,2055
1630501838287,2054
1630501838291,2055
1630501838295,2055
1630501838299,2054
1630501838303,2054
1630501838307,2054
1630501838311,2054
1630501838315,2056
1630501838319,2057
1630501838323,2058
1630501838327,2059
1630501838331,2058
1630501838335,2056
1630501838339,2055
1630501838343,2055
1630501838347,2056
1630501838351,2057
1630501838355,2059
1630501838359,2059
1630501838363,2060
1630501838367,2060
1630501838371,2061
1630501838375,2063
1630501838379,2063
1630501838383,2063
1630501838387,2062
1630501838391,2061
1630501838395,2060
1630501838399,2061
1630501838403,2064
1630501838407,2067
1630501838411,2070
1630501838415,2071
1630501838419,2070
1630501838423,2068
1630501838427,2064
1630501838431,2061
1630501838435,2059
1630501838439,2058
1630501838443,2059
1630501838447,2059
1630501838451,2058
1630501838455,2057
1630501838459,2056
1630501838463,2055
1630501838467,2055
1630501838471,2054
1630501838475,2054
1630501838479,2054
1630501838483,2054
1630501838487,2053
1630501838491,2052
1630501838495,2052
1630501838499,2051
1630501838503,2051
1630501838507,2050
1630501838511,2049
1630501838515,2049
1630501838519,2052
1630501838523,2063
1630501838527,2084
1630501838531,2114
1630501838535,2143
1630501838539,2161
1630501838543,2160
1630501838547,2137
1630501838551,2100
1630501838555,2062
1630501838559,2036
1630501838563,2022
1630501838567,2021
1630501838571,2025
1630501838575,2031
1630501838579,2035
1630501838583,2039
1630501838587,2042
1630501838591,2045
1630501838595,2047
1630501838599,2048
1630501838603,2050
1630501838607,2052
1630501838611,2054
1630501838615,2055
1630501838619,2056
1630501838623,2056
1630501838627,2057
1630501838631,2058
1630501838635,2060
1630501838639,2060
1630501838643,2061
1630501838647,2061
1630501838651,2062
1630501838655,2063
1630501838659,2064
1630501838663,2065
1630501838667,2066
1630501838671,2066
1630501838675,2066
1630501838679,2066
1630501838683,2066
1630501838687,2067
1630501838691,2069
1630501838695,2070
1630501838699,2071
1630501838703,2071
1630501838707,2071
1630501838711,2072
1630501838715,2073
1630501838719,2074
1630501838723,2076
1630501838727,2077
1630501838731,2079
1630501838735,2080
1630501838739,2081
1630501838743,2081
1630501838747,2082
1630501838751,2082
1630501838755,2083
1630501838759,2082
1630501838763,2081
1630501838767,2080
1630501838771,2079
1630501838775,2077
1630501838779,2075
1630501838783,2075
1630501838787,2074
1630501838791,2073
1630501838795,2073
1630501838799,2072
1630501838803,2070
1630501838807,2069
1630501838811,2067
1630501838815,2065
1630501838819,2064
1630501838823,2062
1630501838827,2060
1630501838831,2058
1630501838835,2056
1630501838839,2055
1630501838843,2054
1630501838847,2054
1630501838851,2053
1630501838855,2052
1630501838859,2050
1630501838863,2048
1630501838867,2048
1630501838871,2048
1630501838875,2049
1630501838879,2050
1630501838883,2051
1630501838887,2052
1630501838891,2052
1630501838895,2053
1630501838899,2054
1630501838903,2054
1630501838907,2055
1630501838911,2055
1630501838915,2055
1630501838919,2054
1630501838923,2054
1630501838927,2053
1630501838931,2053
1630501838935,2053
1630501838939,2053
1630501838943,2054
1630501838947,2054
1630501838951,2054
1630501838955,2054
1630501838959,2053
1630501838963,2053
1630501838967,2053
1630501838971,2054
1630501838975,2055
1630501838979,2056
1630501838983,2057
1630501838987,2058
1630501838991,2060
1630501838995,2061
1630501838999,2062
1630501839003,2061
1630501839007,2059
1630501839011,2058
1630501839015,2057
1630501839019,2056
1630501839023,2055
1630501839027,2053
1630501839031,2051
1630501839035,2049
1630501839039,2048
1630501839043,2047
1630501839047,2046
1630501839051,2046
1630501839055,2046
1630501839059,2045
1630501839063,2045
1630501839067,2044
1630501839071,2044
1630501839075,2044
1630501839079,2045
1630501839083,2046
1630501839087,2046
1630501839091,2046
1630501839095,2045
1630501839099,2044
1630501839103,2044
1630501839107,2047
1630501839111,2056
1630501839115,2074
1630501839119,2100
1630501839123,2128
1630501839127,2147
1630501839131,2147
1630501839135,2126
1630501839139,2091
1630501839143,2053
1630501839147,2024
1630501839151,2008
1630501839155,2005
1630501839159,2010
1630501839163,2017
1630501839167,2023
1630501839171,2028
1630501839175,2032
1630501839179,2035
1630501839183,2037
1630501839187,2038
1630501839191,2039
1630501839195,2041
1630501839199,2043
1630501839203,2044
1630501839207,2044
1630501839211,2045
1630501839215,2045
1630501839219,2046
1630501839223,2046
1630501839227,2047
1630501839231,2048
1630501839235,2049
1630501839239,2051
1630501839243,2053
1630501839247,2054
1630501839251,2054
1630501839255,2053
1630501839259,2053
1630501839263,2052
1630501839267,2052
1630501839271,2052
1630501839275,2053
1630501839279,2054
1630501839283,2055
1630501839287,2056
1630501839291,2057
1630501839295,2057
1630501839299,2058
1630501839303,2058
1630501839307,2059
1630501839311,2060
1630501839315,2061
1630501839319,2062
1630501839323,2064
1630501839327,2065
1630501839331,2065
1630501839335,2066
1630501839339,2066
1630501839343,2066
1630501839347,2066
1630501839351,2066
1630501839355,2066
1630501839359,2066
1630501839363,2066
1630501839367,2065
1630501839371,2064
1630501839375,2063
1630501839379,2061
1630501839383,2059
1630501839387,2056
1630501839391,2054
1630501839395,2053
1630501839399,2051
1630501839403,2050
1630501839407,2049
1630501839411,2048
1630501839415,2047
1630501839419,2045
1630501839423,2044
1630501839427,2042
1630501839431,2040
1630501839435,2039
1630501839439,2037
1630501839443,2037
1630501839447,2037
1630501839451,2038
1630501839455,2038
1630501839459,2038
1630501839463,2038
1630501839467,2037
1630501839471,2037
1630501839475,2037
1630501839479,2037
1630501839483,2038
1630501839487,2039
1630501839491,2039
1630501839495,2039
1630501839499,2038
1630501839503,2036
1630501839507,2035
1630501839511,2034
1630501839515,2034
1630501839519,2035
1630501839523,2035
1630501839527,2035
1630501839531,2035
1630501839535,2035
1630501839539,2035
1630501839543,2036
1630501839547,2036
1630501839551,2036
1630501839555,2035
1630501839559,2034
1630501839563,2034
1630501839567,2035
1630501839571,2037
1630501839575,2038
1630501839579,2040
1630501839583,2041
1630501839587,2042
1630501839591,2043
1630501839595,2043
1630501839599,2043
1630501839603,2042
1630501839607,2041
1630501839611,2040
1630501839615,2040
1630501839619,2039
1630501839623,2037
1630501839627,2035
1630501839631,2033
1630501839635,2032
1630501839639,2031
1630501839643,2031
1630501839647,2031
1630501839651,2030
1630501839655,2030
1630501839659,2030
1630501839663,2030
1630501839667,2030
1630501839671,2030
1630501839675,2031
1630501839679,2031
1630501839683,2031
1630501839687,2031
1630501839691,2030
1630501839695,2029
1630501839699,2028
1630501839703,2029
1630501839707,2034
1630501839711,2046
1630501839715,2065
1630501839719,2092
1630501839723,2116
1630501839727,2126
1630501839731,2118
1630501839735,2091
1630501839739,2054
1630501839743,2022
1630501839747,1999
1630501839751,1990
1630501839755,1991
1630501839759,1996
1630501839763,2003
1630501839767,2008
1630501839771,2013
1630501839775,2018
1630501839779,2021
1630501839783,2023
1630501839787,2024
1630501839791,2026
1630501839795,2028
1630501839799,2030
1630501839803,2031
1630501839807,2033
1630501839811,2033
1630501839815,2033
1630501839819,2033
1630501839823,2033
1630501839827,2034
1630501839831,2035
1630501839835,2036
1630501839839,2037
1630501839843,2038
1630501839847,2038
1630501839851,2039
1630501839855,2039
1630501839859,2039
1630501839863,2039
1630501839867,2039
1630501839871,2040
1630501839875,2040
1630501839879,2041
1630501839883,2042
1630501839887,2043
1630501839891,2043
1630501839895,2044
1630501839899,2045
1630501839903,2046
1630501839907,2048
1630501839911,2048
1630501839915,2050
1630501839919,2051
1630501839923,2053
1630501839927,2053
1630501839931,2054
1630501839935,2055
1630501839939,2054
1630501839943,2054
1630501839947,2053
1630501839951,2052
1630501839955,2052
1630501839959,2051
1630501839963,2051
1630501839967,2051
1630501839971,2051
1630501839975,2050
1630501839979,2048
1630501839983,2048
1630501839987,2046
1630501839991,2043
1630501839995,2042
1630501839999,2041
1630501840003,2042
1630501840007,2042
1630501840011,2042
1630501840015,2041
1630501840019,2039
1630501840023,2037
1630501840027,2035
1630501840031,2033
1630501840035,2031
1630501840039,2029
1630501840043,2029
1630501840047,2030
1630501840051,2031
1630501840055,2032
1630501840059,2034
1630501840063,2035
1630501840067,2035
1630501840071,2035
1630501840075,2035
1630501840079,2034
1630501840083,2033
1630501840087,2033
1630501840091,2032
1630501840095,2032
1630501840099,2032
1630501840103,2032
1630501840107,2032
1630501840111,2032
1630501840115,2030
1630501840119,2029
1630501840123,2028
1630501840127,2028
1630501840131,2030
1630501840135,2033
1630501840139,2035
1630501840143,2035
1630501840147,2033
1630501840151,2031
1630501840155,2030
1630501840159,2030
1630501840163,2032
1630501840167,2034
1630501840171,2037
1630501840175,2039
1630501840179,2041
1630501840183,2043
1630501840187,2043
1630501840191,2043
1630501840195,2043
1630501840199,2043
1630501840203,2043
1630501840207,2044
1630501840211,2046
1630501840215,2047
1630501840219,2048
1630501840223,2047
1630501840227,2044
1630501840231,2041
1630501840235,2038
1630501840239,2035
1630501840243,2033
1630501840247,2033
1630501840251,2034
1630501840255,2036
1630501840259,2037
1630501840263,2038
1630501840267,2036
1630501840271,2035
1630501840275,2033
1630501840279,2033
1630501840283,2034
1630501840287,2036
1630501840291,2037
1630501840295,2037
1630501840299,2036
1630501840303,2034
1630501840307,2032
1630501840311,2030
1630501840315,2030
1630501840319,2033
1630501840323,2040
1630501840327,2054
1630501840331,2078
1630501840335,2105
1630501840339,2126
1630501840343,2130
1630501840347,2113
1630501840351,2081
1630501840355,2044
1630501840359,2015
1630501840363,2000
1630501840367,1997
1630501840371,2001
1630501840375,2006
1630501840379,2011
1630501840383,2014
1630501840387,2019
1630501840391,2023
1630501840395,2026
1630501840399,2028
1630501840403,2030
1630501840407,2032
1630501840411,2036
1630501840415,2039
1630501840419,2042
1630501840423,2044
1630501840427,2045
1630501840431,2045
1630501840435,2044
1630501840439,2044
1630501840443,2044
1630501840447,2044
1630501840451,2045
1630501840455,2047
1630501840459,2047
1630501840463,2048
1630501840467,2048
1630501840471,2047
1630501840475,2047
1630501840479,2048
1630501840483,2049
1630501840487,2051
1630501840491,2053
1630501840495,2054
1630501840499,2054
1630501840503,2054
1630501840507,2053
1630501840511,2053
1630501840515,2054
1630501840519,2055
1630501840523,2056
1630501840527,2059
1630501840531,2062
1630501840535,2065
1630501840539,2068
1630501840543,2068
1630501840547,2067
1630501840551,2066
1630501840555,2065
1630501840559,2065
1630501840563,2066
1630501840567,2066
1630501840571,2066
1630501840575,2064
1630501840579,2061
1630501840583,2059
1630501840587,2057
1630501840591,2056
1630501840595,2055
1630501840599,2054
1630501840603,2054
1630501840607,2053
1630501840611,2052
1630501840615,2051
1630501840619,2048
1630501840623,2046
1630501840627,2042
1630501840631,2039
1630501840635,2038
1630501840639,2037
1630501840643,2037
1630501840647,2036
1630501840651,2035
1630501840655,2034
1630501840659,2033
1630501840663,2033
1630501840667,2033
1630501840671,2032
1630501840675,2031
1630501840679,2030
1630501840683,2030
1630501840687,2031
1630501840691,2032
1630501840695,2033
1630501840699,2032
1630501840703,2030
1630501840707,2028
1630501840711,2027
1630501840715,2027
1630501840719,2028
1630501840723,2030
1630501840727,2030
1630501840731,2029
1630501840735,2028
1630501840739,2028
1630501840743,2028
1630501840747,2029
1630501840751,2029
1630501840755,2029
1630501840759,2028
1630501840763,2028
1630501840767,2027
1630501840771,2028
1630501840775,2029
1630501840779,2029
1630501840783,2028
1630501840787,2028
1630501840791,2027
1630501840795,2026
1630501840799,2026
1630501840803,2027
1630501840807,2028
1630501840811,2029
1630501840815,2031
1630501840819,2033
1630501840823,2035
1630501840827,2035
1630501840831,2035
1630501840835,2034
1630501840839,2033
1630501840843,2033
1630501840847,2033
1630501840851,2033
1630501840855,2033
1630501840859,2031
1630501840863,2029
1630501840867,2027
1630501840871,2025
1630501840875,2024
1630501840879,2023
1630501840883,2021
1630501840887,2020
1630501840891,2019
1630501840895,2019
1630501840899,2021
1630501840903,2023
1630501840907,2025
1630501840911,2025
1630501840915,2024
1630501840919,2022
1630501840923,2020
1630501840927,2018
1630501840931,2019
1630501840935,2023
1630501840939,2034
1630501840943,2052
1630501840947,2078
1630501840951,2102
1630501840955,2115
1630501840959,2109
1630501840963,2085
1630501840967,2049
1630501840971,2017
1630501840975,1994
1630501840979,1984
1630501840983,1985
1630501840987,1990
1630501840991,1996
1630501840995,2001
1630501840999,2006
1630501841003,2011
1630501841007,2015
1630501841011,2017
1630501841015,2018
1630501841019,2019
1630501841023,2020
1630501841027,2022
1630501841031,2023
1630501841035,2025
1630501841039,2028
1630501841043,2030
1630501841047,2033
1630501841051,2035
1630501841055,2036
1630501841059,2036
1630501841063,2035
1630501841067,2035
1630501841071,2034
1630501841075,2033
1630501841079,2033
1630501841083,2033
1630501841087,2033
1630501841091,2033
1630501841095,2033
1630501841099,2034
1630501841103,2035
1630501841107,2037
1630501841111,2039
1630501841115,2041
1630501841119,2043
1630501841123,2045
1630501841127,2046
1630501841131,2047
1630501841135,2048
1630501841139,2048
1630501841143,2048
1630501841147,2047
1630501841151,2045
1630501841155,2045
1630501841159,2046
1630501841163,2048
1630501841167,2051
1630501841171,2053
1630501841175,2053
1630501841179,2053
1630501841183,2053
1630501841187,2053
1630501841191,2053
1630501841195,2052
1630501841199,2051
1630501841203,2049
1630501841207,2048
1630501841211,2047
1630501841215,2045
1630501841219,2044
1630501841223,2043
1630501841227,2041
1630501841231,2039
1630501841235,2037
1630501841239,2035
1630501841243,2033
1630501841247,2032
1630501841251,2033
1630501841255,2034
1630501841259,2034
1630501841263,2034
1630501841267,2032
1630501841271,2031
1630501841275,2029
1630501841279,2029
1630501841283,2029
1630501841287,2028
1630501841291,2027
1630501841295,2025
1630501841299,2024
1630501841303,2024
1630501841307,2026
1630501841311,2030
1630501841315,2032
1630501841319,2033
1630501841323,2034
1630501841327,2033
1630501841331,2033
1630501841335,2034
1630501841339,2033
1630501841343,2032
1630501841347,2030
1630501841351,2028
1630501841355,2025
1630501841359,2024
1630501841363,2025
1630501841367,2026
1630501841371,2027
1630501841375,2027
1630501841379,2027
1630501841383,2027
1630501841387,2027
1630501841391,2027
1630501841395,2028
1630501841399,2028
1630501841403,2029
1630501841407,2029
1630501841411,2030
1630501841415,2030
1630501841419,2029
1630501841423,2028
1630501841427,2028
1630501841431,2029
1630501841435,2033
1630501841439,2036
1630501841443,2040
1630501841447,2042
1630501841451,2042
1630501841455,2040
1630501841459,2037
1630501841463,2034
1630501841467,2031
1630501841471,2029
1630501841475,2027
1630501841479,2025
1630501841483,2023
1630501841487,2022
1630501841491,2022
1630501841495,2022
1630501841499,2023
1630501841503,2023
1630501841507,2023
1630501841511,2022
1630501841515,2023
1630501841519,2024
1630501841523,2026
1630501841527,2027
1630501841531,2027
1630501841535,2026
1630501841539,2024
1630501841543,2022
1630501841547,2022
1630501841551,2026
1630501841555,2037
1630501841559,2054
1630501841563,2079
1630501841567,2102
1630501841571,2113
1630501841575,2104
1630501841579,2077
1630501841583,2042
1630501841587,2008
1630501841591,1986
1630501841595,1978
1630501841599,1981
1630501841603,1989
1630501841607,1998
1630501841611,2006
1630501841615,2012
1630501841619,2015
1630501841623,2016
1630501841627,2017
1630501841631,2018
1630501841635,2021
1630501841639,2024
1630501841643,2027
1630501841647,2029
1630501841651,2030
1630501841655,2032
1630501841659,2033
1630501841663,2034
1630501841667,2034
1630501841671,2034
1630501841675,2033
1630501841679,2033
1630501841683,2035
1630501841687,2037
1630501841691,2038
1630501841695,2040
1630501841699,2041
1630501841703,2041
1630501841707,2040
1630501841711,2038
1630501841715,2038
1630501841719,2039
1630501841723,2041
1630501841727,2043
1630501841731,2043
1630501841735,2043
1630501841739,2041
1630501841743,2041
1630501841747,2042
1630501841751,2044
1630501841755,2046
1630501841759,2048
1630501841763,2050
1630501841767,2051
1630501841771,2051
1630501841775,2051
1630501841779,2050
1630501841783,2049
1630501841787,2049
1630501841791,2050
1630501841795,2052
1630501841799,2054
1630501841803,2054
1630501841807,2054
1630501841811,2053
1630501841815,2053
1630501841819,2054
1630501841823,2054
1630501841827,2053
1630501841831,2051
1630501841835,2048
1630501841839,2046
1630501841843,2045
1630501841847,2044
1630501841851,2043
1630501841855,2042
1630501841859,2040
1630501841863,2038
1630501841867,2037
1630501841871,2036
1630501841875,2035
1630501841879,2034
1630501841883,2034
1630501841887,2034
1630501841891,2035
1630501841895,2035
1630501841899,2035
1630501841903,2034
1630501841907,2032
1630501841911,2031
1630501841915,2031
1630501841919,2032
1630501841923,2035
1630501841927,2036
1630501841931,2038
1630501841935,2037
1630501841939,2037
1630501841943,2035
1630501841947,2034
1630501841951,2033
1630501841955,2033
1630501841959,2032
1630501841963,2032
1630501841967,2032
1630501841971,2033
1630501841975,2034
1630501841979,2034
1630501841983,2034
1630501841987,2033
1630501841991,2032
1630501841995,2031
1630501841999,2030
1630501842003,2031
1630501842007,2032
1630501842011,2033
1630501842015,2034
1630501842019,2034
1630501842023,2033
1630501842027,2032
1630501842031,2032
1630501842035,2034
1630501842039,2037
1630501842043,2039
1630501842047,2040
1630501842051,2041
1630501842055,2042
1630501842059,2043
1630501842063,2045
1630501842067,2045
1630501842071,2045
1630501842075,2044
1630501842079,2042
1630501842083,2041
1630501842087,2040
1630501842091,2038
1630501842095,2036
1630501842099,2034
1630501842103,2032
1630501842107,2031
1630501842111,2031
1630501842115,2031
1630501842119,2030
1630501842123,2030
1630501842127,2031
1630501842131,2031
1630501842135,2033
1630501842139,2034
1630501842143,2034
1630501842147,2035
1630501842151,2034
1630501842155,2033
1630501842159,2032
1630501842163,2031
1630501842167,2031
1630501842171,2032
1630501842175,2037
1630501842179,2048
1630501842183,2066
1630501842187,2090
1630501842191,2111
1630501842195,2119
1630501842199,2107
1630501842203,2080
1630501842207,2045
1630501842211,2015
1630501842215,1996
1630501842219,1991
1630501842223,1995
1630501842227,2002
1630501842231,2009
1630501842235,2015
1630501842239,2020
1630501842243,2024
1630501842247,2026
1630501842251,2028
1630501842255,2029
1630501842259,2030
1630501842263,2033
1630501842267,2035
1630501842271,2038
1630501842275,2039
1630501842279,2041
1630501842283,2043
1630501842287,2044
1630501842291,2045
1630501842295,2044
1630501842299,2043
1630501842303,2043
1630501842307,2043
1630501842311,2045
1630501842315,2047
1630501842319,2048
1630501842323,2048
1630501842327,2048
1630501842331,2048
1630501842335,2049
1630501842339,2051
1630501842343,2053
1630501842347,2054
1630501842351,2054
1630501842355,2053
1630501842359,2052
1630501842363,2053
1630501842367,2055
1630501842371,2058
1630501842375,2061
1630501842379,2063
1630501842383,2065
1630501842387,2065
1630501842391,2066
1630501842395,2065
1630501842399,2065
1630501842403,2066
1630501842407,2066
1630501842411,2067
1630501842415,2067
1630501842419,2066
1630501842423,2066
1630501842427,2065
1630501842431,2065
1630501842435,2065
1630501842439,2066
1630501842443,2066
1630501842447,2065
1630501842451,2064
1630501842455,2062
1630501842459,2060
1630501842463,2059
1630501842467,2057
1630501842471,2056
1630501842475,2053
1630501842479,2050
1630501842483,2048
1630501842487,2048
1630501842491,2047
1630501842495,2047
1630501842499,2046
1630501842503,2045
1630501842507,2045
1630501842511,2044
1630501842515,2044
1630501842519,2044
1630501842523,2043
1630501842527,2043
1630501842531,2043
1630501842535,2044
1630501842539,2045
1630501842543,2045
1630501842547,2045
1630501842551,2044
1630501842555,2043
1630501842559,2042
1630501842563,2043
1630501842567,2044
1630501842571,2046
1630501842575,2047
1630501842579,2047
1630501842583,2046
1630501842587,2045
1630501842591,2043
1630501842595,2043
1630501842599,2044
1630501842603,2044
1630501842607,2045
1630501842611,2044
1630501842615,2042
1630501842619,2040
1630501842623,2038
1630501842627,2037
1630501842631,2036
1630501842635,2035
1630501842639,2035
1630501842643,2036
1630501842647,2037
1630501842651,2039
1630501842655,2042
1630501842659,2043
1630501842663,2044
1630501842667,2045
1630501842671,2046
1630501842675,2048
1630501842679,2048
1630501842683,2049
1630501842687,2048
1630501842691,2048
1630501842695,2047
1630501842699,2045
1630501842703,2044
1630501842707,2041
1630501842711,2039
1630501842715,2036
1630501842719,2035
1630501842723,2034
1630501842727,2034
1630501842731,2034
1630501842735,2036
1630501842739,2037
1630501842743,2039
1630501842747,2039
1630501842751,2038
1630501842755,2036
1630501842759,2035
1630501842763,2035
1630501842767,2034
1630501842771,2033
1630501842775,2032
1630501842779,2030
1630501842783,2029
1630501842787,2029
1630501842791,2032
1630501842795,2040
1630501842799,2053
1630501842803,2074
1630501842807,2099
1630501842811,2115
1630501842815,2116
1630501842819,2098
1630501842823,2064
1630501842827,2029
1630501842831,2001
1630501842835,1987
1630501842839,1985
1630501842843,1992
1630501842847,2000
1630501842851,2007
1630501842855,2012
1630501842859,2016
1630501842863,2020
1630501842867,2023
1630501842871,2025
1630501842875,2027
1630501842879,2030
1630501842883,2033
1630501842887,2036
1630501842891,2037
1630501842895,2037
1630501842899,2037
1630501842903,2037
1630501842907,2038
1630501842911,2039
1630501842915,2041
1630501842919,2042
1630501842923,2043
1630501842927,2044
1630501842931,2043
1630501842935,2043
1630501842939,2043
1630501842943,2044
1630501842947,2045
1630501842951,2046
1630501842955,2048
1630501842959,2048
1630501842963,2049
1630501842967,2049
1630501842971,2050
1630501842975,2051
1630501842979,2052
1630501842983,2053
1630501842987,2054
1630501842991,2054
1630501842995,2054
1630501842999,2054
1630501843003,2054
1630501843007,2055
1630501843011,2056
1630501843015,2058
1630501843019,2060
1630501843023,2061
1630501843027,2061
1630501843031,2061
1630501843035,2060
1630501843039,2059
1630501843043,2059
1630501843047,2059
1630501843051,2059
1630501843055,2059
1630501843059,2057
1630501843063,2056
1630501843067,2054
1630501843071,2054
1630501843075,2054
1630501843079,2054
1630501843083,2054
1630501843087,2053
1630501843091,2050
1630501843095,2048
1630501843099,2046
1630501843103,2043
1630501843107,2041
1630501843111,2040
1630501843115,2039
1630501843119,2039
1630501843123,2038
1630501843127,2038
1630501843131,2037
1630501843135,2037
1630501843139,2037
1630501843143,2039
1630501843147,2039
1630501843151,2040
1630501843155,2039
1630501843159,2038
1630501843163,2038
1630501843167,2039
1630501843171,2039
1630501843175,2040
1630501843179,2040
1630501843183,2039
1630501843187,2038
1630501843191,2037
1630501843195,2036
1630501843199,2036
1630501843203,2036
1630501843207,2036
1630501843211,2036
1630501843215,2035
1630501843219,2035
1630501843223,2036
1630501843227,2036
1630501843231,2036
1630501843235,2036
1630501843239,2036
1630501843243,2037
1630501843247,2037
1630501843251,2038
1630501843255,2038
1630501843259,2038
1630501843263,2037
1630501843267,2036
1630501843271,2035
1630501843275,2035
1630501843279,2036
1630501843283,2038
1630501843287,2040
1630501843291,2042
1630501843295,2045
1630501843299,2047
1630501843303,2048
1630501843307,2048
1630501843311,2046
1630501843315,2043
1630501843319,2040
1630501843323,2039
1630501843327,2038
1630501843331,2038
1630501843335,2038
1630501843339,2037
1630501843343,2036
1630501843347,2035
1630501843351,2033
1630501843355,2032
1630501843359,2031
1630501843363,2031
1630501843367,2032
1630501843371,2033
1630501843375,2033
1630501843379,2033
1630501843383,2033
1630501843387,2033
1630501843391,2033
1630501843395,2033
1630501843399,2032
1630501843403,2031
1630501843407,2030
1630501843411,2033
1630501843415,2041
1630501843419,2056
1630501843423,2078
1630501843427,2099
1630501843431,2111
1630501843435,2107
1630501843439,2085
1630501843443,2052
1630501843447,2021
1630501843451,1999
1630501843455,1990
1630501843459,1991
1630501843463,1997
1630501843467,2004
1630501843471,2010
1630501843475,2016
1630501843479,2021
1630501843483,2025
1630501843487,2028
1630501843491,2029
1630501843495,2030
1630501843499,2030
1630501843503,2031
1630501843507,2032
1630501843511,2034
1630501843515,2037
1630501843519,2040
1630501843523,2042
1630501843527,2043
1630501843531,2043
1630501843535,2042
1630501843539,2041
1630501843543,2041
1630501843547,2041
1630501843551,2042
1630501843555,2043
1630501843559,2044
1630501843563,2045
1630501843567,2045
1630501843571,2046
1630501843575,2046
1630501843579,2046
1630501843583,2047
1630501843587,2046
1630501843591,2046
1630501843595,2047
1630501843599,2048
1630501843603,2050
1630501843607,2052
1630501843611,2054
1630501843615,2055
1630501843619,2056
1630501843623,2056
1630501843627,2055
1630501843631,2055
1630501843635,2055
1630501843639,2055
1630501843643,2055
1630501843647,2055
1630501843651,2055
1630501843655,2055
1630501843659,2055
1630501843663,2054
1630501843667,2054
1630501843671,2054
1630501843675,2054
1630501843679,2054
1630501843683,2055
1630501843687,2056
1630501843691,2056
1630501843695,2055
1630501843699,2052
1630501843703,2049
1630501843707,2046
1630501843711,2044
1630501843715,2043
1630501843719,2041
1630501843723,2040
1630501843727,2038
1630501843731,2037
1630501843735,2036
1630501843739,2036
1630501843743,2035
1630501843747,2035
1630501843751,2035
1630501843755,2035
1630501843759,2035
1630501843763,2035
1630501843767,2036
1630501843771,2036
1630501843775,2036
1630501843779,2037
1630501843783,2037
1630501843787,2038
1630501843791,2038
1630501843795,2039
1630501843799,2038
1630501843803,2037
1630501843807,2037
1630501843811,2036
1630501843815,2037
1630501843819,2037
1630501843823,2037
1630501843827,2035
1630501843831,2033
1630501843835,2031
1630501843839,2031
1630501843843,2032
1630501843847,2035
1630501843851,2037
1630501843855,2038
1630501843859,2038
1630501843863,2037
1630501843867,2036
1630501843871,2036
1630501843875,2036
1630501843879,2036
1630501843883,2037
1630501843887,2037
1630501843891,2037
1630501843895,2037
1630501843899,2038
1630501843903,2039
1630501843907,2040
1630501843911,2040
1630501843915,2041
1630501843919,2043
1630501843923,2045
1630501843927,2046
1630501843931,2047
1630501843935,2047
1630501843939,2045
1630501843943,2044
1630501843947,2042
1630501843951,2039
1630501843955,2036
1630501843959,2034
1630501843963,2032
1630501843967,2031
1630501843971,2031
1630501843975,2031
1630501843979,2031
1630501843983,2032
1630501843987,2033
1630501843991,2034
1630501843995,2036
1630501843999,2037
1630501844003,2038
1630501844007,2038
1630501844011,2037
1630501844015,2035
1630501844019,2033
1630501844023,2031
1630501844027,2030
1630501844031,2030
1630501844035,2034
1630501844039,2043
1630501844043,2058
1630501844047,2079
1630501844051,2099
1630501844055,2109
1630501844059,2102
1630501844063,2080
1630501844067,2049
1630501844071,2020
1630501844075,1999
1630501844079,1990
1630501844083,1991
1630501844087,1997
1630501844091,2004
1630501844095,2011
1630501844099,2018
1630501844103,2023
1630501844107,2026
1630501844111,2028
1630501844115,2029
1630501844119,2030
1630501844123,2032
1630501844127,2035
1630501844131,2037
1630501844135,2038
1630501844139,2040
1630501844143,2041
1630501844147,2043
1630501844151,2045
1630501844155,2047
1630501844159,2048
1630501844163,2048
1630501844167,2048
1630501844171,2048
1630501844175,2048
1630501844179,2048
1630501844183,2049
1630501844187,2049
1630501844191,2049
1630501844195,2049
1630501844199,2049
1630501844203,2050
1630501844207,2051
1630501844211,2054
1630501844215,2056
1630501844219,2057
1630501844223,2058
1630501844227,2058
1630501844231,2058
1630501844235,2058
1630501844239,2058
1630501844243,2059
1630501844247,2061
1630501844251,2063
1630501844255,2065
1630501844259,2066
1630501844263,2067
1630501844267,2066
1630501844271,2066
1630501844275,2066
1630501844279,2067
1630501844283,2069
1630501844287,2070
1630501844291,2070
1630501844295,2069
1630501844299,2068
1630501844303,2067
1630501844307,2066
1630501844311,2065
1630501844315,2064
1630501844319,2063
1630501844323,2061
1630501844327,2060
1630501844331,2057
1630501844335,2055
1630501844339,2052
1630501844343,2049
1630501844347,2048
1630501844351,2047
1630501844355,2045
1630501844359,2044
1630501844363,2042
1630501844367,2041
1630501844371,2042
1630501844375,2044
1630501844379,2046
1630501844383,2048
1630501844387,2048
1630501844391,2046
1630501844395,2044
1630501844399,2042
1630501844403,2041
1630501844407,2042
1630501844411,2043
1630501844415,2043
1630501844419,2044
1630501844423,2045
1630501844427,2046
1630501844431,2046
1630501844435,2046
1630501844439,2045
1630501844443,2044
1630501844447,2042
1630501844451,2041
1630501844455,2041
1630501844459,2040
1630501844463,2041
1630501844467,2041
1630501844471,2042
1630501844475,2042
1630501844479,2042
1630501844483,2042
1630501844487,2042
1630501844491,2043
1630501844495,2043
1630501844499,2044
1630501844503,2044
1630501844507,2045
1630501844511,2045
1630501844515,2045
1630501844519,2044
1630501844523,2043
1630501844527,2043
1630501844531,2044
1630501844535,2047
1630501844539,2050
1630501844543,2053
1630501844547,2055
1630501844551,2055
1630501844555,2054
1630501844559,2052
1630501844563,2050
1630501844567,2048
1630501844571,2047
1630501844575,2046
1630501844579,2045
1630501844583,2044
1630501844587,2043
1630501844591,2042
1630501844595,2041
1630501844599,2040
1630501844603,2039
1630501844607,2040
1630501844611,2040
1630501844615,2040
1630501844619,2041
1630501844623,2042
1630501844627,2043
1630501844631,2043
1630501844635,2042
1630501844639,2040
1630501844643,2038
1630501844647,2037
1630501844651,2039
1630501844655,2043
1630501844659,2051
1630501844663,2068
1630501844667,2089
1630501844671,2110
1630501844675,2121
1630501844679,2114
1630501844683,2089
1630501844687,2053
1630501844691,2019
1630501844695,1995
1630501844699,1985
1630501844703,1987
1630501844707,1994
1630501844711,2003
1630501844715,2010
1630501844719,2016
1630501844723,2022
1630501844727,2027
1630501844731,2029
1630501844735,2031
1630501844739,2033
1630501844743,2036
1630501844747,2038
1630501844751,2041
1630501844755,2043
1630501844759,2044
1630501844763,2044
1630501844767,2045
1630501844771,2046
1630501844775,2046
1630501844779,2047
1630501844783,2047
1630501844787,2046
1630501844791,2045
1630501844795,2045
1630501844799,2045
1630501844803,2047
1630501844807,2048
1630501844811,2049
1630501844815,2050
1630501844819,2049
1630501844823,2048
1630501844827,2048
1630501844831,2048
1630501844835,2050
1630501844839,2052
1630501844843,2054
1630501844847,2055
1630501844851,2055
1630501844855,2055
1630501844859,2056
1630501844863,2058
1630501844867,2060
1630501844871,2061
1630501844875,2062
1630501844879,2061
1630501844883,2061
1630501844887,2061
1630501844891,2062
1630501844895,2063
1630501844899,2063
1630501844903,2062
1630501844907,2061
1630501844911,2059
1630501844915,2058
1630501844919,2058
1630501844923,2058
1630501844927,2059
1630501844931,2060
1630501844935,2059
1630501844939,2057
1630501844943,2054
1630501844947,2050
1630501844951,2047
1630501844955,2045
1630501844959,2043
1630501844963,2042
1630501844967,2040
1630501844971,2039
1630501844975,2038
1630501844979,2037
1630501844983,2035
1630501844987,2033
1630501844991,2031
1630501844995,2029
1630501844999,2029
1630501845003,2030
1630501845007,2033
1630501845011,2035
1630501845015,2036
1630501845019,2035
1630501845023,2035
1630501845027,2034
1630501845031,2034
1630501845035,2034
1630501845039,2034
1630501845043,2034
1630501845047,2034
1630501845051,2034
1630501845055,2033
1630501845059,2031
1630501845063,2029
1630501845067,2029
1630501845071,2030
1630501845075,2031
1630501845079,2034
1630501845083,2035
1630501845087,2035
1630501845091,2034
1630501845095,2033
1630501845099,2032
1630501845103,2031
1630501845107,2032
1630501845111,2033
1630501845115,2034
1630501845119,2034
1630501845123,2034
1630501845127,2034
1630501845131,2034
1630501845135,2035
1630501845139,2036
1630501845143,2037
1630501845147,2038
1630501845151,2040
1630501845155,2042
1630501845159,2043
1630501845163,2044
1630501845167,2044
1630501845171,2043
1630501845175,2042
1630501845179,2040
1630501845183,2039
1630501845187,2037
1630501845191,2036
1630501845195,2036
1630501845199,2035
1630501845203,2035
1630501845207,2034
1630501845211,2033
1630501845215,2033
1630501845219,2032
1630501845223,2031
1630501845227,2031
1630501845231,2032
1630501845235,2033
1630501845239,2033
1630501845243,2033
1630501845247,2032
1630501845251,2031
1630501845255,2031
1630501845259,2030
1630501845263,2030
1630501845267,2031
1630501845271,2035
1630501845275,2043
1630501845279,2058
1630501845283,2080
1630501845287,2101
1630501845291,2113
1630501845295,2106
1630501845299,2083
1630501845303,2049
1630501845307,2017
1630501845311,1995
1630501845315,1987
1630501845319,1989
1630501845323,1998
1630501845327,2009
1630501845331,2018
1630501845335,2025
1630501845339,2028
1630501845343,2030
1630501845347,2030
1630501845351,2031
1630501845355,2032
1630501845359,2034
1630501845363,2037
1630501845367,2039
1630501845371,2041
1630501845375,2042
1630501845379,2043
1630501845383,2044
1630501845387,2046
1630501845391,2047
1630501845395,2048
1630501845399,2048
1630501845403,2048
1630501845407,2048
1630501845411,2049
1630501845415,2050
1630501845419,2051
1630501845423,2052
1630501845427,2052
1630501845431,2053
1630501845435,2054
1630501845439,2054
1630501845443,2055
1630501845447,2055
1630501845451,2056
1630501845455,2057
1630501845459,2058
1630501845463,2060
1630501845467,2062
1630501845471,2063
1630501845475,2065
1630501845479,2066
1630501845483,2067
1630501845487,2069
1630501845491,2070
1630501845495,2070
1630501845499,2071
1630501845503,2071
1630501845507,2071
1630501845511,2071
1630501845515,2072
1630501845519,2072
1630501845523,2072
1630501845527,2073
1630501845531,2073
1630501845535,2074
1630501845539,2074
1630501845543,2073
1630501845547,2072
1630501845551,2070
1630501845555,2069
1630501845559,2067
1630501845563,2066
1630501845567,2065
1630501845571,2064
1630501845575,2063
1630501845579,2061
1630501845583,2059
1630501845587,2058
1630501845591,2057
1630501845595,2058
1630501845599,2059
1630501845603,2059
1630501845607,2060
1630501845611,2060
1630501845615,2059
1630501845619,2059
1630501845623,2059
1630501845627,2059
1630501845631,2059
1630501845635,2059
1630501845639,2059
1630501845643,2060
1630501845647,2060
1630501845651,2062
1630501845655,2064
1630501845659,2066
1630501845663,2067
1630501845667,2068
1630501845671,2068
1630501845675,2067
1630501845679,2066
1630501845683,2066
1630501845687,2067
1630501845691,2068
1630501845695,2068
1630501845699,2067
1630501845703,2066
1630501845707,2065
1630501845711,2065
1630501845715,2066
1630501845719,2069
1630501845723,2072
1630501845727,2074
1630501845731,2075
1630501845735,2075
1630501845739,2075
1630501845743,2076
1630501845747,2078
1630501845751,2081
1630501845755,2082
1630501845759,2083
1630501845763,2085
1630501845767,2087
1630501845771,2089
1630501845775,2090
1630501845779,2090
1630501845783,2089
1630501845787,2087
1630501845791,2085
1630501845795,2084
1630501845799,2083
1630501845803,2084
1630501845807,2084
1630501845811,2085
1630501845815,2085
1630501845819,2084
1630501845823,2082
1630501845827,2080
1630501845831,2080
1630501845835,2081
1630501845839,2082
1630501845843,2084
1630501845847,2085
1630501845851,2086
1630501845855,2086
1630501845859,2084
1630501845863,2083
1630501845867,2082
1630501845871,2081
1630501845875,2081
1630501845879,2082
1630501845883,2086
1630501845887,2094
1630501845891,2111
1630501845895,2133
1630501845899,2154
1630501845903,2164
1630501845907,2157
1630501845911,2133
1630501845915,2099
1630501845919,2067
1630501845923,2047
1630501845927,2040
1630501845931,2043
1630501845935,2050
1630501845939,2059
1630501845943,2067
1630501845947,2073
1630501845951,2078
1630501845955,2082
1630501845959,2084
1630501845963,2086
1630501845967,2089
1630501845971,2092
1630501845975,2095
1630501845979,2096
1630501845983,2097
1630501845987,2097
1630501845991,2098
1630501845995,2099
1630501845999,2101
1630501846003,2103
1630501846007,2104
1630501846011,2105
1630501846015,2106
1630501846019,2106
1630501846023,2107
1630501846027,2108
1630501846031,2108
1630501846035,2108
1630501846039,2109
1630501846043,2110
1630501846047,2112
1630501846051,2113
1630501846055,2115
1630501846059,2116
1630501846063,2117
1630501846067,2118
1630501846071,2120
1630501846075,2122
1630501846079,2125
1630501846083,2128
1630501846087,2130
1630501846091,2131
1630501846095,2133
1630501846099,2134
1630501846103,2134
1630501846107,2134
1630501846111,2134
1630501846115,2134
1630501846119,2134
1630501846123,2135
1630501846127,2136
1630501846131,2137
1630501846135,2136
1630501846139,2135
1630501846143,2133
1630501846147,2132
1630501846151,2132
1630501846155,2134
1630501846159,2136
1630501846163,2137
1630501846167,2136
1630501846171,2135
1630501846175,2132
1630501846179,2129
1630501846183,2127
1630501846187,2124
1630501846191,2123
1630501846195,2121
1630501846199,2119
1630501846203,2118
1630501846207,2117
1630501846211,2116
1630501846215,2116
1630501846219,2115
1630501846223,2114
1630501846227,2114
1630501846231,2113
1630501846235,2112
1630501846239,2112
1630501846243,2114
1630501846247,2116
1630501846251,2118
1630501846255,2120
1630501846259,2121
1630501846263,2121
1630501846267,2119
1630501846271,2118
1630501846275,2116
1630501846279,2115
1630501846283,2115
1630501846287,2115
1630501846291,2115
1630501846295,2115
1630501846299,2115
1630501846303,2115
1630501846307,2114
1630501846311,2113
1630501846315,2112
1630501846319,2112
1630501846323,2113
1630501846327,2114
1630501846331,2115
1630501846335,2115
1630501846339,2114
1630501846343,2114
1630501846347,2113
1630501846351,2114
1630501846355,2115
1630501846359,2116
1630501846363,2117
1630501846367,2118
1630501846371,2119
1630501846375,2119
1630501846379,2119
1630501846383,2118
1630501846387,2118
1630501846391,2118
1630501846395,2117
1630501846399,2115
1630501846403,2113
1630501846407,2111
1630501846411,2109
1630501846415,2108
1630501846419,2107
1630501846423,2106
1630501846427,2105
1630501846431,2104
1630501846435,2104
1630501846439,2104
1630501846443,2104
1630501846447,2105
1630501846451,2106
1630501846455,2106
1630501846459,2106
1630501846463,2105
1630501846467,2103
1630501846471,2100
1630501846475,2098
1630501846479,2098
1630501846483,2099
1630501846487,2103
1630501846491,2111
1630501846495,2126
1630501846499,2146
1630501846503,2166
1630501846507,2177
1630501846511,2170
1630501846515,2146
1630501846519,2111
1630501846523,2077
1630501846527,2054
1630501846531,2047
1630501846535,2049
1630501846539,2056
1630501846543,2064
1630501846547,2071
1630501846551,2076
1630501846555,2080
1630501846559,2082
1630501846563,2084
1630501846567,2087
1630501846571,2091
1630501846575,2096
1630501846579,2100
1630501846583,2102
1630501846587,2101
1630501846591,2100
1630501846595,2099
1630501846599,2099
1630501846603,2100
1630501846607,2101
1630501846611,2102
1630501846615,2102
1630501846619,2102
1630501846623,2102
1630501846627,2102
1630501846631,2102
1630501846635,2103
1630501846639,2103
1630501846643,2104
1630501846647,2103
1630501846651,2103
1630501846655,2103
1630501846659,2104
1630501846663,2105
1630501846667,2106
1630501846671,2107
1630501846675,2107
1630501846679,2107
1630501846683,2107
1630501846687,2110
1630501846691,2112
1630501846695,2115
1630501846699,2115
1630501846703,2115
1630501846707,2113
1630501846711,2112
1630501846715,2112
1630501846719,2112
1630501846723,2113
1630501846727,2113
1630501846731,2113
1630501846735,2112
1630501846739,2111
1630501846743,2110
1630501846747,2109
1630501846751,2108
1630501846755,2107
1630501846759,2106
1630501846763,2105
1630501846767,2104
1630501846771,2101
1630501846775,2098
1630501846779,2096
1630501846783,2093
1630501846787,2090
1630501846791,2087
1630501846795,2084
1630501846799,2082
