timestamp,ecg_waveform
1629810615827,2049
1629810615831,2050
1629810615835,2052
1629810615839,2054
1629810615843,2055
1629810615847,2056
1629810615851,2056
1629810615855,2055
1629810615859,2053
1629810615863,2053
1629810615867,2053
1629810615871,2053
1629810615875,2053
1629810615879,2052
1629810615883,2051
1629810615887,2049
1629810615891,2048
1629810615895,2048
1629810615899,2047
1629810615903,2048
1629810615907,2048
1629810615911,2048
1629810615915,2048
1629810615919,2048
1629810615923,2047
1629810615927,2047
1629810615931,2047
1629810615935,2047
1629810615939,2047
1629810615943,2047
1629810615947,2047
1629810615951,2048
1629810615955,2048
1629810615959,2048
1629810615963,2048
1629810615967,2048
1629810615971,2048
1629810615975,2046
1629810615979,2046
1629810615983,2049
1629810615987,2057
1629810615991,2068
1629810615995,2079
1629810615999,2089
1629810616003,2102
1629810616007,2116
1629810616011,2127
1629810616015,2127
1629810616019,2110
1629810616023,2078
1629810616027,2044
1629810616031,2019
1629810616035,2012
1629810616039,2020
1629810616043,2036
1629810616047,2048
1629810616051,2052
1629810616055,2051
1629810616059,2049
1629810616063,2049
1629810616067,2049
1629810616071,2050
1629810616075,2051
1629810616079,2051
1629810616083,2051
1629810616087,2050
1629810616091,2050
1629810616095,2050
1629810616099,2050
1629810616103,2051
1629810616107,2052
1629810616111,2053
1629810616115,2053
1629810616119,2053
1629810616123,2053
1629810616127,2053
1629810616131,2054
1629810616135,2055
1629810616139,2056
1629810616143,2057
1629810616147,2057
1629810616151,2058
1629810616155,2059
1629810616159,2060
1629810616163,2061
1629810616167,2061
1629810616171,2061
1629810616175,2062
1629810616179,2063
1629810616183,2064
1629810616187,2066
1629810616191,2068
1629810616195,2069
1629810616199,2070
1629810616203,2071
1629810616207,2071
1629810616211,2073
1629810616215,2074
1629810616219,2076
1629810616223,2078
1629810616227,2080
1629810616231,2083
1629810616235,2084
1629810616239,2086
1629810616243,2088
1629810616247,2090
1629810616251,2092
1629810616255,2093
1629810616259,2094
1629810616263,2096
1629810616267,2098
1629810616271,2100
1629810616275,2101
1629810616279,2101
1629810616283,2100
1629810616287,2097
1629810616291,2095
1629810616295,2093
1629810616299,2090
1629810616303,2087
1629810616307,2083
1629810616311,2078
1629810616315,2073
1629810616319,2069
1629810616323,2065
1629810616327,2062
1629810616331,2058
1629810616335,2056
1629810616339,2053
1629810616343,2051
1629810616347,2050
1629810616351,2048
1629810616355,2048
1629810616359,2047
1629810616363,2046
1629810616367,2046
1629810616371,2046
1629810616375,2045
1629810616379,2045
1629810616383,2045
1629810616387,2045
1629810616391,2045
1629810616395,2045
1629810616399,2046
1629810616403,2046
1629810616407,2045
1629810616411,2045
1629810616415,2045
1629810616419,2046
1629810616423,2047
1629810616427,2047
1629810616431,2047
1629810616435,2047
1629810616439,2047
1629810616443,2047
1629810616447,2047
1629810616451,2047
1629810616455,2047
1629810616459,2047
1629810616463,2048
1629810616467,2048
1629810616471,2049
1629810616475,2049
1629810616479,2049
1629810616483,2048
1629810616487,2048
1629810616491,2048
1629810616495,2048
1629810616499,2048
1629810616503,2049
1629810616507,2049
1629810616511,2050
1629810616515,2049
1629810616519,2049
1629810616523,2049
1629810616527,2049
1629810616531,2049
1629810616535,2049
1629810616539,2049
1629810616543,2049
1629810616547,2049
1629810616551,2049
1629810616555,2049
1629810616559,2049
1629810616563,2049
1629810616567,2048
1629810616571,2048
1629810616575,2048
1629810616579,2048
1629810616583,2049
1629810616587,2049
1629810616591,2049
1629810616595,2050
1629810616599,2050
1629810616603,2050
1629810616607,2049
1629810616611,2049
1629810616615,2049
1629810616619,2049
1629810616623,2049
1629810616627,2050
1629810616631,2051
1629810616635,2051
1629810616639,2050
1629810616643,2049
1629810616647,2049
1629810616651,2049
1629810616655,2049
1629810616659,2049
1629810616663,2050
1629810616667,2050
1629810616671,2051
1629810616675,2051
1629810616679,2050
1629810616683,2050
1629810616687,2049
1629810616691,2049
1629810616695,2049
1629810616699,2049
1629810616703,2050
1629810616707,2050
1629810616711,2050
1629810616715,2050
1629810616719,2050
1629810616723,2050
1629810616727,2050
1629810616731,2050
1629810616735,2050
1629810616739,2050
1629810616743,2051
1629810616747,2051
1629810616751,2051
1629810616755,2051
1629810616759,2051
1629810616763,2051
1629810616767,2051
1629810616771,2050
1629810616775,2051
1629810616779,2051
1629810616783,2051
1629810616787,2052
1629810616791,2052
1629810616795,2051
1629810616799,2051
1629810616803,2052
1629810616807,2054
1629810616811,2057
1629810616815,2058
1629810616819,2059
1629810616823,2058
1629810616827,2057
1629810616831,2056
1629810616835,2056
1629810616839,2056
1629810616843,2056
1629810616847,2055
1629810616851,2054
1629810616855,2053
1629810616859,2052
1629810616863,2051
1629810616867,2051
1629810616871,2051
1629810616875,2051
1629810616879,2051
1629810616883,2050
1629810616887,2050
1629810616891,2050
1629810616895,2050
1629810616899,2050
1629810616903,2050
1629810616907,2050
1629810616911,2051
1629810616915,2051
1629810616919,2051
1629810616923,2051
1629810616927,2051
1629810616931,2052
1629810616935,2052
1629810616939,2052
1629810616943,2051
1629810616947,2050
1629810616951,2051
1629810616955,2056
1629810616959,2066
1629810616963,2076
1629810616967,2086
1629810616971,2097
1629810616975,2110
1629810616979,2124
1629810616983,2132
1629810616987,2126
1629810616991,2103
1629810616995,2069
1629810616999,2037
1629810617003,2019
1629810617007,2018
1629810617011,2031
1629810617015,2047
1629810617019,2057
1629810617023,2059
1629810617027,2057
1629810617031,2057
1629810617035,2057
1629810617039,2057
1629810617043,2057
1629810617047,2057
1629810617051,2057
1629810617055,2057
1629810617059,2058
1629810617063,2059
1629810617067,2060
1629810617071,2060
1629810617075,2060
1629810617079,2060
1629810617083,2060
1629810617087,2060
1629810617091,2060
1629810617095,2060
1629810617099,2061
1629810617103,2062
1629810617107,2063
1629810617111,2063
1629810617115,2064
1629810617119,2064
1629810617123,2064
1629810617127,2064
1629810617131,2064
1629810617135,2065
1629810617139,2066
1629810617143,2067
1629810617147,2069
1629810617151,2070
1629810617155,2071
1629810617159,2071
1629810617163,2072
1629810617167,2073
1629810617171,2074
1629810617175,2075
1629810617179,2076
1629810617183,2078
1629810617187,2080
1629810617191,2082
1629810617195,2084
1629810617199,2086
1629810617203,2088
1629810617207,2090
1629810617211,2091
1629810617215,2093
1629810617219,2095
1629810617223,2097
1629810617227,2099
1629810617231,2101
1629810617235,2102
1629810617239,2102
1629810617243,2103
1629810617247,2103
1629810617251,2102
1629810617255,2101
1629810617259,2100
1629810617263,2098
1629810617267,2095
1629810617271,2091
1629810617275,2087
1629810617279,2083
1629810617283,2079
1629810617287,2074
1629810617291,2070
1629810617295,2066
1629810617299,2063
1629810617303,2060
1629810617307,2058
1629810617311,2057
1629810617315,2055
1629810617319,2054
1629810617323,2053
1629810617327,2051
1629810617331,2049
1629810617335,2048
1629810617339,2048
1629810617343,2048
1629810617347,2048
1629810617351,2048
1629810617355,2048
1629810617359,2048
1629810617363,2048
1629810617367,2048
1629810617371,2048
1629810617375,2048
1629810617379,2048
1629810617383,2048
1629810617387,2048
1629810617391,2048
1629810617395,2049
1629810617399,2049
1629810617403,2049
1629810617407,2048
1629810617411,2048
1629810617415,2048
1629810617419,2048
1629810617423,2048
1629810617427,2048
1629810617431,2049
1629810617435,2049
1629810617439,2049
1629810617443,2048
1629810617447,2048
1629810617451,2048
1629810617455,2048
1629810617459,2048
1629810617463,2048
1629810617467,2048
1629810617471,2048
1629810617475,2048
1629810617479,2048
1629810617483,2048
1629810617487,2048
1629810617491,2048
1629810617495,2048
1629810617499,2047
1629810617503,2047
1629810617507,2048
1629810617511,2048
1629810617515,2048
1629810617519,2048
1629810617523,2047
1629810617527,2046
1629810617531,2046
1629810617535,2046
1629810617539,2046
1629810617543,2047
1629810617547,2047
1629810617551,2047
1629810617555,2047
1629810617559,2047
1629810617563,2047
1629810617567,2046
1629810617571,2046
1629810617575,2046
1629810617579,2046
1629810617583,2046
1629810617587,2046
1629810617591,2046
1629810617595,2047
1629810617599,2047
1629810617603,2047
1629810617607,2046
1629810617611,2046
1629810617615,2046
1629810617619,2046
1629810617623,2046
1629810617627,2046
1629810617631,2046
1629810617635,2047
1629810617639,2047
1629810617643,2047
1629810617647,2046
1629810617651,2046
1629810617655,2046
1629810617659,2046
1629810617663,2046
1629810617667,2046
1629810617671,2047
1629810617675,2047
1629810617679,2047
1629810617683,2046
1629810617687,2046
1629810617691,2046
1629810617695,2046
1629810617699,2046
1629810617703,2046
1629810617707,2046
1629810617711,2047
1629810617715,2047
1629810617719,2046
1629810617723,2046
1629810617727,2046
1629810617731,2046
1629810617735,2046
1629810617739,2046
1629810617743,2047
1629810617747,2047
1629810617751,2047
1629810617755,2046
1629810617759,2046
1629810617763,2046
1629810617767,2045
1629810617771,2046
1629810617775,2046
1629810617779,2046
1629810617783,2047
1629810617787,2047
1629810617791,2047
1629810617795,2047
1629810617799,2046
1629810617803,2046
1629810617807,2046
1629810617811,2046
1629810617815,2046
1629810617819,2046
1629810617823,2046
1629810617827,2047
1629810617831,2048
1629810617835,2050
1629810617839,2052
1629810617843,2052
1629810617847,2052
1629810617851,2050
1629810617855,2048
1629810617859,2048
1629810617863,2048
1629810617867,2048
1629810617871,2049
1629810617875,2048
1629810617879,2047
1629810617883,2046
1629810617887,2044
1629810617891,2043
1629810617895,2043
1629810617899,2043
1629810617903,2043
1629810617907,2044
1629810617911,2044
1629810617915,2044
1629810617919,2043
1629810617923,2043
1629810617927,2043
1629810617931,2042
1629810617935,2043
1629810617939,2043
1629810617943,2043
1629810617947,2043
1629810617951,2043
1629810617955,2044
1629810617959,2044
1629810617963,2044
1629810617967,2043
1629810617971,2042
1629810617975,2043
1629810617979,2048
1629810617983,2056
1629810617987,2068
1629810617991,2078
1629810617995,2090
1629810617999,2104
1629810618003,2117
1629810618007,2122
1629810618011,2113
1629810618015,2088
1629810618019,2053
1629810618023,2024
1629810618027,2009
1629810618031,2011
1629810618035,2025
1629810618039,2040
1629810618043,2048
1629810618047,2048
1629810618051,2047
1629810618055,2046
1629810618059,2045
1629810618063,2045
1629810618067,2046
1629810618071,2048
1629810618075,2048
1629810618079,2048
1629810618083,2048
1629810618087,2048
1629810618091,2048
1629810618095,2048
1629810618099,2049
1629810618103,2049
1629810618107,2050
1629810618111,2051
1629810618115,2051
1629810618119,2051
1629810618123,2051
1629810618127,2051
1629810618131,2051
1629810618135,2052
1629810618139,2052
1629810618143,2053
1629810618147,2054
1629810618151,2055
1629810618155,2056
1629810618159,2057
1629810618163,2057
1629810618167,2058
1629810618171,2059
1629810618175,2059
1629810618179,2060
1629810618183,2061
1629810618187,2063
1629810618191,2064
1629810618195,2065
1629810618199,2066
1629810618203,2067
1629810618207,2068
1629810618211,2070
1629810618215,2071
1629810618219,2073
1629810618223,2076
1629810618227,2078
1629810618231,2080
1629810618235,2082
1629810618239,2084
1629810618243,2085
1629810618247,2086
1629810618251,2088
1629810618255,2089
1629810618259,2090
1629810618263,2091
1629810618267,2092
1629810618271,2093
1629810618275,2093
1629810618279,2093
1629810618283,2092
1629810618287,2090
1629810618291,2087
1629810618295,2083
1629810618299,2079
1629810618303,2075
1629810618307,2071
1629810618311,2068
1629810618315,2064
1629810618319,2060
1629810618323,2057
1629810618327,2053
1629810618331,2049
1629810618335,2048
1629810618339,2046
1629810618343,2045
1629810618347,2044
1629810618351,2043
1629810618355,2042
1629810618359,2041
1629810618363,2040
1629810618367,2039
1629810618371,2039
1629810618375,2039
1629810618379,2039
1629810618383,2039
1629810618387,2039
1629810618391,2040
1629810618395,2040
1629810618399,2040
1629810618403,2040
1629810618407,2040
1629810618411,2040
1629810618415,2040
1629810618419,2039
1629810618423,2039
1629810618427,2039
1629810618431,2040
1629810618435,2040
1629810618439,2041
1629810618443,2041
1629810618447,2041
1629810618451,2042
1629810618455,2041
1629810618459,2041
1629810618463,2042
1629810618467,2042
1629810618471,2042
1629810618475,2042
1629810618479,2042
1629810618483,2042
1629810618487,2041
1629810618491,2041
1629810618495,2041
1629810618499,2042
1629810618503,2043
1629810618507,2044
1629810618511,2044
1629810618515,2044
1629810618519,2042
1629810618523,2041
1629810618527,2041
1629810618531,2040
1629810618535,2041
1629810618539,2041
1629810618543,2042
1629810618547,2042
1629810618551,2042
1629810618555,2042
1629810618559,2042
1629810618563,2042
1629810618567,2041
1629810618571,2041
1629810618575,2041
1629810618579,2041
1629810618583,2042
1629810618587,2042
1629810618591,2042
1629810618595,2042
1629810618599,2041
1629810618603,2041
1629810618607,2040
1629810618611,2040
1629810618615,2040
1629810618619,2041
1629810618623,2041
1629810618627,2042
1629810618631,2043
1629810618635,2042
1629810618639,2042
1629810618643,2041
1629810618647,2040
1629810618651,2040
1629810618655,2040
1629810618659,2041
1629810618663,2042
1629810618667,2042
1629810618671,2043
1629810618675,2042
1629810618679,2042
1629810618683,2042
1629810618687,2042
1629810618691,2042
1629810618695,2042
1629810618699,2043
1629810618703,2043
1629810618707,2044
1629810618711,2044
1629810618715,2043
1629810618719,2043
1629810618723,2043
1629810618727,2044
1629810618731,2044
1629810618735,2044
1629810618739,2044
1629810618743,2045
1629810618747,2045
1629810618751,2046
1629810618755,2046
1629810618759,2045
1629810618763,2045
1629810618767,2045
1629810618771,2045
1629810618775,2045
1629810618779,2045
1629810618783,2045
1629810618787,2044
1629810618791,2045
1629810618795,2047
1629810618799,2048
1629810618803,2050
1629810618807,2051
1629810618811,2051
1629810618815,2050
1629810618819,2049
1629810618823,2048
1629810618827,2048
1629810618831,2048
1629810618835,2047
1629810618839,2046
1629810618843,2046
1629810618847,2045
1629810618851,2043
1629810618855,2042
1629810618859,2041
1629810618863,2042
1629810618867,2042
1629810618871,2042
1629810618875,2042
1629810618879,2042
1629810618883,2041
1629810618887,2041
1629810618891,2041
1629810618895,2041
1629810618899,2041
1629810618903,2042
1629810618907,2043
1629810618911,2043
1629810618915,2043
1629810618919,2044
1629810618923,2044
1629810618927,2043
1629810618931,2041
1629810618935,2039
1629810618939,2040
1629810618943,2045
1629810618947,2054
1629810618951,2068
1629810618955,2081
1629810618959,2095
1629810618963,2111
1629810618967,2126
1629810618971,2134
1629810618975,2127
1629810618979,2101
1629810618983,2063
1629810618987,2027
1629810618991,2005
1629810618995,2003
1629810618999,2016
1629810619003,2032
1629810619007,2043
1629810619011,2045
1629810619015,2044
1629810619019,2043
1629810619023,2042
1629810619027,2042
1629810619031,2043
1629810619035,2043
1629810619039,2043
1629810619043,2043
1629810619047,2043
1629810619051,2044
1629810619055,2044
1629810619059,2044
1629810619063,2045
1629810619067,2046
1629810619071,2046
1629810619075,2046
1629810619079,2046
1629810619083,2046
1629810619087,2046
1629810619091,2047
1629810619095,2047
1629810619099,2048
1629810619103,2048
1629810619107,2049
1629810619111,2050
1629810619115,2050
1629810619119,2050
1629810619123,2051
1629810619127,2051
1629810619131,2051
1629810619135,2052
1629810619139,2054
1629810619143,2055
1629810619147,2057
1629810619151,2058
1629810619155,2058
1629810619159,2058
1629810619163,2059
1629810619167,2060
1629810619171,2061
1629810619175,2063
1629810619179,2065
1629810619183,2068
1629810619187,2070
1629810619191,2073
1629810619195,2075
1629810619199,2077
1629810619203,2079
1629810619207,2080
1629810619211,2081
1629810619215,2083
1629810619219,2085
1629810619223,2087
1629810619227,2088
1629810619231,2089
1629810619235,2089
1629810619239,2088
1629810619243,2087
1629810619247,2085
1629810619251,2082
1629810619255,2079
1629810619259,2076
1629810619263,2072
1629810619267,2067
1629810619271,2063
1629810619275,2058
1629810619279,2053
1629810619283,2049
1629810619287,2046
1629810619291,2043
1629810619295,2041
1629810619299,2039
1629810619303,2037
1629810619307,2035
1629810619311,2034
1629810619315,2033
1629810619319,2032
1629810619323,2032
1629810619327,2031
1629810619331,2030
1629810619335,2029
1629810619339,2029
1629810619343,2029
1629810619347,2029
1629810619351,2030
1629810619355,2030
1629810619359,2030
1629810619363,2030
1629810619367,2029
1629810619371,2029
1629810619375,2029
1629810619379,2030
1629810619383,2030
1629810619387,2031
1629810619391,2031
1629810619395,2031
1629810619399,2031
1629810619403,2031
1629810619407,2031
1629810619411,2032
1629810619415,2032
1629810619419,2031
1629810619423,2032
1629810619427,2032
1629810619431,2032
1629810619435,2032
1629810619439,2032
1629810619443,2032
1629810619447,2032
1629810619451,2031
1629810619455,2032
1629810619459,2032
1629810619463,2032
1629810619467,2033
1629810619471,2033
1629810619475,2033
1629810619479,2033
1629810619483,2032
1629810619487,2031
1629810619491,2031
1629810619495,2031
1629810619499,2031
1629810619503,2031
1629810619507,2032
1629810619511,2033
1629810619515,2033
1629810619519,2033
1629810619523,2032
1629810619527,2031
1629810619531,2031
1629810619535,2031
1629810619539,2031
1629810619543,2031
1629810619547,2032
1629810619551,2031
1629810619555,2031
1629810619559,2031
1629810619563,2031
1629810619567,2031
1629810619571,2031
1629810619575,2031
1629810619579,2031
1629810619583,2031
1629810619587,2030
1629810619591,2031
1629810619595,2032
1629810619599,2032
1629810619603,2033
1629810619607,2032
1629810619611,2032
1629810619615,2031
1629810619619,2031
1629810619623,2031
1629810619627,2031
1629810619631,2032
1629810619635,2032
1629810619639,2032
1629810619643,2033
1629810619647,2033
1629810619651,2033
1629810619655,2033
1629810619659,2032
1629810619663,2032
1629810619667,2033
1629810619671,2035
1629810619675,2038
1629810619679,2040
1629810619683,2041
1629810619687,2041
1629810619691,2040
1629810619695,2038
1629810619699,2036
1629810619703,2036
1629810619707,2037
1629810619711,2038
1629810619715,2038
1629810619719,2037
1629810619723,2035
1629810619727,2033
1629810619731,2032
1629810619735,2031
1629810619739,2031
1629810619743,2032
1629810619747,2032
1629810619751,2032
1629810619755,2031
1629810619759,2031
1629810619763,2030
1629810619767,2031
1629810619771,2031
1629810619775,2031
1629810619779,2032
1629810619783,2033
1629810619787,2033
1629810619791,2034
1629810619795,2035
1629810619799,2036
1629810619803,2034
1629810619807,2032
1629810619811,2030
1629810619815,2031
1629810619819,2039
1629810619823,2051
1629810619827,2066
1629810619831,2079
1629810619835,2095
1629810619839,2112
1629810619843,2126
1629810619847,2132
1629810619851,2121
1629810619855,2091
1629810619859,2049
1629810619863,2014
1629810619867,1995
1629810619871,1997
1629810619875,2012
1629810619879,2029
1629810619883,2040
1629810619887,2040
1629810619891,2039
1629810619895,2038
1629810619899,2038
1629810619903,2039
1629810619907,2040
1629810619911,2041
1629810619915,2041
1629810619919,2041
1629810619923,2042
1629810619927,2042
1629810619931,2042
1629810619935,2043
1629810619939,2044
1629810619943,2045
1629810619947,2045
1629810619951,2046
1629810619955,2047
1629810619959,2047
1629810619963,2047
1629810619967,2047
1629810619971,2047
1629810619975,2047
1629810619979,2047
1629810619983,2048
1629810619987,2048
1629810619991,2050
1629810619995,2051
1629810619999,2052
1629810620003,2053
1629810620007,2054
1629810620011,2054
1629810620015,2055
1629810620019,2056
1629810620023,2057
1629810620027,2059
1629810620031,2061
1629810620035,2063
1629810620039,2064
1629810620043,2065
1629810620047,2066
1629810620051,2068
1629810620055,2070
1629810620059,2073
1629810620063,2076
1629810620067,2079
1629810620071,2081
1629810620075,2083
1629810620079,2085
1629810620083,2087
1629810620087,2088
1629810620091,2090
1629810620095,2091
1629810620099,2093
1629810620103,2095
1629810620107,2096
1629810620111,2096
1629810620115,2095
1629810620119,2093
1629810620123,2090
1629810620127,2086
1629810620131,2081
1629810620135,2077
1629810620139,2072
1629810620143,2067
1629810620147,2062
1629810620151,2057
1629810620155,2053
1629810620159,2049
1629810620163,2047
1629810620167,2044
1629810620171,2041
1629810620175,2039
1629810620179,2038
1629810620183,2037
1629810620187,2036
1629810620191,2035
1629810620195,2034
1629810620199,2033
1629810620203,2032
1629810620207,2031
1629810620211,2031
1629810620215,2032
1629810620219,2033
1629810620223,2034
1629810620227,2034
1629810620231,2034
1629810620235,2033
1629810620239,2033
1629810620243,2033
1629810620247,2032
1629810620251,2032
1629810620255,2032
1629810620259,2033
1629810620263,2033
1629810620267,2034
1629810620271,2034
1629810620275,2035
1629810620279,2036
1629810620283,2036
1629810620287,2036
1629810620291,2036
1629810620295,2036
1629810620299,2036
1629810620303,2036
1629810620307,2036
1629810620311,2036
1629810620315,2037
1629810620319,2037
1629810620323,2038
1629810620327,2038
1629810620331,2038
1629810620335,2038
1629810620339,2038
1629810620343,2038
1629810620347,2038
1629810620351,2037
1629810620355,2038
1629810620359,2038
1629810620363,2038
1629810620367,2038
1629810620371,2038
1629810620375,2037
1629810620379,2037
1629810620383,2038
1629810620387,2039
1629810620391,2039
1629810620395,2040
1629810620399,2039
1629810620403,2039
1629810620407,2039
1629810620411,2039
1629810620415,2039
1629810620419,2039
1629810620423,2039
1629810620427,2040
1629810620431,2040
1629810620435,2039
1629810620439,2039
1629810620443,2039
1629810620447,2038
1629810620451,2039
1629810620455,2040
1629810620459,2040
1629810620463,2041
1629810620467,2041
1629810620471,2041
1629810620475,2041
1629810620479,2041
1629810620483,2041
1629810620487,2041
1629810620491,2041
1629810620495,2040
1629810620499,2041
1629810620503,2041
1629810620507,2042
1629810620511,2043
1629810620515,2043
1629810620519,2043
1629810620523,2043
1629810620527,2043
1629810620531,2044
1629810620535,2044
1629810620539,2045
1629810620543,2044
1629810620547,2044
1629810620551,2044
1629810620555,2045
1629810620559,2047
1629810620563,2048
1629810620567,2050
1629810620571,2050
1629810620575,2049
1629810620579,2048
1629810620583,2048
1629810620587,2048
1629810620591,2048
1629810620595,2048
1629810620599,2048
1629810620603,2048
1629810620607,2046
1629810620611,2045
1629810620615,2044
1629810620619,2043
1629810620623,2043
1629810620627,2043
1629810620631,2044
1629810620635,2044
1629810620639,2044
1629810620643,2044
1629810620647,2043
1629810620651,2043
1629810620655,2044
1629810620659,2045
1629810620663,2046
1629810620667,2046
1629810620671,2046
1629810620675,2047
1629810620679,2047
1629810620683,2047
1629810620687,2046
1629810620691,2045
1629810620695,2044
1629810620699,2044
1629810620703,2048
1629810620707,2059
1629810620711,2072
1629810620715,2083
1629810620719,2095
1629810620723,2111
1629810620727,2128
1629810620731,2141
1629810620735,2139
1629810620739,2117
1629810620743,2079
1629810620747,2040
1629810620751,2014
1629810620755,2009
1629810620759,2021
1629810620763,2038
1629810620767,2050
1629810620771,2054
1629810620775,2052
1629810620779,2051
1629810620783,2051
1629810620787,2051
1629810620791,2051
1629810620795,2051
1629810620799,2051
1629810620803,2052
1629810620807,2052
1629810620811,2053
1629810620815,2053
1629810620819,2054
1629810620823,2054
1629810620827,2055
1629810620831,2055
1629810620835,2055
1629810620839,2055
1629810620843,2056
1629810620847,2057
1629810620851,2058
1629810620855,2059
1629810620859,2059
1629810620863,2060
1629810620867,2060
1629810620871,2061
1629810620875,2061
1629810620879,2062
1629810620883,2063
1629810620887,2064
1629810620891,2065
1629810620895,2066
1629810620899,2067
1629810620903,2068
1629810620907,2069
1629810620911,2071
1629810620915,2072
1629810620919,2074
1629810620923,2075
1629810620927,2076
1629810620931,2078
1629810620935,2079
1629810620939,2081
1629810620943,2084
1629810620947,2086
1629810620951,2089
1629810620955,2091
1629810620959,2093
1629810620963,2095
1629810620967,2096
1629810620971,2098
1629810620975,2100
1629810620979,2101
1629810620983,2103
1629810620987,2105
1629810620991,2106
1629810620995,2107
1629810620999,2106
1629810621003,2104
1629810621007,2101
1629810621011,2098
1629810621015,2094
1629810621019,2090
1629810621023,2085
1629810621027,2081
1629810621031,2076
1629810621035,2071
1629810621039,2066
1629810621043,2062
1629810621047,2059
1629810621051,2056
1629810621055,2054
1629810621059,2051
1629810621063,2050
1629810621067,2049
1629810621071,2048
1629810621075,2048
1629810621079,2047
1629810621083,2046
1629810621087,2045
1629810621091,2045
1629810621095,2045
1629810621099,2045
1629810621103,2045
1629810621107,2046
1629810621111,2046
1629810621115,2046
1629810621119,2046
1629810621123,2045
1629810621127,2044
1629810621131,2044
1629810621135,2044
1629810621139,2045
1629810621143,2046
1629810621147,2046
1629810621151,2047
1629810621155,2047
1629810621159,2047
1629810621163,2047
1629810621167,2047
1629810621171,2047
1629810621175,2047
1629810621179,2048
1629810621183,2048
1629810621187,2048
1629810621191,2048
1629810621195,2048
1629810621199,2048
1629810621203,2048
1629810621207,2048
1629810621211,2048
1629810621215,2048
1629810621219,2048
1629810621223,2048
1629810621227,2049
1629810621231,2049
1629810621235,2049
1629810621239,2049
1629810621243,2048
1629810621247,2048
1629810621251,2048
1629810621255,2048
1629810621259,2048
1629810621263,2048
1629810621267,2048
1629810621271,2049
1629810621275,2049
1629810621279,2049
1629810621283,2049
1629810621287,2048
1629810621291,2048
1629810621295,2048
1629810621299,2048
1629810621303,2048
1629810621307,2048
1629810621311,2048
1629810621315,2048
1629810621319,2049
1629810621323,2049
1629810621327,2048
1629810621331,2048
1629810621335,2048
1629810621339,2048
1629810621343,2048
1629810621347,2048
1629810621351,2049
1629810621355,2049
1629810621359,2049
1629810621363,2049
1629810621367,2048
1629810621371,2048
1629810621375,2048
1629810621379,2048
1629810621383,2049
1629810621387,2049
1629810621391,2049
1629810621395,2049
1629810621399,2049
1629810621403,2050
1629810621407,2050
1629810621411,2050
1629810621415,2050
1629810621419,2050
1629810621423,2050
1629810621427,2050
1629810621431,2051
1629810621435,2051
1629810621439,2050
1629810621443,2050
1629810621447,2050
1629810621451,2050
1629810621455,2050
1629810621459,2051
1629810621463,2051
1629810621467,2051
1629810621471,2051
1629810621475,2051
1629810621479,2051
1629810621483,2052
1629810621487,2051
1629810621491,2051
1629810621495,2051
1629810621499,2051
1629810621503,2051
1629810621507,2052
1629810621511,2052
1629810621515,2053
1629810621519,2052
1629810621523,2052
1629810621527,2051
1629810621531,2051
1629810621535,2053
1629810621539,2055
1629810621543,2058
1629810621547,2059
1629810621551,2059
1629810621555,2058
1629810621559,2056
1629810621563,2055
1629810621567,2054
1629810621571,2055
1629810621575,2055
1629810621579,2054
1629810621583,2054
1629810621587,2053
1629810621591,2053
1629810621595,2052
1629810621599,2051
1629810621603,2050
1629810621607,2049
1629810621611,2049
1629810621615,2049
1629810621619,2049
1629810621623,2050
1629810621627,2050
1629810621631,2050
1629810621635,2050
1629810621639,2050
1629810621643,2050
1629810621647,2050
1629810621651,2050
1629810621655,2050
1629810621659,2051
1629810621663,2051
1629810621667,2052
1629810621671,2051
1629810621675,2050
1629810621679,2050
1629810621683,2053
1629810621687,2061
1629810621691,2072
1629810621695,2082
1629810621699,2091
1629810621703,2105
1629810621707,2121
1629810621711,2135
1629810621715,2137
1629810621719,2121
1629810621723,2088
1629810621727,2048
1629810621731,2021
1629810621735,2012
1629810621739,2021
1629810621743,2039
1629810621747,2052
1629810621751,2058
1629810621755,2056
1629810621759,2054
1629810621763,2053
1629810621767,2052
1629810621771,2053
1629810621775,2053
1629810621779,2054
1629810621783,2055
1629810621787,2056
1629810621791,2056
1629810621795,2057
1629810621799,2057
1629810621803,2057
1629810621807,2056
1629810621811,2056
1629810621815,2057
1629810621819,2057
1629810621823,2058
1629810621827,2059
1629810621831,2059
1629810621835,2060
1629810621839,2060
1629810621843,2060
1629810621847,2060
1629810621851,2061
1629810621855,2061
1629810621859,2062
1629810621863,2063
1629810621867,2064
1629810621871,2065
1629810621875,2066
1629810621879,2067
1629810621883,2068
1629810621887,2069
1629810621891,2070
1629810621895,2071
1629810621899,2072
1629810621903,2074
1629810621907,2075
1629810621911,2077
1629810621915,2079
1629810621919,2080
1629810621923,2082
1629810621927,2084
1629810621931,2085
1629810621935,2087
1629810621939,2089
1629810621943,2092
1629810621947,2094
1629810621951,2096
1629810621955,2098
1629810621959,2100
1629810621963,2101
1629810621967,2101
1629810621971,2102
1629810621975,2103
1629810621979,2103
1629810621983,2102
1629810621987,2101
1629810621991,2099
1629810621995,2096
1629810621999,2091
1629810622003,2087
1629810622007,2082
1629810622011,2077
1629810622015,2073
1629810622019,2068
1629810622023,2065
1629810622027,2061
1629810622031,2058
1629810622035,2055
1629810622039,2052
1629810622043,2050
1629810622047,2048
1629810622051,2048
1629810622055,2046
1629810622059,2046
1629810622063,2045
1629810622067,2045
1629810622071,2045
1629810622075,2045
1629810622079,2044
1629810622083,2044
1629810622087,2043
1629810622091,2043
1629810622095,2043
1629810622099,2044
1629810622103,2044
1629810622107,2044
1629810622111,2044
1629810622115,2044
1629810622119,2044
1629810622123,2044
1629810622127,2043
1629810622131,2044
1629810622135,2044
1629810622139,2045
1629810622143,2045
1629810622147,2046
1629810622151,2046
1629810622155,2046
1629810622159,2046
1629810622163,2045
1629810622167,2045
1629810622171,2045
1629810622175,2045
1629810622179,2045
1629810622183,2045
1629810622187,2045
1629810622191,2046
1629810622195,2046
1629810622199,2047
1629810622203,2047
1629810622207,2046
1629810622211,2046
1629810622215,2046
1629810622219,2046
1629810622223,2047
1629810622227,2047
1629810622231,2047
1629810622235,2047
1629810622239,2046
1629810622243,2046
1629810622247,2046
1629810622251,2046
1629810622255,2046
1629810622259,2046
1629810622263,2046
1629810622267,2046
1629810622271,2046
1629810622275,2046
1629810622279,2046
1629810622283,2046
1629810622287,2045
1629810622291,2045
1629810622295,2045
1629810622299,2045
1629810622303,2045
1629810622307,2045
1629810622311,2045
1629810622315,2045
1629810622319,2045
1629810622323,2045
1629810622327,2045
1629810622331,2045
1629810622335,2045
1629810622339,2046
1629810622343,2046
1629810622347,2046
1629810622351,2046
1629810622355,2046
1629810622359,2046
1629810622363,2046
1629810622367,2045
1629810622371,2046
1629810622375,2046
1629810622379,2046
1629810622383,2046
1629810622387,2047
1629810622391,2047
1629810622395,2047
1629810622399,2047
1629810622403,2047
1629810622407,2046
1629810622411,2046
1629810622415,2046
1629810622419,2047
1629810622423,2047
1629810622427,2048
1629810622431,2048
1629810622435,2048
1629810622439,2048
1629810622443,2048
1629810622447,2047
1629810622451,2047
1629810622455,2047
1629810622459,2047
1629810622463,2048
1629810622467,2048
1629810622471,2048
1629810622475,2048
1629810622479,2048
1629810622483,2048
1629810622487,2048
1629810622491,2048
1629810622495,2048
1629810622499,2048
1629810622503,2048
1629810622507,2048
1629810622511,2049
1629810622515,2049
1629810622519,2048
1629810622523,2048
1629810622527,2048
1629810622531,2048
1629810622535,2048
1629810622539,2048
1629810622543,2048
1629810622547,2049
1629810622551,2049
1629810622555,2049
1629810622559,2049
1629810622563,2049
1629810622567,2049
1629810622571,2049
1629810622575,2049
1629810622579,2049
1629810622583,2049
1629810622587,2051
1629810622591,2053
1629810622595,2056
1629810622599,2057
1629810622603,2057
1629810622607,2056
1629810622611,2054
1629810622615,2053
1629810622619,2053
1629810622623,2054
1629810622627,2055
1629810622631,2054
1629810622635,2054
1629810622639,2052
1629810622643,2051
1629810622647,2050
1629810622651,2049
1629810622655,2049
1629810622659,2048
1629810622663,2049
1629810622667,2049
1629810622671,2049
1629810622675,2049
1629810622679,2049
1629810622683,2049
1629810622687,2049
1629810622691,2049
1629810622695,2049
1629810622699,2049
1629810622703,2049
1629810622707,2050
1629810622711,2050
1629810622715,2051
1629810622719,2051
1629810622723,2050
1629810622727,2049
1629810622731,2048
1629810622735,2050
1629810622739,2056
1629810622743,2067
1629810622747,2077
1629810622751,2086
1629810622755,2097
1629810622759,2111
1629810622763,2124
1629810622767,2130
1629810622771,2121
1629810622775,2095
1629810622779,2060
1629810622783,2031
1629810622787,2016
1629810622791,2020
1629810622795,2035
1629810622799,2049
1629810622803,2057
1629810622807,2057
1629810622811,2054
1629810622815,2053
1629810622819,2053
1629810622823,2054
1629810622827,2054
1629810622831,2055
1629810622835,2055
1629810622839,2055
1629810622843,2056
1629810622847,2056
1629810622851,2056
1629810622855,2056
1629810622859,2056
1629810622863,2057
1629810622867,2057
1629810622871,2058
1629810622875,2058
1629810622879,2058
1629810622883,2058
1629810622887,2059
1629810622891,2059
1629810622895,2059
1629810622899,2060
1629810622903,2061
1629810622907,2061
1629810622911,2062
1629810622915,2063
1629810622919,2064
1629810622923,2065
1629810622927,2065
1629810622931,2065
1629810622935,2066
1629810622939,2067
1629810622943,2069
1629810622947,2070
1629810622951,2072
1629810622955,2074
1629810622959,2075
1629810622963,2076
1629810622967,2077
1629810622971,2079
1629810622975,2081
1629810622979,2082
1629810622983,2085
1629810622987,2087
1629810622991,2089
1629810622995,2091
1629810622999,2093
1629810623003,2095
1629810623007,2096
1629810623011,2097
1629810623015,2098
1629810623019,2099
1629810623023,2101
1629810623027,2102
1629810623031,2103
1629810623035,2103
1629810623039,2102
1629810623043,2100
1629810623047,2097
1629810623051,2094
1629810623055,2090
1629810623059,2086
1629810623063,2082
1629810623067,2078
1629810623071,2074
1629810623075,2070
1629810623079,2066
1629810623083,2063
1629810623087,2059
1629810623091,2056
1629810623095,2054
1629810623099,2052
1629810623103,2051
1629810623107,2050
1629810623111,2050
1629810623115,2048
1629810623119,2048
1629810623123,2047
1629810623127,2046
1629810623131,2046
1629810623135,2046
1629810623139,2047
1629810623143,2047
1629810623147,2047
1629810623151,2047
1629810623155,2047
1629810623159,2047
1629810623163,2047
1629810623167,2046
1629810623171,2046
1629810623175,2046
1629810623179,2046
1629810623183,2047
1629810623187,2047
1629810623191,2047
1629810623195,2047
1629810623199,2047
1629810623203,2047
1629810623207,2047
1629810623211,2047
1629810623215,2047
1629810623219,2047
1629810623223,2048
1629810623227,2048
1629810623231,2048
1629810623235,2048
1629810623239,2047
1629810623243,2047
1629810623247,2046
1629810623251,2047
1629810623255,2047
1629810623259,2047
1629810623263,2047
1629810623267,2047
1629810623271,2048
1629810623275,2048
1629810623279,2047
1629810623283,2047
1629810623287,2046
1629810623291,2046
1629810623295,2046
1629810623299,2046
1629810623303,2047
1629810623307,2047
1629810623311,2047
1629810623315,2047
1629810623319,2046
1629810623323,2046
1629810623327,2046
1629810623331,2045
1629810623335,2045
1629810623339,2046
1629810623343,2046
1629810623347,2047
1629810623351,2047
1629810623355,2047
1629810623359,2046
1629810623363,2046
1629810623367,2046
1629810623371,2046
1629810623375,2046
1629810623379,2046
1629810623383,2046
1629810623387,2047
1629810623391,2047
1629810623395,2047
1629810623399,2047
1629810623403,2047
1629810623407,2047
1629810623411,2046
1629810623415,2046
1629810623419,2046
1629810623423,2047
1629810623427,2047
1629810623431,2047
1629810623435,2047
1629810623439,2047
1629810623443,2047
1629810623447,2047
1629810623451,2047
1629810623455,2047
1629810623459,2046
1629810623463,2046
1629810623467,2047
1629810623471,2047
1629810623475,2048
1629810623479,2048
1629810623483,2048
1629810623487,2047
1629810623491,2047
1629810623495,2046
1629810623499,2046
1629810623503,2047
1629810623507,2048
1629810623511,2048
1629810623515,2048
1629810623519,2048
1629810623523,2048
1629810623527,2047
1629810623531,2047
1629810623535,2047
1629810623539,2048
1629810623543,2048
1629810623547,2048
1629810623551,2048
1629810623555,2048
1629810623559,2048
1629810623563,2048
1629810623567,2048
1629810623571,2048
1629810623575,2048
1629810623579,2048
1629810623583,2048
1629810623587,2048
1629810623591,2048
1629810623595,2048
1629810623599,2048
1629810623603,2048
1629810623607,2048
1629810623611,2048
1629810623615,2048
1629810623619,2048
1629810623623,2048
1629810623627,2048
1629810623631,2048
1629810623635,2048
1629810623639,2048
1629810623643,2049
1629810623647,2050
1629810623651,2052
1629810623655,2054
1629810623659,2054
1629810623663,2054
1629810623667,2053
1629810623671,2052
1629810623675,2052
1629810623679,2051
1629810623683,2051
1629810623687,2050
1629810623691,2050
1629810623695,2049
1629810623699,2048
1629810623703,2048
1629810623707,2047
1629810623711,2047
1629810623715,2047
1629810623719,2047
1629810623723,2047
1629810623727,2046
1629810623731,2046
1629810623735,2046
1629810623739,2046
1629810623743,2046
1629810623747,2047
1629810623751,2047
1629810623755,2047
1629810623759,2047
1629810623763,2047
1629810623767,2047
1629810623771,2047
1629810623775,2047
1629810623779,2047
1629810623783,2046
1629810623787,2046
1629810623791,2047
1629810623795,2052
1629810623799,2061
1629810623803,2072
1629810623807,2081
1629810623811,2093
1629810623815,2108
1629810623819,2121
1629810623823,2127
1629810623827,2118
1629810623831,2092
1629810623835,2057
1629810623839,2027
1629810623843,2011
1629810623847,2014
1629810623851,2028
1629810623855,2044
1629810623859,2052
1629810623863,2052
1629810623867,2050
1629810623871,2050
1629810623875,2050
1629810623879,2050
1629810623883,2050
1629810623887,2050
1629810623891,2050
1629810623895,2050
1629810623899,2050
1629810623903,2051
1629810623907,2052
1629810623911,2053
1629810623915,2053
1629810623919,2053
1629810623923,2053
1629810623927,2053
1629810623931,2053
1629810623935,2053
1629810623939,2054
1629810623943,2055
1629810623947,2056
1629810623951,2056
1629810623955,2057
1629810623959,2058
1629810623963,2058
1629810623967,2058
1629810623971,2059
1629810623975,2060
1629810623979,2061
1629810623983,2062
1629810623987,2063
1629810623991,2064
1629810623995,2064
1629810623999,2065
1629810624003,2066
1629810624007,2067
1629810624011,2068
1629810624015,2069
1629810624019,2071
1629810624023,2073
1629810624027,2074
1629810624031,2077
1629810624035,2079
1629810624039,2081
1629810624043,2083
1629810624047,2084
1629810624051,2085
1629810624055,2087
1629810624059,2088
1629810624063,2091
1629810624067,2093
1629810624071,2095
1629810624075,2096
1629810624079,2097
1629810624083,2097
1629810624087,2098
1629810624091,2098
1629810624095,2097
1629810624099,2096
1629810624103,2094
1629810624107,2091
1629810624111,2087
1629810624115,2083
1629810624119,2078
1629810624123,2073
1629810624127,2068
1629810624131,2064
1629810624135,2060
1629810624139,2057
1629810624143,2055
1629810624147,2052
1629810624151,2050
1629810624155,2048
1629810624159,2047
1629810624163,2045
1629810624167,2043
1629810624171,2043
1629810624175,2042
1629810624179,2042
1629810624183,2042
1629810624187,2042
1629810624191,2042
1629810624195,2042
1629810624199,2042
1629810624203,2042
1629810624207,2041
1629810624211,2041
1629810624215,2040
1629810624219,2040
1629810624223,2041
1629810624227,2041
1629810624231,2041
1629810624235,2041
1629810624239,2041
1629810624243,2041
1629810624247,2040
1629810624251,2040
1629810624255,2040
1629810624259,2041
1629810624263,2041
1629810624267,2042
1629810624271,2042
1629810624275,2042
1629810624279,2042
1629810624283,2042
1629810624287,2042
1629810624291,2042
1629810624295,2042
1629810624299,2042
1629810624303,2043
1629810624307,2043
1629810624311,2044
1629810624315,2044
1629810624319,2044
1629810624323,2044
1629810624327,2043
1629810624331,2042
1629810624335,2042
1629810624339,2042
1629810624343,2042
1629810624347,2043
1629810624351,2043
1629810624355,2043
1629810624359,2043
1629810624363,2043
1629810624367,2042
1629810624371,2042
1629810624375,2042
1629810624379,2042
1629810624383,2042
1629810624387,2042
1629810624391,2043
1629810624395,2043
1629810624399,2043
1629810624403,2043
1629810624407,2042
1629810624411,2042
1629810624415,2042
1629810624419,2042
1629810624423,2042
1629810624427,2042
1629810624431,2043
1629810624435,2043
1629810624439,2043
1629810624443,2043
1629810624447,2042
1629810624451,2042
1629810624455,2042
1629810624459,2042
1629810624463,2042
1629810624467,2042
1629810624471,2042
1629810624475,2042
1629810624479,2043
1629810624483,2043
1629810624487,2042
1629810624491,2042
1629810624495,2042
1629810624499,2042
1629810624503,2043
1629810624507,2043
1629810624511,2043
1629810624515,2043
1629810624519,2043
1629810624523,2043
1629810624527,2043
1629810624531,2043
1629810624535,2044
1629810624539,2044
1629810624543,2044
1629810624547,2044
1629810624551,2044
1629810624555,2044
1629810624559,2045
1629810624563,2045
1629810624567,2044
1629810624571,2044
1629810624575,2044
1629810624579,2043
1629810624583,2044
1629810624587,2044
1629810624591,2045
1629810624595,2045
1629810624599,2045
1629810624603,2046
1629810624607,2046
1629810624611,2046
1629810624615,2046
1629810624619,2046
1629810624623,2046
1629810624627,2046
1629810624631,2047
1629810624635,2046
1629810624639,2046
1629810624643,2045
1629810624647,2045
1629810624651,2045
1629810624655,2046
1629810624659,2048
1629810624663,2050
1629810624667,2053
1629810624671,2054
1629810624675,2054
1629810624679,2052
1629810624683,2051
1629810624687,2050
1629810624691,2049
1629810624695,2049
1629810624699,2049
1629810624703,2049
1629810624707,2049
1629810624711,2048
1629810624715,2048
1629810624719,2047
1629810624723,2046
1629810624727,2045
1629810624731,2044
1629810624735,2044
1629810624739,2044
1629810624743,2045
1629810624747,2045
1629810624751,2046
1629810624755,2046
1629810624759,2046
1629810624763,2046
1629810624767,2046
1629810624771,2046
1629810624775,2046
1629810624779,2046
1629810624783,2046
1629810624787,2047
1629810624791,2047
1629810624795,2046
1629810624799,2045
1629810624803,2045
1629810624807,2048
1629810624811,2058
1629810624815,2070
1629810624819,2082
1629810624823,2095
1629810624827,2111
1629810624831,2127
1629810624835,2138
1629810624839,2134
1629810624843,2111
1629810624847,2074
1629810624851,2037
1629810624855,2013
1629810624859,2008
1629810624863,2019
1629810624867,2036
1629810624871,2048
1629810624875,2052
1629810624879,2051
1629810624883,2051
1629810624887,2050
1629810624891,2050
1629810624895,2050
1629810624899,2050
1629810624903,2051
1629810624907,2051
1629810624911,2051
1629810624915,2052
1629810624919,2052
1629810624923,2053
1629810624927,2053
1629810624931,2054
1629810624935,2054
1629810624939,2055
1629810624943,2056
1629810624947,2056
1629810624951,2056
1629810624955,2056
1629810624959,2056
1629810624963,2056
1629810624967,2057
1629810624971,2057
1629810624975,2058
1629810624979,2059
1629810624983,2060
1629810624987,2060
1629810624991,2061
1629810624995,2062
1629810624999,2063
1629810625003,2064
1629810625007,2064
1629810625011,2065
1629810625015,2065
1629810625019,2066
1629810625023,2068
1629810625027,2070
1629810625031,2072
1629810625035,2074
1629810625039,2075
1629810625043,2077
1629810625047,2078
1629810625051,2079
1629810625055,2081
1629810625059,2082
1629810625063,2085
1629810625067,2088
1629810625071,2091
1629810625075,2093
1629810625079,2094
1629810625083,2095
1629810625087,2096
1629810625091,2097
1629810625095,2098
1629810625099,2099
1629810625103,2099
1629810625107,2099
1629810625111,2098
1629810625115,2096
1629810625119,2093
1629810625123,2089
1629810625127,2084
1629810625131,2080
1629810625135,2075
1629810625139,2071
1629810625143,2067
1629810625147,2063
1629810625151,2060
1629810625155,2057
1629810625159,2054
1629810625163,2051
1629810625167,2049
1629810625171,2048
1629810625175,2047
1629810625179,2045
1629810625183,2045
1629810625187,2044
1629810625191,2044
1629810625195,2044
1629810625199,2043
1629810625203,2043
1629810625207,2042
1629810625211,2042
1629810625215,2042
1629810625219,2042
1629810625223,2043
1629810625227,2043
1629810625231,2043
1629810625235,2043
1629810625239,2043
1629810625243,2043
1629810625247,2043
1629810625251,2042
1629810625255,2042
1629810625259,2043
1629810625263,2043
1629810625267,2044
1629810625271,2045
1629810625275,2045
1629810625279,2045
1629810625283,2045
1629810625287,2044
1629810625291,2044
1629810625295,2044
1629810625299,2045
1629810625303,2045
1629810625307,2045
1629810625311,2046
1629810625315,2046
1629810625319,2047
1629810625323,2047
1629810625327,2047
1629810625331,2046
1629810625335,2046
1629810625339,2046
1629810625343,2046
1629810625347,2046
1629810625351,2046
1629810625355,2046
1629810625359,2046
1629810625363,2046
1629810625367,2046
1629810625371,2046
1629810625375,2046
1629810625379,2046
1629810625383,2046
1629810625387,2046
1629810625391,2046
1629810625395,2046
1629810625399,2046
1629810625403,2046
1629810625407,2045
1629810625411,2046
1629810625415,2046
1629810625419,2046
1629810625423,2046
1629810625427,2046
1629810625431,2047
1629810625435,2046
1629810625439,2046
1629810625443,2046
1629810625447,2046
1629810625451,2046
1629810625455,2046
1629810625459,2046
1629810625463,2047
1629810625467,2047
1629810625471,2048
1629810625475,2048
1629810625479,2047
1629810625483,2047
1629810625487,2046
1629810625491,2046
1629810625495,2046
1629810625499,2047
1629810625503,2048
1629810625507,2048
1629810625511,2048
1629810625515,2048
1629810625519,2048
1629810625523,2048
1629810625527,2047
1629810625531,2047
1629810625535,2047
1629810625539,2048
1629810625543,2048
1629810625547,2048
1629810625551,2048
1629810625555,2048
1629810625559,2048
1629810625563,2048
1629810625567,2048
1629810625571,2048
1629810625575,2048
1629810625579,2048
1629810625583,2048
1629810625587,2048
1629810625591,2049
1629810625595,2050
1629810625599,2050
1629810625603,2050
1629810625607,2049
1629810625611,2048
1629810625615,2048
1629810625619,2049
1629810625623,2051
1629810625627,2054
1629810625631,2056
1629810625635,2057
1629810625639,2056
1629810625643,2055
1629810625647,2053
1629810625651,2052
1629810625655,2052
1629810625659,2052
1629810625663,2053
1629810625667,2052
1629810625671,2052
1629810625675,2051
1629810625679,2050
1629810625683,2048
1629810625687,2048
1629810625691,2048
1629810625695,2048
1629810625699,2048
1629810625703,2048
1629810625707,2048
1629810625711,2048
1629810625715,2048
1629810625719,2048
1629810625723,2048
1629810625727,2048
1629810625731,2048
1629810625735,2048
1629810625739,2048
1629810625743,2049
1629810625747,2049
1629810625751,2050
1629810625755,2050
1629810625759,2048
1629810625763,2048
1629810625767,2048
1629810625771,2054
1629810625775,2064
1629810625779,2077
1629810625783,2088
1629810625787,2101
1629810625791,2117
1629810625795,2131
1629810625799,2138
1629810625803,2129
1629810625807,2102
1629810625811,2064
1629810625815,2031
1629810625819,2013
1629810625823,2015
1629810625827,2030
1629810625831,2046
1629810625835,2056
1629810625839,2057
1629810625843,2055
1629810625847,2053
1629810625851,2053
1629810625855,2053
1629810625859,2053
1629810625863,2054
1629810625867,2055
1629810625871,2055
1629810625875,2056
1629810625879,2056
1629810625883,2056
1629810625887,2056
1629810625891,2057
1629810625895,2057
1629810625899,2057
1629810625903,2057
1629810625907,2058
1629810625911,2058
1629810625915,2059
1629810625919,2059
1629810625923,2060
1629810625927,2060
1629810625931,2061
1629810625935,2061
1629810625939,2062
1629810625943,2063
1629810625947,2064
1629810625951,2065
1629810625955,2066
1629810625959,2067
1629810625963,2067
1629810625967,2067
1629810625971,2068
1629810625975,2069
1629810625979,2070
1629810625983,2072
1629810625987,2073
1629810625991,2075
1629810625995,2076
1629810625999,2078
1629810626003,2079
1629810626007,2081
1629810626011,2083
1629810626015,2086
1629810626019,2088
1629810626023,2090
1629810626027,2092
1629810626031,2094
1629810626035,2096
1629810626039,2097
1629810626043,2099
1629810626047,2100
1629810626051,2101
1629810626055,2102
1629810626059,2103
1629810626063,2104
1629810626067,2104
1629810626071,2103
1629810626075,2101
1629810626079,2098
1629810626083,2095
1629810626087,2091
1629810626091,2086
1629810626095,2082
1629810626099,2078
1629810626103,2074
1629810626107,2070
1629810626111,2067
1629810626115,2063
1629810626119,2060
1629810626123,2056
1629810626127,2054
1629810626131,2052
1629810626135,2050
1629810626139,2050
1629810626143,2049
1629810626147,2049
1629810626151,2048
1629810626155,2048
1629810626159,2048
1629810626163,2048
1629810626167,2047
1629810626171,2047
1629810626175,2047
1629810626179,2047
1629810626183,2048
1629810626187,2048
1629810626191,2048
1629810626195,2048
1629810626199,2048
1629810626203,2048
1629810626207,2048
1629810626211,2048
1629810626215,2048
1629810626219,2048
1629810626223,2048
1629810626227,2049
1629810626231,2049
1629810626235,2049
1629810626239,2049
1629810626243,2049
1629810626247,2049
1629810626251,2049
1629810626255,2049
1629810626259,2050
1629810626263,2050
1629810626267,2050
1629810626271,2051
1629810626275,2051
1629810626279,2051
1629810626283,2051
1629810626287,2050
1629810626291,2050
1629810626295,2051
1629810626299,2051
1629810626303,2051
1629810626307,2051
1629810626311,2051
1629810626315,2051
1629810626319,2051
1629810626323,2051
1629810626327,2050
1629810626331,2050
1629810626335,2050
1629810626339,2050
1629810626343,2050
1629810626347,2051
1629810626351,2051
1629810626355,2051
1629810626359,2051
1629810626363,2050
1629810626367,2050
1629810626371,2050
1629810626375,2050
1629810626379,2050
1629810626383,2051
1629810626387,2051
1629810626391,2051
1629810626395,2051
1629810626399,2051
1629810626403,2051
1629810626407,2051
1629810626411,2051
1629810626415,2051
1629810626419,2051
1629810626423,2051
1629810626427,2051
1629810626431,2052
1629810626435,2052
1629810626439,2052
1629810626443,2052
1629810626447,2052
1629810626451,2051
1629810626455,2051
1629810626459,2052
1629810626463,2052
1629810626467,2052
1629810626471,2053
1629810626475,2053
1629810626479,2053
1629810626483,2053
1629810626487,2053
1629810626491,2053
1629810626495,2053
1629810626499,2052
1629810626503,2053
1629810626507,2053
1629810626511,2054
1629810626515,2054
1629810626519,2053
1629810626523,2053
1629810626527,2053
1629810626531,2053
1629810626535,2053
1629810626539,2054
1629810626543,2054
1629810626547,2054
1629810626551,2054
1629810626555,2054
1629810626559,2054
1629810626563,2054
1629810626567,2054
1629810626571,2054
1629810626575,2054
1629810626579,2054
1629810626583,2054
1629810626587,2055
1629810626591,2055
1629810626595,2055
1629810626599,2054
1629810626603,2054
1629810626607,2054
1629810626611,2054
1629810626615,2054
1629810626619,2054
1629810626623,2054
1629810626627,2055
1629810626631,2055
1629810626635,2056
1629810626639,2056
1629810626643,2056
1629810626647,2056
1629810626651,2056
1629810626655,2055
1629810626659,2055
1629810626663,2055
1629810626667,2055
1629810626671,2057
1629810626675,2059
1629810626679,2061
1629810626683,2062
1629810626687,2062
1629810626691,2062
1629810626695,2060
1629810626699,2059
1629810626703,2060
1629810626707,2060
1629810626711,2060
1629810626715,2059
1629810626719,2058
1629810626723,2057
1629810626727,2056
1629810626731,2055
1629810626735,2054
1629810626739,2054
1629810626743,2054
1629810626747,2054
1629810626751,2055
1629810626755,2054
1629810626759,2054
1629810626763,2054
1629810626767,2054
1629810626771,2054
1629810626775,2054
1629810626779,2054
1629810626783,2054
1629810626787,2055
1629810626791,2055
1629810626795,2055
1629810626799,2056
1629810626803,2056
1629810626807,2055
1629810626811,2053
1629810626815,2052
1629810626819,2053
1629810626823,2060
1629810626827,2071
1629810626831,2082
1629810626835,2092
1629810626839,2103
1629810626843,2117
1629810626847,2130
1629810626851,2134
1629810626855,2123
1629810626859,2095
1629810626863,2059
1629810626867,2031
1629810626871,2018
1629810626875,2024
1629810626879,2039
1629810626883,2053
1629810626887,2061
1629810626891,2060
1629810626895,2058
1629810626899,2057
1629810626903,2057
1629810626907,2058
1629810626911,2059
1629810626915,2059
1629810626919,2059
1629810626923,2059
1629810626927,2059
1629810626931,2059
1629810626935,2060
1629810626939,2060
1629810626943,2061
1629810626947,2061
1629810626951,2062
1629810626955,2062
1629810626959,2062
1629810626963,2063
1629810626967,2063
1629810626971,2063
1629810626975,2063
1629810626979,2063
1629810626983,2064
1629810626987,2065
1629810626991,2065
1629810626995,2066
1629810626999,2067
1629810627003,2067
1629810627007,2067
1629810627011,2068
1629810627015,2069
1629810627019,2069
1629810627023,2071
1629810627027,2072
1629810627031,2074
1629810627035,2075
1629810627039,2076
1629810627043,2077
1629810627047,2078
1629810627051,2079
1629810627055,2081
1629810627059,2083
1629810627063,2085
1629810627067,2088
1629810627071,2090
1629810627075,2092
1629810627079,2094
1629810627083,2095
1629810627087,2096
1629810627091,2098
1629810627095,2099
1629810627099,2101
1629810627103,2103
1629810627107,2104
1629810627111,2105
1629810627115,2105
1629810627119,2104
1629810627123,2104
1629810627127,2102
1629810627131,2100
1629810627135,2098
1629810627139,2094
1629810627143,2090
1629810627147,2086
1629810627151,2081
1629810627155,2077
1629810627159,2073
1629810627163,2069
1629810627167,2066
1629810627171,2062
1629810627175,2059
1629810627179,2057
1629810627183,2055
1629810627187,2054
1629810627191,2053
1629810627195,2053
1629810627199,2052
1629810627203,2051
1629810627207,2050
1629810627211,2049
1629810627215,2049
1629810627219,2049
1629810627223,2049
1629810627227,2049
1629810627231,2049
1629810627235,2049
1629810627239,2049
1629810627243,2049
1629810627247,2048
1629810627251,2048
1629810627255,2048
1629810627259,2048
1629810627263,2049
1629810627267,2049
1629810627271,2050
1629810627275,2050
1629810627279,2050
1629810627283,2049
1629810627287,2049
1629810627291,2049
1629810627295,2049
1629810627299,2049
1629810627303,2050
1629810627307,2050
1629810627311,2050
1629810627315,2051
1629810627319,2051
1629810627323,2050
1629810627327,2049
1629810627331,2049
1629810627335,2049
1629810627339,2050
1629810627343,2050
1629810627347,2051
1629810627351,2051
1629810627355,2051
1629810627359,2051
1629810627363,2050
1629810627367,2050
1629810627371,2051
1629810627375,2051
1629810627379,2051
1629810627383,2051
1629810627387,2051
1629810627391,2051
1629810627395,2051
1629810627399,2051
1629810627403,2051
1629810627407,2050
1629810627411,2050
1629810627415,2050
1629810627419,2050
1629810627423,2051
1629810627427,2051
1629810627431,2051
1629810627435,2050
1629810627439,2050
1629810627443,2050
1629810627447,2050
1629810627451,2050
1629810627455,2050
1629810627459,2050
1629810627463,2050
1629810627467,2050
1629810627471,2051
1629810627475,2051
1629810627479,2051
1629810627483,2052
1629810627487,2051
1629810627491,2051
1629810627495,2051
1629810627499,2051
1629810627503,2051
1629810627507,2051
1629810627511,2052
1629810627515,2052
1629810627519,2052
1629810627523,2051
1629810627527,2051
1629810627531,2051
1629810627535,2051
1629810627539,2051
1629810627543,2052
1629810627547,2052
1629810627551,2052
1629810627555,2052
1629810627559,2052
1629810627563,2052
1629810627567,2052
1629810627571,2052
1629810627575,2052
1629810627579,2052
1629810627583,2052
1629810627587,2052
1629810627591,2053
1629810627595,2053
1629810627599,2053
1629810627603,2053
1629810627607,2052
1629810627611,2052
1629810627615,2052
1629810627619,2052
1629810627623,2053
1629810627627,2053
1629810627631,2053
1629810627635,2053
1629810627639,2053
1629810627643,2053
1629810627647,2052
1629810627651,2052
1629810627655,2052
1629810627659,2052
1629810627663,2052
1629810627667,2052
1629810627671,2052
1629810627675,2053
1629810627679,2052
1629810627683,2052
1629810627687,2052
1629810627691,2052
1629810627695,2052
1629810627699,2053
1629810627703,2053
1629810627707,2053
1629810627711,2053
1629810627715,2053
1629810627719,2053
1629810627723,2052
1629810627727,2052
1629810627731,2053
1629810627735,2055
1629810627739,2057
1629810627743,2059
1629810627747,2061
1629810627751,2060
1629810627755,2059
1629810627759,2057
1629810627763,2057
1629810627767,2056
1629810627771,2056
1629810627775,2056
1629810627779,2055
1629810627783,2055
1629810627787,2054
1629810627791,2053
1629810627795,2052
1629810627799,2051
1629810627803,2051
1629810627807,2050
1629810627811,2050
1629810627815,2050
1629810627819,2050
1629810627823,2051
1629810627827,2051
1629810627831,2051
1629810627835,2051
1629810627839,2050
1629810627843,2050
1629810627847,2050
1629810627851,2050
1629810627855,2050
1629810627859,2050
1629810627863,2051
1629810627867,2051
1629810627871,2050
1629810627875,2049
1629810627879,2050
1629810627883,2055
1629810627887,2064
1629810627891,2075
1629810627895,2084
1629810627899,2095
1629810627903,2108
1629810627907,2121
1629810627911,2128
1629810627915,2121
1629810627919,2096
1629810627923,2062
1629810627927,2031
1629810627931,2014
1629810627935,2016
1629810627939,2030
1629810627943,2045
1629810627947,2054
1629810627951,2056
1629810627955,2054
1629810627959,2053
1629810627963,2052
1629810627967,2052
1629810627971,2052
1629810627975,2052
1629810627979,2052
1629810627983,2053
1629810627987,2054
1629810627991,2054
1629810627995,2054
1629810627999,2054
1629810628003,2054
1629810628007,2054
1629810628011,2054
1629810628015,2055
1629810628019,2055
1629810628023,2056
1629810628027,2057
1629810628031,2057
1629810628035,2058
1629810628039,2058
1629810628043,2058
1629810628047,2058
1629810628051,2058
1629810628055,2059
1629810628059,2059
1629810628063,2061
1629810628067,2062
1629810628071,2063
1629810628075,2064
1629810628079,2064
1629810628083,2065
1629810628087,2065
1629810628091,2066
1629810628095,2067
1629810628099,2069
1629810628103,2071
1629810628107,2072
1629810628111,2074
1629810628115,2075
1629810628119,2077
1629810628123,2078
1629810628127,2079
1629810628131,2081
1629810628135,2083
1629810628139,2086
1629810628143,2088
1629810628147,2090
1629810628151,2092
1629810628155,2093
1629810628159,2094
1629810628163,2095
1629810628167,2096
1629810628171,2097
1629810628175,2098
1629810628179,2098
1629810628183,2098
1629810628187,2097
1629810628191,2095
1629810628195,2093
1629810628199,2089
1629810628203,2085
1629810628207,2079
1629810628211,2075
1629810628215,2070
1629810628219,2066
1629810628223,2063
1629810628227,2060
1629810628231,2057
1629810628235,2054
1629810628239,2051
1629810628243,2049
1629810628247,2047
1629810628251,2045
1629810628255,2044
1629810628259,2043
1629810628263,2043
1629810628267,2043
1629810628271,2043
1629810628275,2043
1629810628279,2043
1629810628283,2042
1629810628287,2041
1629810628291,2041
1629810628295,2041
1629810628299,2041
1629810628303,2041
1629810628307,2041
1629810628311,2041
1629810628315,2041
1629810628319,2041
1629810628323,2041
1629810628327,2041
1629810628331,2041
1629810628335,2041
1629810628339,2041
1629810628343,2041
1629810628347,2041
1629810628351,2041
1629810628355,2041
1629810628359,2041
1629810628363,2042
1629810628367,2042
1629810628371,2042
1629810628375,2043
1629810628379,2043
1629810628383,2043
1629810628387,2043
1629810628391,2043
1629810628395,2043
1629810628399,2043
1629810628403,2043
1629810628407,2042
1629810628411,2042
1629810628415,2042
1629810628419,2042
1629810628423,2043
1629810628427,2044
1629810628431,2044
1629810628435,2044
1629810628439,2044
1629810628443,2043
1629810628447,2042
1629810628451,2042
1629810628455,2042
1629810628459,2042
1629810628463,2043
1629810628467,2043
1629810628471,2043
1629810628475,2042
1629810628479,2042
1629810628483,2042
1629810628487,2042
1629810628491,2042
1629810628495,2042
1629810628499,2042
1629810628503,2042
1629810628507,2042
1629810628511,2042
1629810628515,2042
1629810628519,2042
1629810628523,2042
1629810628527,2041
1629810628531,2042
1629810628535,2042
1629810628539,2042
1629810628543,2043
1629810628547,2043
1629810628551,2043
1629810628555,2043
1629810628559,2043
1629810628563,2043
1629810628567,2043
1629810628571,2042
1629810628575,2042
1629810628579,2043
1629810628583,2043
1629810628587,2043
1629810628591,2044
1629810628595,2044
1629810628599,2044
1629810628603,2043
1629810628607,2043
1629810628611,2043
1629810628615,2043
1629810628619,2043
1629810628623,2044
1629810628627,2044
1629810628631,2044
1629810628635,2044
1629810628639,2044
1629810628643,2044
1629810628647,2044
1629810628651,2044
1629810628655,2044
1629810628659,2044
1629810628663,2045
1629810628667,2045
1629810628671,2045
1629810628675,2045
1629810628679,2045
1629810628683,2045
1629810628687,2045
1629810628691,2045
1629810628695,2045
1629810628699,2045
1629810628703,2046
1629810628707,2046
1629810628711,2047
1629810628715,2047
1629810628719,2046
1629810628723,2046
1629810628727,2046
1629810628731,2046
1629810628735,2046
1629810628739,2046
1629810628743,2047
1629810628747,2047
1629810628751,2047
1629810628755,2047
1629810628759,2047
1629810628763,2047
1629810628767,2047
1629810628771,2047
1629810628775,2047
1629810628779,2047
1629810628783,2047
1629810628787,2047
1629810628791,2048
1629810628795,2048
1629810628799,2051
1629810628803,2053
1629810628807,2053
1629810628811,2053
1629810628815,2052
1629810628819,2050
1629810628823,2050
1629810628827,2050
1629810628831,2051
1629810628835,2050
1629810628839,2049
1629810628843,2048
1629810628847,2047
1629810628851,2046
1629810628855,2045
1629810628859,2044
1629810628863,2045
1629810628867,2045
1629810628871,2045
1629810628875,2045
1629810628879,2045
1629810628883,2044
1629810628887,2044
1629810628891,2044
1629810628895,2045
1629810628899,2045
1629810628903,2046
1629810628907,2045
1629810628911,2045
1629810628915,2045
1629810628919,2045
1629810628923,2046
1629810628927,2045
1629810628931,2044
1629810628935,2044
1629810628939,2046
1629810628943,2052
1629810628947,2064
1629810628951,2076
1629810628955,2087
1629810628959,2101
1629810628963,2117
1629810628967,2129
1629810628971,2133
1629810628975,2119
1629810628979,2089
1629810628983,2051
1629810628987,2021
1629810628991,2007
1629810628995,2012
1629810628999,2027
1629810629003,2043
1629810629007,2050
1629810629011,2050
1629810629015,2049
1629810629019,2048
1629810629023,2048
1629810629027,2048
1629810629031,2048
1629810629035,2049
1629810629039,2049
1629810629043,2050
1629810629047,2050
1629810629051,2050
1629810629055,2051
1629810629059,2051
1629810629063,2052
1629810629067,2053
1629810629071,2053
1629810629075,2053
1629810629079,2053
1629810629083,2054
1629810629087,2054
1629810629091,2054
1629810629095,2055
1629810629099,2055
1629810629103,2056
1629810629107,2057
1629810629111,2057
1629810629115,2058
1629810629119,2058
1629810629123,2058
1629810629127,2059
1629810629131,2060
1629810629135,2061
1629810629139,2062
1629810629143,2063
1629810629147,2064
1629810629151,2065
1629810629155,2066
1629810629159,2067
1629810629163,2068
1629810629167,2069
1629810629171,2070
1629810629175,2072
1629810629179,2073
1629810629183,2075
1629810629187,2077
1629810629191,2079
1629810629195,2081
1629810629199,2083
1629810629203,2085
1629810629207,2086
1629810629211,2088
1629810629215,2090
1629810629219,2091
1629810629223,2093
1629810629227,2094
1629810629231,2095
1629810629235,2095
1629810629239,2095
1629810629243,2094
1629810629247,2093
1629810629251,2091
1629810629255,2088
1629810629259,2084
1629810629263,2080
1629810629267,2076
1629810629271,2072
1629810629275,2068
1629810629279,2064
1629810629283,2060
1629810629287,2056
1629810629291,2052
1629810629295,2050
1629810629299,2048
1629810629303,2046
1629810629307,2045
1629810629311,2044
1629810629315,2043
1629810629319,2042
1629810629323,2041
1629810629327,2040
1629810629331,2040
1629810629335,2039
1629810629339,2039
1629810629343,2039
1629810629347,2039
1629810629351,2039
1629810629355,2039
1629810629359,2039
1629810629363,2039
1629810629367,2038
1629810629371,2039
1629810629375,2039
1629810629379,2039
1629810629383,2040
1629810629387,2040
1629810629391,2041
1629810629395,2041
1629810629399,2041
1629810629403,2041
1629810629407,2040
1629810629411,2040
1629810629415,2040
1629810629419,2040
1629810629423,2041
1629810629427,2042
1629810629431,2042
1629810629435,2042
1629810629439,2042
1629810629443,2042
1629810629447,2041
1629810629451,2041
1629810629455,2042
1629810629459,2042
1629810629463,2042
1629810629467,2042
1629810629471,2042
1629810629475,2042
1629810629479,2042
1629810629483,2042
1629810629487,2041
1629810629491,2041
1629810629495,2041
1629810629499,2041
1629810629503,2040
1629810629507,2040
1629810629511,2041
1629810629515,2041
1629810629519,2041
1629810629523,2041
1629810629527,2041
1629810629531,2041
1629810629535,2040
1629810629539,2040
1629810629543,2040
1629810629547,2040
1629810629551,2041
1629810629555,2041
1629810629559,2041
1629810629563,2041
1629810629567,2041
1629810629571,2040
1629810629575,2040
1629810629579,2040
1629810629583,2040
1629810629587,2040
1629810629591,2041
1629810629595,2041
1629810629599,2041
1629810629603,2041
1629810629607,2041
1629810629611,2041
1629810629615,2041
1629810629619,2041
1629810629623,2041
1629810629627,2041
1629810629631,2040
1629810629635,2041
1629810629639,2041
1629810629643,2041
1629810629647,2040
1629810629651,2040
1629810629655,2041
1629810629659,2041
1629810629663,2042
1629810629667,2042
1629810629671,2043
1629810629675,2043
1629810629679,2043
1629810629683,2042
1629810629687,2042
1629810629691,2042
1629810629695,2042
1629810629699,2042
1629810629703,2043
1629810629707,2043
1629810629711,2043
1629810629715,2043
1629810629719,2043
1629810629723,2043
1629810629727,2043
1629810629731,2044
1629810629735,2044
1629810629739,2044
1629810629743,2045
1629810629747,2045
1629810629751,2044
1629810629755,2044
1629810629759,2046
1629810629763,2048
1629810629767,2049
1629810629771,2050
1629810629775,2050
1629810629779,2050
1629810629783,2049
1629810629787,2049
1629810629791,2048
1629810629795,2048
1629810629799,2048
1629810629803,2047
1629810629807,2046
1629810629811,2045
1629810629815,2044
1629810629819,2043
1629810629823,2043
1629810629827,2043
1629810629831,2043
1629810629835,2043
1629810629839,2044
1629810629843,2043
1629810629847,2042
1629810629851,2042
1629810629855,2042
1629810629859,2042
1629810629863,2043
1629810629867,2044
1629810629871,2044
1629810629875,2045
1629810629879,2045
1629810629883,2045
1629810629887,2045
1629810629891,2045
1629810629895,2044
1629810629899,2043
1629810629903,2043
1629810629907,2047
1629810629911,2056
1629810629915,2069
1629810629919,2081
1629810629923,2093
1629810629927,2109
1629810629931,2125
1629810629935,2135
1629810629939,2133
1629810629943,2112
1629810629947,2077
1629810629951,2040
1629810629955,2014
1629810629959,2007
1629810629963,2017
1629810629967,2033
1629810629971,2047
1629810629975,2051
1629810629979,2050
1629810629983,2050
1629810629987,2049
1629810629991,2049
1629810629995,2050
1629810629999,2050
1629810630003,2050
1629810630007,2050
1629810630011,2050
1629810630015,2051
1629810630019,2051
1629810630023,2052
1629810630027,2053
1629810630031,2053
1629810630035,2053
1629810630039,2054
1629810630043,2054
1629810630047,2054
1629810630051,2054
1629810630055,2055
1629810630059,2056
1629810630063,2057
1629810630067,2058
1629810630071,2058
1629810630075,2059
1629810630079,2059
1629810630083,2060
1629810630087,2060
1629810630091,2061
1629810630095,2061
1629810630099,2062
1629810630103,2063
1629810630107,2065
1629810630111,2066
1629810630115,2067
1629810630119,2067
1629810630123,2068
1629810630127,2068
1629810630131,2070
1629810630135,2072
1629810630139,2074
1629810630143,2076
1629810630147,2078
1629810630151,2080
1629810630155,2081
1629810630159,2083
1629810630163,2085
1629810630167,2087
1629810630171,2089
1629810630175,2090
1629810630179,2092
1629810630183,2094
1629810630187,2095
1629810630191,2096
1629810630195,2097
1629810630199,2097
1629810630203,2097
1629810630207,2096
1629810630211,2094
1629810630215,2092
1629810630219,2090
1629810630223,2087
1629810630227,2083
1629810630231,2079
1629810630235,2074
1629810630239,2069
1629810630243,2065
1629810630247,2060
1629810630251,2056
1629810630255,2053
1629810630259,2050
1629810630263,2048
1629810630267,2047
1629810630271,2045
1629810630275,2044
1629810630279,2043
1629810630283,2042
1629810630287,2041
1629810630291,2040
1629810630295,2040
1629810630299,2040
1629810630303,2040
1629810630307,2040
1629810630311,2040
1629810630315,2040
1629810630319,2040
1629810630323,2040
1629810630327,2039
1629810630331,2040
1629810630335,2040
1629810630339,2040
1629810630343,2040
1629810630347,2041
1629810630351,2041
1629810630355,2041
1629810630359,2041
1629810630363,2041
1629810630367,2041
1629810630371,2041
1629810630375,2042
1629810630379,2042
1629810630383,2043
1629810630387,2043
1629810630391,2044
1629810630395,2044
1629810630399,2044
1629810630403,2044
1629810630407,2044
1629810630411,2043
1629810630415,2044
1629810630419,2044
1629810630423,2045
1629810630427,2046
1629810630431,2046
1629810630435,2046
1629810630439,2046
1629810630443,2045
1629810630447,2045
1629810630451,2044
1629810630455,2044
1629810630459,2045
1629810630463,2045
1629810630467,2046
1629810630471,2046
1629810630475,2046
1629810630479,2046
1629810630483,2046
1629810630487,2046
1629810630491,2046
1629810630495,2045
1629810630499,2045
1629810630503,2045
1629810630507,2046
1629810630511,2046
1629810630515,2046
1629810630519,2046
1629810630523,2046
1629810630527,2045
1629810630531,2045
1629810630535,2046
1629810630539,2046
1629810630543,2046
1629810630547,2046
1629810630551,2046
1629810630555,2047
1629810630559,2047
1629810630563,2047
1629810630567,2047
1629810630571,2047
1629810630575,2046
1629810630579,2046
1629810630583,2046
1629810630587,2046
1629810630591,2047
1629810630595,2047
1629810630599,2047
1629810630603,2048
1629810630607,2047
1629810630611,2047
1629810630615,2047
1629810630619,2047
1629810630623,2047
1629810630627,2048
1629810630631,2048
1629810630635,2048
1629810630639,2048
1629810630643,2048
1629810630647,2048
1629810630651,2048
1629810630655,2048
1629810630659,2048
1629810630663,2048
1629810630667,2048
1629810630671,2049
1629810630675,2049
1629810630679,2049
1629810630683,2048
1629810630687,2048
1629810630691,2048
1629810630695,2048
1629810630699,2048
1629810630703,2049
1629810630707,2049
1629810630711,2050
1629810630715,2050
1629810630719,2050
1629810630723,2050
1629810630727,2049
1629810630731,2049
1629810630735,2049
1629810630739,2050
1629810630743,2050
1629810630747,2051
1629810630751,2052
1629810630755,2051
1629810630759,2051
1629810630763,2050
1629810630767,2050
1629810630771,2051
1629810630775,2053
1629810630779,2055
1629810630783,2057
1629810630787,2058
1629810630791,2058
1629810630795,2056
1629810630799,2055
1629810630803,2055
1629810630807,2055
1629810630811,2055
1629810630815,2054
1629810630819,2054
1629810630823,2053
1629810630827,2052
1629810630831,2051
1629810630835,2050
1629810630839,2049
1629810630843,2049
1629810630847,2049
1629810630851,2049
1629810630855,2049
1629810630859,2049
1629810630863,2050
1629810630867,2050
1629810630871,2050
1629810630875,2050
1629810630879,2050
1629810630883,2050
1629810630887,2049
1629810630891,2049
1629810630895,2050
1629810630899,2051
1629810630903,2052
1629810630907,2051
1629810630911,2050
1629810630915,2050
1629810630919,2051
1629810630923,2057
1629810630927,2067
1629810630931,2079
1629810630935,2089
1629810630939,2101
1629810630943,2115
1629810630947,2129
1629810630951,2134
1629810630955,2125
1629810630959,2097
1629810630963,2061
1629810630967,2030
1629810630971,2014
1629810630975,2018
1629810630979,2033
1629810630983,2048
1629810630987,2058
1629810630991,2058
1629810630995,2056
1629810630999,2055
1629810631003,2054
1629810631007,2054
1629810631011,2054
1629810631015,2055
1629810631019,2055
1629810631023,2056
1629810631027,2056
1629810631031,2057
1629810631035,2057
1629810631039,2058
1629810631043,2058
1629810631047,2058
1629810631051,2058
1629810631055,2058
1629810631059,2058
1629810631063,2059
1629810631067,2060
1629810631071,2060
1629810631075,2061
1629810631079,2061
1629810631083,2062
1629810631087,2062
1629810631091,2063
1629810631095,2064
1629810631099,2065
1629810631103,2066
1629810631107,2066
1629810631111,2067
1629810631115,2068
1629810631119,2069
1629810631123,2070
1629810631127,2070
1629810631131,2071
1629810631135,2073
1629810631139,2074
1629810631143,2076
1629810631147,2078
1629810631151,2080
1629810631155,2081
1629810631159,2083
1629810631163,2085
1629810631167,2086
1629810631171,2088
1629810631175,2091
1629810631179,2093
1629810631183,2095
1629810631187,2098
1629810631191,2100
1629810631195,2102
1629810631199,2103
1629810631203,2104
1629810631207,2105
1629810631211,2106
1629810631215,2106
1629810631219,2106
1629810631223,2106
1629810631227,2105
1629810631231,2103
1629810631235,2100
1629810631239,2095
1629810631243,2091
1629810631247,2086
1629810631251,2081
1629810631255,2077
1629810631259,2073
1629810631263,2070
1629810631267,2066
1629810631271,2063
1629810631275,2061
1629810631279,2058
1629810631283,2056
1629810631287,2054
1629810631291,2053
1629810631295,2051
1629810631299,2051
1629810631303,2051
1629810631307,2050
1629810631311,2051
1629810631315,2050
1629810631319,2050
1629810631323,2050
1629810631327,2049
1629810631331,2048
1629810631335,2049
1629810631339,2049
1629810631343,2050
1629810631347,2050
1629810631351,2050
1629810631355,2050
1629810631359,2050
1629810631363,2050
1629810631367,2050
1629810631371,2050
1629810631375,2050
1629810631379,2050
1629810631383,2050
1629810631387,2051
1629810631391,2051
1629810631395,2051
1629810631399,2051
1629810631403,2051
1629810631407,2051
1629810631411,2051
1629810631415,2051
1629810631419,2051
1629810631423,2051
1629810631427,2052
1629810631431,2052
1629810631435,2052
1629810631439,2052
1629810631443,2052
1629810631447,2052
1629810631451,2052
1629810631455,2052
1629810631459,2052
1629810631463,2052
1629810631467,2052
1629810631471,2052
1629810631475,2052
1629810631479,2052
1629810631483,2052
1629810631487,2052
1629810631491,2051
1629810631495,2051
1629810631499,2050
1629810631503,2051
1629810631507,2051
1629810631511,2052
1629810631515,2052
1629810631519,2051
1629810631523,2051
1629810631527,2051
1629810631531,2050
1629810631535,2050
1629810631539,2050
1629810631543,2051
1629810631547,2051
1629810631551,2051
1629810631555,2051
1629810631559,2051
1629810631563,2050
1629810631567,2050
1629810631571,2050
1629810631575,2049
1629810631579,2049
1629810631583,2049
1629810631587,2050
1629810631591,2051
1629810631595,2051
1629810631599,2051
1629810631603,2051
1629810631607,2050
1629810631611,2050
1629810631615,2050
1629810631619,2050
1629810631623,2051
1629810631627,2051
1629810631631,2052
1629810631635,2052
1629810631639,2051
1629810631643,2051
1629810631647,2050
1629810631651,2050
1629810631655,2050
1629810631659,2050
1629810631663,2051
1629810631667,2051
1629810631671,2051
1629810631675,2052
1629810631679,2051
1629810631683,2051
1629810631687,2051
1629810631691,2051
1629810631695,2050
1629810631699,2050
1629810631703,2051
1629810631707,2051
1629810631711,2051
1629810631715,2052
1629810631719,2052
1629810631723,2051
1629810631727,2051
1629810631731,2051
1629810631735,2051
1629810631739,2051
1629810631743,2051
1629810631747,2051
1629810631751,2052
1629810631755,2052
1629810631759,2052
1629810631763,2052
1629810631767,2051
1629810631771,2051
1629810631775,2051
1629810631779,2052
1629810631783,2052
1629810631787,2052
1629810631791,2053
1629810631795,2053
1629810631799,2052
1629810631803,2052
1629810631807,2051
1629810631811,2051
1629810631815,2052
1629810631819,2055
1629810631823,2057
1629810631827,2059
1629810631831,2060
1629810631835,2059
1629810631839,2057
1629810631843,2056
1629810631847,2055
1629810631851,2055
1629810631855,2055
1629810631859,2055
1629810631863,2055
1629810631867,2054
1629810631871,2053
1629810631875,2052
1629810631879,2051
1629810631883,2050
1629810631887,2049
1629810631891,2050
1629810631895,2050
1629810631899,2050
1629810631903,2051
1629810631907,2050
1629810631911,2050
1629810631915,2050
1629810631919,2050
1629810631923,2050
1629810631927,2050
1629810631931,2050
1629810631935,2050
1629810631939,2050
1629810631943,2051
1629810631947,2051
1629810631951,2051
1629810631955,2050
1629810631959,2050
1629810631963,2053
1629810631967,2060
1629810631971,2071
1629810631975,2081
1629810631979,2090
1629810631983,2102
1629810631987,2116
1629810631991,2127
1629810631995,2127
1629810631999,2111
1629810632003,2080
1629810632007,2046
1629810632011,2021
1629810632015,2014
1629810632019,2023
1629810632023,2039
1629810632027,2052
1629810632031,2057
1629810632035,2056
1629810632039,2054
1629810632043,2054
1629810632047,2053
1629810632051,2053
1629810632055,2053
1629810632059,2054
1629810632063,2054
1629810632067,2055
1629810632071,2056
1629810632075,2056
1629810632079,2057
1629810632083,2056
1629810632087,2056
1629810632091,2056
1629810632095,2056
1629810632099,2057
1629810632103,2057
1629810632107,2058
1629810632111,2059
1629810632115,2060
1629810632119,2060
1629810632123,2059
1629810632127,2059
1629810632131,2059
1629810632135,2060
1629810632139,2061
1629810632143,2062
1629810632147,2064
1629810632151,2065
1629810632155,2066
1629810632159,2066
1629810632163,2067
1629810632167,2067
1629810632171,2068
1629810632175,2069
1629810632179,2070
1629810632183,2071
1629810632187,2073
1629810632191,2075
1629810632195,2076
1629810632199,2078
1629810632203,2080
1629810632207,2081
1629810632211,2083
1629810632215,2085
1629810632219,2087
1629810632223,2090
1629810632227,2092
1629810632231,2094
1629810632235,2096
1629810632239,2097
1629810632243,2098
1629810632247,2098
1629810632251,2099
1629810632255,2100
1629810632259,2100
1629810632263,2101
1629810632267,2100
1629810632271,2099
1629810632275,2096
1629810632279,2093
1629810632283,2089
1629810632287,2084
1629810632291,2079
1629810632295,2074
1629810632299,2070
1629810632303,2067
1629810632307,2063
1629810632311,2060
1629810632315,2057
1629810632319,2055
1629810632323,2052
1629810632327,2049
1629810632331,2048
1629810632335,2047
1629810632339,2046
1629810632343,2045
1629810632347,2044
1629810632351,2044
1629810632355,2045
1629810632359,2045
1629810632363,2045
1629810632367,2044
1629810632371,2044
1629810632375,2043
1629810632379,2043
1629810632383,2043
1629810632387,2043
1629810632391,2043
1629810632395,2043
1629810632399,2043
1629810632403,2043
1629810632407,2042
1629810632411,2042
1629810632415,2042
1629810632419,2042
1629810632423,2043
1629810632427,2043
1629810632431,2044
1629810632435,2044
1629810632439,2044
1629810632443,2043
1629810632447,2043
1629810632451,2042
1629810632455,2042
1629810632459,2043
1629810632463,2043
1629810632467,2044
1629810632471,2044
1629810632475,2044
1629810632479,2044
1629810632483,2044
1629810632487,2044
1629810632491,2044
1629810632495,2044
1629810632499,2044
1629810632503,2044
1629810632507,2044
1629810632511,2044
1629810632515,2044
1629810632519,2043
1629810632523,2043
1629810632527,2043
1629810632531,2043
1629810632535,2043
1629810632539,2043
1629810632543,2043
1629810632547,2043
1629810632551,2043
1629810632555,2043
1629810632559,2043
1629810632563,2043
1629810632567,2042
1629810632571,2042
1629810632575,2042
1629810632579,2042
1629810632583,2042
1629810632587,2042
1629810632591,2043
1629810632595,2043
1629810632599,2043
1629810632603,2043
1629810632607,2042
1629810632611,2042
1629810632615,2042
1629810632619,2042
1629810632623,2042
1629810632627,2043
1629810632631,2043
1629810632635,2043
1629810632639,2043
1629810632643,2043
1629810632647,2042
1629810632651,2042
1629810632655,2043
1629810632659,2042
1629810632663,2043
1629810632667,2043
1629810632671,2043
1629810632675,2043
1629810632679,2043
1629810632683,2043
1629810632687,2042
1629810632691,2042
1629810632695,2042
1629810632699,2042
1629810632703,2043
1629810632707,2043
1629810632711,2043
1629810632715,2043
1629810632719,2043
1629810632723,2043
1629810632727,2042
1629810632731,2042
1629810632735,2042
1629810632739,2042
1629810632743,2043
1629810632747,2043
1629810632751,2043
1629810632755,2043
1629810632759,2043
1629810632763,2043
1629810632767,2043
1629810632771,2043
1629810632775,2043
1629810632779,2043
1629810632783,2043
1629810632787,2044
1629810632791,2044
1629810632795,2045
1629810632799,2044
1629810632803,2044
1629810632807,2043
1629810632811,2043
1629810632815,2043
1629810632819,2043
1629810632823,2043
1629810632827,2044
1629810632831,2045
1629810632835,2046
1629810632839,2048
1629810632843,2049
1629810632847,2049
1629810632851,2049
1629810632855,2048
1629810632859,2048
1629810632863,2048
1629810632867,2047
1629810632871,2047
1629810632875,2047
1629810632879,2047
1629810632883,2046
1629810632887,2044
1629810632891,2043
1629810632895,2042
1629810632899,2041
1629810632903,2041
1629810632907,2042
1629810632911,2042
1629810632915,2043
1629810632919,2043
1629810632923,2043
1629810632927,2042
1629810632931,2042
1629810632935,2041
1629810632939,2041
1629810632943,2041
1629810632947,2042
1629810632951,2042
1629810632955,2043
1629810632959,2043
1629810632963,2044
1629810632967,2043
1629810632971,2041
1629810632975,2040
1629810632979,2041
1629810632983,2048
1629810632987,2058
1629810632991,2071
1629810632995,2083
1629810632999,2096
1629810633003,2111
1629810633007,2124
1629810633011,2130
1629810633015,2121
1629810633019,2094
1629810633023,2057
1629810633027,2025
1629810633031,2007
1629810633035,2009
1629810633039,2022
1629810633043,2038
1629810633047,2047
1629810633051,2048
1629810633055,2047
1629810633059,2046
1629810633063,2047
1629810633067,2048
1629810633071,2048
1629810633075,2048
1629810633079,2048
1629810633083,2048
1629810633087,2048
1629810633091,2048
1629810633095,2048
1629810633099,2049
1629810633103,2050
1629810633107,2051
1629810633111,2051
1629810633115,2051
1629810633119,2051
1629810633123,2051
1629810633127,2051
1629810633131,2052
1629810633135,2052
1629810633139,2053
1629810633143,2054
1629810633147,2055
1629810633151,2056
1629810633155,2057
1629810633159,2057
1629810633163,2058
1629810633167,2058
1629810633171,2059
1629810633175,2060
1629810633179,2061
1629810633183,2062
1629810633187,2063
1629810633191,2064
1629810633195,2065
1629810633199,2066
1629810633203,2067
1629810633207,2068
1629810633211,2070
1629810633215,2072
1629810633219,2074
1629810633223,2076
1629810633227,2078
1629810633231,2080
1629810633235,2082
1629810633239,2084
1629810633243,2086
1629810633247,2087
1629810633251,2089
1629810633255,2090
1629810633259,2092
1629810633263,2095
1629810633267,2096
1629810633271,2097
1629810633275,2098
1629810633279,2098
1629810633283,2097
1629810633287,2095
1629810633291,2093
1629810633295,2090
1629810633299,2086
1629810633303,2083
1629810633307,2079
1629810633311,2075
1629810633315,2070
1629810633319,2066
1629810633323,2061
1629810633327,2056
1629810633331,2053
1629810633335,2050
1629810633339,2049
1629810633343,2048
1629810633347,2047
1629810633351,2045
1629810633355,2044
1629810633359,2043
1629810633363,2041
1629810633367,2041
1629810633371,2041
1629810633375,2041
1629810633379,2041
1629810633383,2041
1629810633387,2041
1629810633391,2041
1629810633395,2041
1629810633399,2040
1629810633403,2040
1629810633407,2040
1629810633411,2040
1629810633415,2040
1629810633419,2041
1629810633423,2042
1629810633427,2042
1629810633431,2042
1629810633435,2042
1629810633439,2041
1629810633443,2041
1629810633447,2041
1629810633451,2041
1629810633455,2042
1629810633459,2042
1629810633463,2043
1629810633467,2043
1629810633471,2044
1629810633475,2044
1629810633479,2045
1629810633483,2045
1629810633487,2044
1629810633491,2044
1629810633495,2044
1629810633499,2044
1629810633503,2044
1629810633507,2045
1629810633511,2045
1629810633515,2046
1629810633519,2046
1629810633523,2045
1629810633527,2045
1629810633531,2045
1629810633535,2045
1629810633539,2045
1629810633543,2045
1629810633547,2045
1629810633551,2045
1629810633555,2045
1629810633559,2045
1629810633563,2045
1629810633567,2044
1629810633571,2044
1629810633575,2044
1629810633579,2044
1629810633583,2045
1629810633587,2045
1629810633591,2046
1629810633595,2046
1629810633599,2046
1629810633603,2045
1629810633607,2045
1629810633611,2044
1629810633615,2044
1629810633619,2044
1629810633623,2045
1629810633627,2045
1629810633631,2046
1629810633635,2046
1629810633639,2046
1629810633643,2046
1629810633647,2046
1629810633651,2045
1629810633655,2045
1629810633659,2045
1629810633663,2045
1629810633667,2045
1629810633671,2046
1629810633675,2046
1629810633679,2046
1629810633683,2046
1629810633687,2046
1629810633691,2046
1629810633695,2045
1629810633699,2045
1629810633703,2046
1629810633707,2047
1629810633711,2047
1629810633715,2048
1629810633719,2048
1629810633723,2048
1629810633727,2047
1629810633731,2047
1629810633735,2047
1629810633739,2047
1629810633743,2047
1629810633747,2048
1629810633751,2048
1629810633755,2048
1629810633759,2048
1629810633763,2048
1629810633767,2048
1629810633771,2049
1629810633775,2052
1629810633779,2054
1629810633783,2055
1629810633787,2054
1629810633791,2053
1629810633795,2052
1629810633799,2052
1629810633803,2052
1629810633807,2052
1629810633811,2051
1629810633815,2051
1629810633819,2049
1629810633823,2049
1629810633827,2048
1629810633831,2048
1629810633835,2047
1629810633839,2047
1629810633843,2047
1629810633847,2046
1629810633851,2046
1629810633855,2046
1629810633859,2046
1629810633863,2047
1629810633867,2047
1629810633871,2047
1629810633875,2047
1629810633879,2047
1629810633883,2047
1629810633887,2047
1629810633891,2047
1629810633895,2048
1629810633899,2048
1629810633903,2048
1629810633907,2048
1629810633911,2047
1629810633915,2048
1629810633919,2051
1629810633923,2061
1629810633927,2073
1629810633931,2084
1629810633935,2097
1629810633939,2113
1629810633943,2129
1629810633947,2139
1629810633951,2134
1629810633955,2111
1629810633959,2073
1629810633963,2037
1629810633967,2013
1629810633971,2010
1629810633975,2022
1629810633979,2039
1629810633983,2051
1629810633987,2054
1629810633991,2053
1629810633995,2051
1629810633999,2051
1629810634003,2050
1629810634007,2051
1629810634011,2051
1629810634015,2052
1629810634019,2052
1629810634023,2053
1629810634027,2053
1629810634031,2054
1629810634035,2054
1629810634039,2055
1629810634043,2055
1629810634047,2055
1629810634051,2055
1629810634055,2055
1629810634059,2055
1629810634063,2056
1629810634067,2057
1629810634071,2057
1629810634075,2058
1629810634079,2058
1629810634083,2058
1629810634087,2058
1629810634091,2059
1629810634095,2059
1629810634099,2060
1629810634103,2061
1629810634107,2062
1629810634111,2063
1629810634115,2064
1629810634119,2065
1629810634123,2065
1629810634127,2066
1629810634131,2067
1629810634135,2069
1629810634139,2071
1629810634143,2073
1629810634147,2074
1629810634151,2076
1629810634155,2077
1629810634159,2079
1629810634163,2081
1629810634167,2083
1629810634171,2085
1629810634175,2087
1629810634179,2089
1629810634183,2091
1629810634187,2093
1629810634191,2095
1629810634195,2096
1629810634199,2098
1629810634203,2099
1629810634207,2099
1629810634211,2100
1629810634215,2100
1629810634219,2099
1629810634223,2099
1629810634227,2097
1629810634231,2094
1629810634235,2090
1629810634239,2085
1629810634243,2081
1629810634247,2075
1629810634251,2070
1629810634255,2066
1629810634259,2062
1629810634263,2059
1629810634267,2056
1629810634271,2054
1629810634275,2052
1629810634279,2050
1629810634283,2048
1629810634287,2047
1629810634291,2046
1629810634295,2045
1629810634299,2044
1629810634303,2044
1629810634307,2044
1629810634311,2044
1629810634315,2044
1629810634319,2044
1629810634323,2043
1629810634327,2043
1629810634331,2042
1629810634335,2042
1629810634339,2043
1629810634343,2043
1629810634347,2043
1629810634351,2043
1629810634355,2043
1629810634359,2043
1629810634363,2043
1629810634367,2043
1629810634371,2043
1629810634375,2043
1629810634379,2043
1629810634383,2044
1629810634387,2044
1629810634391,2044
1629810634395,2045
1629810634399,2045
1629810634403,2045
1629810634407,2044
1629810634411,2044
1629810634415,2044
1629810634419,2044
1629810634423,2045
1629810634427,2045
1629810634431,2045
1629810634435,2045
1629810634439,2045
1629810634443,2045
1629810634447,2045
1629810634451,2045
1629810634455,2045
1629810634459,2045
1629810634463,2045
1629810634467,2045
1629810634471,2045
1629810634475,2045
1629810634479,2045
1629810634483,2045
1629810634487,2045
1629810634491,2044
1629810634495,2044
1629810634499,2043
1629810634503,2044
1629810634507,2044
1629810634511,2044
1629810634515,2044
1629810634519,2044
1629810634523,2044
1629810634527,2043
1629810634531,2043
1629810634535,2044
1629810634539,2044
1629810634543,2044
1629810634547,2044
1629810634551,2044
1629810634555,2045
1629810634559,2045
1629810634563,2045
1629810634567,2044
1629810634571,2044
1629810634575,2044
1629810634579,2044
1629810634583,2045
1629810634587,2045
1629810634591,2046
1629810634595,2046
1629810634599,2045
1629810634603,2045
1629810634607,2044
1629810634611,2045
1629810634615,2045
1629810634619,2045
1629810634623,2046
1629810634627,2046
1629810634631,2046
1629810634635,2046
1629810634639,2046
1629810634643,2046
1629810634647,2045
1629810634651,2045
1629810634655,2045
1629810634659,2044
1629810634663,2045
1629810634667,2045
1629810634671,2046
1629810634675,2046
1629810634679,2046
1629810634683,2046
1629810634687,2045
1629810634691,2045
1629810634695,2045
1629810634699,2045
1629810634703,2045
1629810634707,2046
1629810634711,2046
1629810634715,2046
1629810634719,2046
1629810634723,2046
1629810634727,2045
1629810634731,2045
1629810634735,2046
1629810634739,2046
1629810634743,2047
1629810634747,2047
1629810634751,2046
1629810634755,2046
1629810634759,2046
1629810634763,2046
1629810634767,2048
1629810634771,2049
1629810634775,2051
1629810634779,2052
1629810634783,2052
1629810634787,2051
1629810634791,2050
1629810634795,2049
1629810634799,2049
1629810634803,2049
1629810634807,2049
1629810634811,2048
1629810634815,2048
1629810634819,2047
1629810634823,2046
1629810634827,2046
1629810634831,2045
1629810634835,2045
1629810634839,2045
1629810634843,2045
1629810634847,2044
1629810634851,2044
1629810634855,2044
1629810634859,2043
1629810634863,2043
1629810634867,2044
1629810634871,2044
1629810634875,2045
1629810634879,2045
1629810634883,2044
1629810634887,2044
1629810634891,2044
1629810634895,2045
1629810634899,2045
1629810634903,2045
1629810634907,2044
1629810634911,2044
1629810634915,2048
1629810634919,2056
1629810634923,2067
1629810634927,2077
1629810634931,2087
1629810634935,2100
1629810634939,2114
1629810634943,2125
1629810634947,2123
1629810634951,2105
1629810634955,2072
1629810634959,2037
1629810634963,2013
1629810634967,2008
1629810634971,2018
1629810634975,2035
1629810634979,2048
1629810634983,2052
1629810634987,2050
1629810634991,2049
1629810634995,2048
1629810634999,2048
1629810635003,2048
1629810635007,2048
1629810635011,2049
1629810635015,2050
1629810635019,2050
1629810635023,2051
1629810635027,2051
1629810635031,2052
1629810635035,2052
1629810635039,2052
1629810635043,2052
1629810635047,2052
1629810635051,2052
1629810635055,2053
1629810635059,2053
1629810635063,2054
1629810635067,2054
1629810635071,2055
1629810635075,2056
1629810635079,2056
1629810635083,2056
1629810635087,2056
1629810635091,2057
1629810635095,2057
1629810635099,2058
1629810635103,2060
1629810635107,2061
1629810635111,2062
1629810635115,2063
1629810635119,2064
1629810635123,2064
1629810635127,2065
1629810635131,2066
1629810635135,2068
1629810635139,2070
1629810635143,2072
1629810635147,2074
1629810635151,2076
1629810635155,2078
1629810635159,2079
1629810635163,2081
1629810635167,2083
1629810635171,2085
1629810635175,2087
1629810635179,2089
1629810635183,2091
1629810635187,2093
1629810635191,2095
1629810635195,2097
1629810635199,2098
1629810635203,2099
1629810635207,2099
1629810635211,2099
1629810635215,2099
1629810635219,2098
1629810635223,2096
1629810635227,2093
1629810635231,2090
1629810635235,2086
1629810635239,2081
1629810635243,2077
1629810635247,2071
1629810635251,2067
1629810635255,2063
1629810635259,2060
1629810635263,2057
1629810635267,2054
1629810635271,2052
1629810635275,2050
1629810635279,2048
1629810635283,2047
1629810635287,2045
1629810635291,2044
1629810635295,2043
1629810635299,2043
1629810635303,2044
1629810635307,2043
1629810635311,2044
1629810635315,2043
1629810635319,2043
1629810635323,2043
1629810635327,2043
1629810635331,2042
1629810635335,2043
1629810635339,2043
1629810635343,2043
1629810635347,2043
1629810635351,2043
1629810635355,2043
1629810635359,2043
1629810635363,2043
1629810635367,2043
1629810635371,2043
1629810635375,2043
1629810635379,2043
1629810635383,2043
1629810635387,2043
1629810635391,2043
1629810635395,2044
1629810635399,2044
1629810635403,2044
1629810635407,2043
1629810635411,2043
1629810635415,2043
1629810635419,2043
1629810635423,2044
1629810635427,2045
1629810635431,2045
1629810635435,2045
1629810635439,2045
1629810635443,2045
1629810635447,2044
1629810635451,2044
1629810635455,2044
1629810635459,2044
1629810635463,2045
1629810635467,2045
1629810635471,2045
1629810635475,2045
1629810635479,2045
1629810635483,2045
1629810635487,2044
1629810635491,2044
1629810635495,2043
1629810635499,2043
1629810635503,2044
1629810635507,2044
1629810635511,2044
1629810635515,2044
1629810635519,2044
1629810635523,2043
1629810635527,2043
1629810635531,2043
1629810635535,2043
1629810635539,2043
1629810635543,2043
1629810635547,2043
1629810635551,2044
1629810635555,2044
1629810635559,2044
1629810635563,2044
1629810635567,2043
1629810635571,2043
1629810635575,2043
1629810635579,2043
1629810635583,2043
1629810635587,2043
1629810635591,2044
1629810635595,2044
1629810635599,2044
1629810635603,2044
1629810635607,2043
1629810635611,2043
1629810635615,2043
1629810635619,2043
1629810635623,2044
1629810635627,2044
1629810635631,2044
1629810635635,2044
1629810635639,2044
1629810635643,2044
1629810635647,2043
1629810635651,2043
1629810635655,2043
1629810635659,2043
1629810635663,2044
1629810635667,2044
1629810635671,2044
1629810635675,2045
1629810635679,2045
1629810635683,2045
1629810635687,2044
1629810635691,2044
1629810635695,2044
1629810635699,2044
1629810635703,2045
1629810635707,2045
1629810635711,2045
1629810635715,2045
1629810635719,2045
1629810635723,2045
1629810635727,2044
1629810635731,2044
1629810635735,2045
1629810635739,2045
1629810635743,2045
1629810635747,2045
1629810635751,2046
1629810635755,2046
1629810635759,2046
1629810635763,2046
1629810635767,2045
1629810635771,2045
1629810635775,2045
1629810635779,2045
1629810635783,2045
1629810635787,2045
1629810635791,2045
1629810635795,2045
1629810635799,2046
1629810635803,2048
1629810635807,2049
1629810635811,2051
1629810635815,2051
1629810635819,2051
1629810635823,2050
1629810635827,2049
1629810635831,2049
1629810635835,2048
1629810635839,2048
1629810635843,2048
1629810635847,2048
1629810635851,2046
1629810635855,2045
1629810635859,2044
1629810635863,2044
1629810635867,2043
1629810635871,2044
1629810635875,2044
1629810635879,2044
1629810635883,2044
1629810635887,2043
1629810635891,2043
1629810635895,2043
1629810635899,2042
1629810635903,2043
1629810635907,2043
1629810635911,2043
1629810635915,2043
1629810635919,2043
1629810635923,2043
1629810635927,2043
1629810635931,2044
1629810635935,2043
1629810635939,2042
1629810635943,2042
1629810635947,2043
1629810635951,2048
1629810635955,2057
1629810635959,2068
1629810635963,2077
1629810635967,2088
1629810635971,2101
1629810635975,2114
1629810635979,2120
1629810635983,2112
1629810635987,2088
1629810635991,2053
1629810635995,2023
1629810635999,2007
1629810636003,2009
1629810636007,2023
1629810636011,2039
1629810636015,2048
1629810636019,2048
1629810636023,2047
1629810636027,2046
1629810636031,2046
1629810636035,2046
1629810636039,2047
1629810636043,2047
1629810636047,2047
1629810636051,2048
1629810636055,2048
1629810636059,2048
1629810636063,2048
1629810636067,2048
1629810636071,2048
1629810636075,2049
1629810636079,2049
1629810636083,2049
1629810636087,2049
1629810636091,2049
1629810636095,2050
1629810636099,2050
1629810636103,2051
1629810636107,2052
1629810636111,2052
1629810636115,2052
1629810636119,2052
1629810636123,2053
1629810636127,2053
1629810636131,2054
1629810636135,2055
1629810636139,2056
1629810636143,2058
1629810636147,2059
1629810636151,2059
1629810636155,2060
1629810636159,2061
1629810636163,2062
1629810636167,2063
1629810636171,2064
1629810636175,2066
1629810636179,2067
1629810636183,2069
1629810636187,2071
1629810636191,2073
1629810636195,2075
1629810636199,2077
1629810636203,2079
1629810636207,2080
1629810636211,2082
1629810636215,2084
1629810636219,2086
1629810636223,2089
1629810636227,2090
1629810636231,2092
1629810636235,2093
1629810636239,2094
1629810636243,2094
1629810636247,2094
1629810636251,2094
1629810636255,2092
1629810636259,2090
1629810636263,2087
1629810636267,2083
1629810636271,2079
1629810636275,2075
1629810636279,2070
1629810636283,2066
1629810636287,2061
1629810636291,2057
1629810636295,2053
1629810636299,2050
1629810636303,2048
1629810636307,2046
1629810636311,2045
1629810636315,2043
1629810636319,2042
1629810636323,2041
1629810636327,2039
1629810636331,2038
1629810636335,2038
1629810636339,2037
1629810636343,2037
1629810636347,2037
1629810636351,2037
1629810636355,2037
1629810636359,2037
1629810636363,2036
1629810636367,2036
1629810636371,2036
1629810636375,2036
1629810636379,2037
1629810636383,2037
1629810636387,2038
1629810636391,2038
1629810636395,2038
1629810636399,2038
1629810636403,2037
1629810636407,2037
1629810636411,2037
1629810636415,2037
1629810636419,2037
1629810636423,2037
1629810636427,2038
1629810636431,2038
1629810636435,2038
1629810636439,2038
1629810636443,2038
1629810636447,2038
1629810636451,2037
1629810636455,2037
1629810636459,2038
1629810636463,2038
1629810636467,2038
1629810636471,2039
1629810636475,2039
1629810636479,2039
1629810636483,2039
1629810636487,2039
1629810636491,2039
1629810636495,2038
1629810636499,2038
1629810636503,2039
1629810636507,2040
1629810636511,2040
1629810636515,2040
1629810636519,2039
1629810636523,2039
1629810636527,2038
1629810636531,2038
1629810636535,2038
1629810636539,2038
1629810636543,2038
1629810636547,2038
1629810636551,2038
1629810636555,2039
1629810636559,2039
1629810636563,2039
1629810636567,2038
1629810636571,2038
1629810636575,2038
1629810636579,2037
1629810636583,2038
1629810636587,2038
1629810636591,2039
1629810636595,2039
1629810636599,2039
1629810636603,2038
1629810636607,2038
1629810636611,2038
1629810636615,2038
1629810636619,2039
1629810636623,2039
1629810636627,2039
1629810636631,2039
1629810636635,2039
1629810636639,2039
1629810636643,2038
1629810636647,2038
1629810636651,2038
1629810636655,2038
1629810636659,2038
1629810636663,2039
1629810636667,2039
1629810636671,2040
1629810636675,2040
1629810636679,2040
1629810636683,2040
1629810636687,2039
1629810636691,2039
1629810636695,2039
1629810636699,2039
1629810636703,2040
1629810636707,2040
1629810636711,2041
1629810636715,2041
1629810636719,2040
1629810636723,2041
1629810636727,2040
1629810636731,2040
1629810636735,2041
1629810636739,2041
1629810636743,2041
1629810636747,2042
1629810636751,2042
1629810636755,2042
1629810636759,2042
1629810636763,2041
1629810636767,2041
1629810636771,2042
1629810636775,2042
1629810636779,2042
1629810636783,2043
1629810636787,2042
1629810636791,2042
1629810636795,2042
1629810636799,2042
1629810636803,2042
1629810636807,2041
1629810636811,2042
1629810636815,2044
1629810636819,2047
1629810636823,2048
1629810636827,2050
1629810636831,2049
1629810636835,2048
1629810636839,2048
1629810636843,2047
1629810636847,2046
1629810636851,2046
1629810636855,2045
1629810636859,2045
1629810636863,2044
1629810636867,2043
1629810636871,2042
1629810636875,2041
1629810636879,2041
1629810636883,2041
1629810636887,2041
1629810636891,2042
1629810636895,2042
1629810636899,2041
1629810636903,2041
1629810636907,2041
1629810636911,2042
1629810636915,2042
1629810636919,2042
1629810636923,2042
1629810636927,2041
1629810636931,2042
1629810636935,2042
1629810636939,2043
1629810636943,2044
1629810636947,2044
1629810636951,2043
1629810636955,2042
1629810636959,2043
1629810636963,2048
1629810636967,2057
1629810636971,2069
1629810636975,2080
1629810636979,2094
1629810636983,2110
1629810636987,2125
1629810636991,2132
1629810636995,2124
1629810636999,2098
1629810637003,2061
1629810637007,2026
1629810637011,2007
1629810637015,2006
1629810637019,2020
1629810637023,2037
1629810637027,2048
1629810637031,2050
1629810637035,2049
1629810637039,2048
1629810637043,2047
1629810637047,2047
1629810637051,2047
1629810637055,2047
1629810637059,2048
1629810637063,2048
1629810637067,2048
1629810637071,2049
1629810637075,2049
1629810637079,2050
1629810637083,2050
1629810637087,2051
1629810637091,2051
1629810637095,2051
1629810637099,2051
1629810637103,2052
1629810637107,2053
1629810637111,2054
1629810637115,2055
1629810637119,2054
1629810637123,2054
1629810637127,2054
1629810637131,2055
1629810637135,2056
1629810637139,2057
1629810637143,2058
1629810637147,2059
1629810637151,2060
1629810637155,2061
1629810637159,2061
1629810637163,2062
1629810637167,2063
1629810637171,2064
1629810637175,2065
1629810637179,2066
1629810637183,2068
1629810637187,2070
1629810637191,2071
1629810637195,2073
1629810637199,2075
1629810637203,2077
1629810637207,2078
1629810637211,2081
1629810637215,2083
1629810637219,2084
1629810637223,2087
1629810637227,2089
1629810637231,2091
1629810637235,2092
1629810637239,2094
1629810637243,2095
1629810637247,2096
1629810637251,2097
1629810637255,2099
1629810637259,2099
1629810637263,2099
1629810637267,2098
1629810637271,2096
1629810637275,2093
1629810637279,2090
1629810637283,2086
1629810637287,2082
1629810637291,2077
1629810637295,2072
1629810637299,2068
1629810637303,2064
1629810637307,2060
1629810637311,2057
1629810637315,2054
1629810637319,2052
1629810637323,2050
1629810637327,2048
1629810637331,2047
1629810637335,2046
1629810637339,2045
1629810637343,2045
1629810637347,2045
1629810637351,2044
1629810637355,2044
1629810637359,2043
1629810637363,2043
1629810637367,2043
1629810637371,2043
1629810637375,2043
1629810637379,2043
1629810637383,2043
1629810637387,2043
1629810637391,2043
1629810637395,2044
1629810637399,2044
1629810637403,2044
1629810637407,2044
1629810637411,2044
1629810637415,2044
1629810637419,2044
1629810637423,2045
1629810637427,2045
1629810637431,2046
1629810637435,2046
1629810637439,2045
1629810637443,2045
1629810637447,2045
1629810637451,2045
1629810637455,2046
1629810637459,2047
1629810637463,2047
1629810637467,2047
1629810637471,2048
1629810637475,2048
1629810637479,2048
1629810637483,2048
1629810637487,2048
1629810637491,2047
1629810637495,2047
1629810637499,2046
1629810637503,2047
1629810637507,2047
1629810637511,2048
1629810637515,2048
1629810637519,2048
1629810637523,2047
1629810637527,2047
1629810637531,2047
1629810637535,2048
1629810637539,2048
1629810637543,2048
1629810637547,2048
1629810637551,2048
1629810637555,2048
1629810637559,2047
1629810637563,2047
1629810637567,2047
1629810637571,2047
1629810637575,2047
1629810637579,2047
1629810637583,2047
1629810637587,2047
1629810637591,2048
1629810637595,2048
1629810637599,2048
1629810637603,2047
1629810637607,2047
1629810637611,2046
1629810637615,2046
1629810637619,2047
1629810637623,2047
1629810637627,2048
1629810637631,2048
1629810637635,2047
1629810637639,2047
1629810637643,2047
1629810637647,2046
1629810637651,2046
1629810637655,2046
1629810637659,2046
1629810637663,2047
1629810637667,2048
1629810637671,2048
1629810637675,2048
1629810637679,2048
1629810637683,2048
1629810637687,2047
1629810637691,2047
1629810637695,2048
1629810637699,2048
1629810637703,2048
1629810637707,2049
1629810637711,2050
1629810637715,2050
1629810637719,2050
1629810637723,2049
1629810637727,2048
1629810637731,2048
1629810637735,2048
1629810637739,2051
1629810637743,2054
1629810637747,2056
1629810637751,2057
1629810637755,2057
1629810637759,2055
1629810637763,2054
1629810637767,2053
1629810637771,2053
1629810637775,2053
1629810637779,2053
1629810637783,2052
1629810637787,2051
1629810637791,2049
1629810637795,2048
1629810637799,2048
1629810637803,2047
1629810637807,2047
1629810637811,2047
1629810637815,2048
1629810637819,2048
1629810637823,2048
1629810637827,2048
1629810637831,2048
1629810637835,2048
1629810637839,2048
1629810637843,2048
1629810637847,2047
1629810637851,2048
1629810637855,2048
1629810637859,2048
1629810637863,2048
1629810637867,2049
1629810637871,2049
1629810637875,2048
1629810637879,2048
1629810637883,2047
1629810637887,2048
1629810637891,2056
1629810637895,2069
1629810637899,2081
1629810637903,2094
1629810637907,2110
1629810637911,2127
1629810637915,2139
1629810637919,2140
1629810637923,2122
1629810637927,2087
1629810637931,2048
1629810637935,2019
1629810637939,2009
1629810637943,2017
1629810637947,2033
1629810637951,2048
1629810637955,2053
1629810637959,2052
1629810637963,2050
1629810637967,2050
1629810637971,2050
1629810637975,2050
1629810637979,2051
1629810637983,2052
1629810637987,2052
1629810637991,2052
1629810637995,2052
1629810637999,2053
1629810638003,2053
1629810638007,2053
1629810638011,2054
1629810638015,2054
1629810638019,2055
1629810638023,2055
1629810638027,2055
1629810638031,2056
1629810638035,2056
1629810638039,2056
1629810638043,2056
1629810638047,2056
1629810638051,2057
1629810638055,2057
1629810638059,2057
1629810638063,2059
1629810638067,2060
1629810638071,2061
1629810638075,2061
1629810638079,2062
1629810638083,2062
1629810638087,2063
1629810638091,2064
1629810638095,2065
1629810638099,2066
1629810638103,2068
1629810638107,2069
1629810638111,2071
1629810638115,2072
1629810638119,2073
1629810638123,2074
1629810638127,2075
1629810638131,2077
1629810638135,2079
1629810638139,2082
1629810638143,2085
1629810638147,2088
1629810638151,2090
1629810638155,2091
1629810638159,2092
1629810638163,2093
1629810638167,2094
1629810638171,2096
1629810638175,2097
1629810638179,2098
1629810638183,2099
1629810638187,2098
1629810638191,2097
1629810638195,2095
1629810638199,2092
1629810638203,2089
1629810638207,2084
1629810638211,2080
1629810638215,2075
1629810638219,2071
1629810638223,2067
1629810638227,2063
1629810638231,2060
1629810638235,2056
1629810638239,2053
1629810638243,2050
1629810638247,2048
1629810638251,2046
1629810638255,2045
1629810638259,2044
1629810638263,2044
1629810638267,2043
1629810638271,2043
1629810638275,2043
1629810638279,2042
1629810638283,2042
1629810638287,2041
1629810638291,2041
1629810638295,2041
1629810638299,2041
1629810638303,2042
1629810638307,2042
1629810638311,2042
1629810638315,2042
1629810638319,2042
1629810638323,2042
1629810638327,2041
1629810638331,2041
1629810638335,2041
1629810638339,2042
1629810638343,2042
1629810638347,2042
1629810638351,2043
1629810638355,2043
1629810638359,2044
1629810638363,2044
1629810638367,2043
1629810638371,2043
1629810638375,2043
1629810638379,2043
1629810638383,2043
1629810638387,2044
1629810638391,2044
1629810638395,2045
1629810638399,2045
1629810638403,2045
1629810638407,2045
1629810638411,2044
1629810638415,2044
1629810638419,2044
1629810638423,2045
1629810638427,2045
1629810638431,2046
1629810638435,2046
1629810638439,2045
1629810638443,2044
1629810638447,2044
1629810638451,2044
1629810638455,2044
1629810638459,2044
1629810638463,2045
1629810638467,2045
1629810638471,2045
1629810638475,2045
1629810638479,2045
1629810638483,2045
1629810638487,2045
1629810638491,2045
1629810638495,2044
1629810638499,2044
1629810638503,2045
1629810638507,2045
1629810638511,2045
1629810638515,2045
1629810638519,2045
1629810638523,2045
1629810638527,2044
1629810638531,2044
1629810638535,2045
1629810638539,2045
1629810638543,2045
1629810638547,2046
1629810638551,2046
1629810638555,2047
1629810638559,2046
1629810638563,2046
1629810638567,2045
1629810638571,2045
1629810638575,2045
1629810638579,2045
1629810638583,2046
1629810638587,2046
1629810638591,2046
1629810638595,2047
1629810638599,2047
1629810638603,2047
1629810638607,2046
1629810638611,2046
1629810638615,2046
1629810638619,2047
1629810638623,2047
1629810638627,2047
1629810638631,2048
1629810638635,2047
1629810638639,2047
1629810638643,2047
1629810638647,2047
1629810638651,2047
1629810638655,2047
1629810638659,2048
1629810638663,2048
1629810638667,2048
1629810638671,2048
1629810638675,2048
1629810638679,2048
1629810638683,2048
1629810638687,2048
1629810638691,2048
1629810638695,2048
1629810638699,2049
1629810638703,2052
1629810638707,2054
1629810638711,2055
1629810638715,2055
1629810638719,2054
1629810638723,2052
1629810638727,2051
1629810638731,2050
1629810638735,2051
1629810638739,2051
1629810638743,2051
1629810638747,2050
1629810638751,2049
1629810638755,2048
1629810638759,2048
1629810638763,2047
1629810638767,2046
1629810638771,2046
1629810638775,2046
1629810638779,2046
1629810638783,2046
1629810638787,2046
1629810638791,2047
1629810638795,2047
1629810638799,2047
1629810638803,2047
1629810638807,2047
1629810638811,2047
1629810638815,2047
1629810638819,2047
1629810638823,2047
1629810638827,2048
1629810638831,2048
1629810638835,2048
1629810638839,2046
1629810638843,2046
1629810638847,2048
1629810638851,2054
1629810638855,2066
1629810638859,2077
1629810638863,2088
1629810638867,2101
1629810638871,2117
1629810638875,2129
1629810638879,2131
1629810638883,2116
1629810638887,2085
1629810638891,2048
1629810638895,2020
1629810638899,2009
1629810638903,2017
1629810638907,2033
1629810638911,2048
1629810638915,2054
1629810638919,2053
1629810638923,2051
1629810638927,2049
1629810638931,2049
1629810638935,2049
1629810638939,2050
1629810638943,2051
1629810638947,2052
1629810638951,2053
1629810638955,2054
1629810638959,2054
1629810638963,2054
1629810638967,2053
1629810638971,2053
1629810638975,2053
1629810638979,2053
1629810638983,2054
1629810638987,2055
1629810638991,2056
1629810638995,2057
1629810638999,2057
1629810639003,2057
1629810639007,2058
1629810639011,2058
1629810639015,2059
1629810639019,2059
1629810639023,2060
1629810639027,2061
1629810639031,2062
1629810639035,2063
1629810639039,2064
1629810639043,2065
1629810639047,2065
1629810639051,2066
1629810639055,2067
1629810639059,2068
1629810639063,2070
1629810639067,2071
1629810639071,2073
1629810639075,2075
1629810639079,2076
1629810639083,2077
1629810639087,2078
1629810639091,2080
1629810639095,2082
1629810639099,2085
1629810639103,2088
1629810639107,2091
1629810639111,2093
1629810639115,2095
1629810639119,2096
1629810639123,2097
1629810639127,2097
1629810639131,2098
1629810639135,2100
1629810639139,2101
1629810639143,2102
1629810639147,2102
1629810639151,2101
1629810639155,2100
1629810639159,2097
1629810639163,2093
1629810639167,2089
1629810639171,2085
1629810639175,2080
1629810639179,2076
1629810639183,2072
1629810639187,2067
1629810639191,2064
1629810639195,2061
1629810639199,2058
1629810639203,2055
1629810639207,2053
1629810639211,2051
1629810639215,2049
1629810639219,2048
1629810639223,2048
1629810639227,2048
1629810639231,2048
1629810639235,2048
1629810639239,2047
1629810639243,2047
1629810639247,2046
1629810639251,2046
1629810639255,2046
1629810639259,2046
1629810639263,2046
1629810639267,2046
1629810639271,2046
1629810639275,2046
1629810639279,2047
1629810639283,2047
1629810639287,2046
1629810639291,2046
1629810639295,2046
1629810639299,2047
1629810639303,2047
1629810639307,2048
1629810639311,2048
1629810639315,2048
1629810639319,2048
1629810639323,2048
1629810639327,2047
1629810639331,2048
1629810639335,2048
1629810639339,2048
1629810639343,2048
1629810639347,2048
1629810639351,2048
1629810639355,2048
1629810639359,2048
1629810639363,2048
1629810639367,2048
1629810639371,2049
1629810639375,2049
1629810639379,2049
1629810639383,2049
1629810639387,2049
1629810639391,2049
1629810639395,2049
1629810639399,2049
1629810639403,2049
1629810639407,2048
1629810639411,2048
1629810639415,2048
1629810639419,2048
1629810639423,2049
1629810639427,2049
1629810639431,2049
1629810639435,2048
1629810639439,2048
1629810639443,2048
1629810639447,2048
1629810639451,2048
1629810639455,2048
1629810639459,2048
1629810639463,2048
1629810639467,2048
1629810639471,2048
1629810639475,2048
1629810639479,2048
1629810639483,2048
1629810639487,2048
1629810639491,2048
1629810639495,2048
1629810639499,2048
1629810639503,2048
1629810639507,2048
1629810639511,2049
1629810639515,2049
1629810639519,2049
1629810639523,2049
1629810639527,2048
1629810639531,2048
1629810639535,2048
1629810639539,2048
1629810639543,2049
1629810639547,2049
1629810639551,2049
1629810639555,2049
1629810639559,2049
1629810639563,2050
1629810639567,2049
1629810639571,2049
1629810639575,2049
1629810639579,2049
1629810639583,2050
1629810639587,2050
1629810639591,2051
1629810639595,2051
1629810639599,2051
1629810639603,2051
1629810639607,2050
1629810639611,2049
1629810639615,2049
1629810639619,2049
1629810639623,2050
1629810639627,2050
1629810639631,2051
1629810639635,2052
1629810639639,2051
1629810639643,2051
1629810639647,2051
1629810639651,2050
1629810639655,2051
1629810639659,2051
1629810639663,2051
1629810639667,2051
1629810639671,2051
1629810639675,2051
1629810639679,2051
1629810639683,2051
1629810639687,2051
1629810639691,2051
1629810639695,2051
1629810639699,2051
1629810639703,2051
1629810639707,2051
1629810639711,2051
1629810639715,2053
1629810639719,2055
1629810639723,2058
1629810639727,2059
1629810639731,2059
1629810639735,2058
1629810639739,2056
1629810639743,2056
1629810639747,2056
1629810639751,2056
1629810639755,2057
1629810639759,2056
1629810639763,2055
1629810639767,2053
1629810639771,2051
1629810639775,2051
1629810639779,2050
1629810639783,2050
1629810639787,2050
1629810639791,2050
1629810639795,2050
1629810639799,2050
1629810639803,2049
1629810639807,2049
1629810639811,2049
1629810639815,2049
1629810639819,2049
1629810639823,2050
1629810639827,2050
1629810639831,2050
1629810639835,2050
1629810639839,2050
1629810639843,2051
1629810639847,2051
1629810639851,2050
1629810639855,2049
1629810639859,2048
1629810639863,2050
1629810639867,2057
1629810639871,2067
1629810639875,2077
1629810639879,2086
1629810639883,2097
1629810639887,2110
1629810639891,2122
1629810639895,2127
1629810639899,2118
1629810639903,2093
1629810639907,2058
1629810639911,2029
1629810639915,2015
1629810639919,2019
1629810639923,2033
1629810639927,2048
1629810639931,2055
1629810639935,2056
1629810639939,2054
1629810639943,2054
1629810639947,2054
1629810639951,2054
1629810639955,2054
1629810639959,2054
1629810639963,2055
1629810639967,2055
1629810639971,2055
1629810639975,2056
1629810639979,2056
1629810639983,2057
1629810639987,2057
1629810639991,2058
1629810639995,2058
1629810639999,2058
1629810640003,2058
1629810640007,2058
1629810640011,2058
1629810640015,2058
1629810640019,2059
1629810640023,2059
1629810640027,2060
1629810640031,2061
1629810640035,2061
1629810640039,2062
1629810640043,2063
1629810640047,2063
1629810640051,2064
1629810640055,2064
1629810640059,2065
1629810640063,2066
1629810640067,2068
1629810640071,2069
1629810640075,2070
1629810640079,2071
1629810640083,2072
1629810640087,2073
1629810640091,2074
1629810640095,2076
1629810640099,2078
1629810640103,2080
1629810640107,2083
1629810640111,2085
1629810640115,2087
1629810640119,2088
1629810640123,2090
1629810640127,2091
1629810640131,2093
1629810640135,2095
1629810640139,2097
1629810640143,2099
1629810640147,2101
1629810640151,2102
1629810640155,2103
1629810640159,2103
1629810640163,2104
1629810640167,2103
1629810640171,2102
1629810640175,2100
1629810640179,2097
1629810640183,2093
1629810640187,2089
1629810640191,2085
1629810640195,2080
1629810640199,2076
1629810640203,2072
1629810640207,2068
1629810640211,2064
1629810640215,2061
1629810640219,2058
1629810640223,2056
1629810640227,2055
1629810640231,2053
1629810640235,2052
1629810640239,2050
1629810640243,2049
1629810640247,2048
1629810640251,2048
1629810640255,2048
1629810640259,2048
1629810640263,2048
1629810640267,2048
1629810640271,2048
1629810640275,2048
1629810640279,2048
1629810640283,2048
1629810640287,2047
1629810640291,2047
1629810640295,2047
1629810640299,2047
1629810640303,2048
1629810640307,2048
1629810640311,2048
1629810640315,2048
1629810640319,2048
1629810640323,2048
1629810640327,2047
1629810640331,2047
1629810640335,2047
1629810640339,2047
1629810640343,2048
1629810640347,2048
1629810640351,2048
1629810640355,2048
1629810640359,2048
1629810640363,2048
1629810640367,2047
1629810640371,2047
1629810640375,2047
1629810640379,2048
1629810640383,2048
1629810640387,2048
1629810640391,2048
1629810640395,2048
1629810640399,2048
1629810640403,2048
1629810640407,2048
1629810640411,2047
1629810640415,2047
1629810640419,2048
1629810640423,2048
1629810640427,2048
1629810640431,2048
1629810640435,2048
1629810640439,2048
1629810640443,2048
1629810640447,2047
1629810640451,2047
1629810640455,2047
1629810640459,2047
1629810640463,2047
1629810640467,2047
1629810640471,2047
1629810640475,2047
1629810640479,2047
1629810640483,2047
1629810640487,2047
1629810640491,2047
1629810640495,2047
1629810640499,2047
1629810640503,2047
1629810640507,2048
1629810640511,2048
1629810640515,2048
1629810640519,2047
1629810640523,2047
1629810640527,2047
1629810640531,2047
1629810640535,2047
1629810640539,2048
1629810640543,2048
1629810640547,2048
1629810640551,2048
1629810640555,2048
1629810640559,2048
1629810640563,2048
1629810640567,2048
1629810640571,2048
1629810640575,2048
1629810640579,2048
1629810640583,2048
1629810640587,2048
1629810640591,2049
1629810640595,2049
1629810640599,2048
1629810640603,2048
1629810640607,2048
1629810640611,2048
1629810640615,2048
1629810640619,2048
1629810640623,2048
1629810640627,2048
1629810640631,2049
1629810640635,2049
1629810640639,2048
1629810640643,2048
1629810640647,2048
1629810640651,2048
1629810640655,2048
1629810640659,2048
1629810640663,2049
1629810640667,2049
1629810640671,2049
1629810640675,2049
1629810640679,2049
1629810640683,2049
1629810640687,2048
1629810640691,2048
1629810640695,2048
1629810640699,2048
1629810640703,2049
1629810640707,2049
1629810640711,2050
1629810640715,2050
1629810640719,2050
1629810640723,2050
1629810640727,2049
1629810640731,2049
1629810640735,2049
1629810640739,2050
1629810640743,2053
1629810640747,2055
1629810640751,2058
1629810640755,2058
1629810640759,2058
1629810640763,2056
1629810640767,2054
1629810640771,2053
1629810640775,2053
1629810640779,2053
1629810640783,2054
1629810640787,2054
1629810640791,2053
1629810640795,2052
1629810640799,2051
1629810640803,2050
1629810640807,2049
1629810640811,2048
1629810640815,2048
1629810640819,2048
1629810640823,2049
1629810640827,2049
1629810640831,2049
1629810640835,2049
1629810640839,2049
1629810640843,2049
1629810640847,2048
1629810640851,2048
1629810640855,2048
1629810640859,2049
1629810640863,2049
1629810640867,2050
1629810640871,2051
1629810640875,2051
1629810640879,2050
1629810640883,2048
1629810640887,2048
1629810640891,2052
1629810640895,2061
1629810640899,2072
1629810640903,2083
1629810640907,2093
1629810640911,2106
1629810640915,2119
1629810640919,2127
1629810640923,2122
1629810640927,2101
1629810640931,2068
1629810640935,2036
1629810640939,2017
1629810640943,2016
1629810640947,2028
1629810640951,2045
1629810640955,2055
1629810640959,2058
1629810640963,2055
1629810640967,2053
1629810640971,2053
1629810640975,2053
1629810640979,2053
1629810640983,2054
1629810640987,2055
1629810640991,2056
1629810640995,2056
1629810640999,2057
1629810641003,2057
1629810641007,2057
1629810641011,2057
1629810641015,2057
1629810641019,2057
1629810641023,2058
1629810641027,2058
1629810641031,2059
1629810641035,2059
1629810641039,2059
1629810641043,2059
1629810641047,2059
1629810641051,2060
1629810641055,2060
1629810641059,2061
1629810641063,2062
1629810641067,2063
1629810641071,2064
1629810641075,2064
1629810641079,2065
