timestamp,ecg_waveform
1629708999000,2040
1629708999004,2046
1629708999008,2068
1629708999012,2112
1629708999016,2168
1629708999020,2217
1629708999024,2237
1629708999028,2215
1629708999032,2157
1629708999036,2086
1629708999040,2028
1629708999044,1999
1629708999048,1998
1629708999052,2015
1629708999056,2034
1629708999060,2046
1629708999064,2049
1629708999068,2048
1629708999072,2047
1629708999076,2045
1629708999080,2044
1629708999084,2043
1629708999088,2042
1629708999092,2041
1629708999096,2042
1629708999100,2043
1629708999104,2044
1629708999108,2045
1629708999112,2046
1629708999116,2045
1629708999120,2044
1629708999124,2044
1629708999128,2044
1629708999132,2045
1629708999136,2046
1629708999140,2046
1629708999144,2046
1629708999148,2046
1629708999152,2047
1629708999156,2047
1629708999160,2048
1629708999164,2048
1629708999168,2048
1629708999172,2049
1629708999176,2050
1629708999180,2051
1629708999184,2053
1629708999188,2053
1629708999192,2053
1629708999196,2053
1629708999200,2052
1629708999204,2052
1629708999208,2054
1629708999212,2056
1629708999216,2058
1629708999220,2060
1629708999224,2061
1629708999228,2062
1629708999232,2062
1629708999236,2062
1629708999240,2063
1629708999244,2064
1629708999248,2066
1629708999252,2068
1629708999256,2070
1629708999260,2072
1629708999264,2074
1629708999268,2075
1629708999272,2077
1629708999276,2079
1629708999280,2081
1629708999284,2084
1629708999288,2085
1629708999292,2087
1629708999296,2088
1629708999300,2089
1629708999304,2090
1629708999308,2091
1629708999312,2092
1629708999316,2093
1629708999320,2092
1629708999324,2092
1629708999328,2090
1629708999332,2088
1629708999336,2086
1629708999340,2083
1629708999344,2079
1629708999348,2075
1629708999352,2070
1629708999356,2065
1629708999360,2059
1629708999364,2055
1629708999368,2051
1629708999372,2048
1629708999376,2046
1629708999380,2044
1629708999384,2042
1629708999388,2040
1629708999392,2039
1629708999396,2038
1629708999400,2037
1629708999404,2036
1629708999408,2036
1629708999412,2036
1629708999416,2036
1629708999420,2036
1629708999424,2037
1629708999428,2037
1629708999432,2037
1629708999436,2038
1629708999440,2038
1629708999444,2038
1629708999448,2038
1629708999452,2039
1629708999456,2040
1629708999460,2041
1629708999464,2042
1629708999468,2043
1629708999472,2043
1629708999476,2043
1629708999480,2042
1629708999484,2042
1629708999488,2042
1629708999492,2042
1629708999496,2043
1629708999500,2044
1629708999504,2044
1629708999508,2044
1629708999512,2044
1629708999516,2043
1629708999520,2043
1629708999524,2043
1629708999528,2043
1629708999532,2043
1629708999536,2044
1629708999540,2044
1629708999544,2044
1629708999548,2043
1629708999552,2043
1629708999556,2042
1629708999560,2042
1629708999564,2041
1629708999568,2041
1629708999572,2040
1629708999576,2040
1629708999580,2041
1629708999584,2041
1629708999588,2040
1629708999592,2040
1629708999596,2040
1629708999600,2040
1629708999604,2040
1629708999608,2041
1629708999612,2041
1629708999616,2041
1629708999620,2040
1629708999624,2040
1629708999628,2040
1629708999632,2039
1629708999636,2039
1629708999640,2039
1629708999644,2038
1629708999648,2038
1629708999652,2038
1629708999656,2038
1629708999660,2039
1629708999664,2039
1629708999668,2040
1629708999672,2040
1629708999676,2039
1629708999680,2039
1629708999684,2039
1629708999688,2039
1629708999692,2039
1629708999696,2040
1629708999700,2040
1629708999704,2041
1629708999708,2041
1629708999712,2041
1629708999716,2040
1629708999720,2040
1629708999724,2040
1629708999728,2040
1629708999732,2041
1629708999736,2042
1629708999740,2042
1629708999744,2043
1629708999748,2043
1629708999752,2043
1629708999756,2043
1629708999760,2043
1629708999764,2043
1629708999768,2043
1629708999772,2044
1629708999776,2044
1629708999780,2045
1629708999784,2045
1629708999788,2045
1629708999792,2045
1629708999796,2044
1629708999800,2044
1629708999804,2044
1629708999808,2044
1629708999812,2045
1629708999816,2045
1629708999820,2046
1629708999824,2046
1629708999828,2046
1629708999832,2046
1629708999836,2046
1629708999840,2046
1629708999844,2046
1629708999848,2046
1629708999852,2047
1629708999856,2047
1629708999860,2047
1629708999864,2047
1629708999868,2046
1629708999872,2045
1629708999876,2045
1629708999880,2044
1629708999884,2044
1629708999888,2045
1629708999892,2047
1629708999896,2049
1629708999900,2053
1629708999904,2057
1629708999908,2060
1629708999912,2060
1629708999916,2058
1629708999920,2055
1629708999924,2051
1629708999928,2049
1629708999932,2048
1629708999936,2048
1629708999940,2048
1629708999944,2049
1629708999948,2049
1629708999952,2049
1629708999956,2049
1629708999960,2050
1629708999964,2050
1629708999968,2049
1629708999972,2048
1629708999976,2044
1629708999980,2042
1629708999984,2048
1629708999988,2072
1629708999992,2117
1629708999996,2177
1629709000000,2232
1629709000004,2260
1629709000008,2247
1629709000012,2196
1629709000016,2127
1629709000020,2067
1629709000024,2032
1629709000028,2025
1629709000032,2034
1629709000036,2046
1629709000040,2052
1629709000044,2052
1629709000048,2050
1629709000052,2048
1629709000056,2047
1629709000060,2046
1629709000064,2046
1629709000068,2046
1629709000072,2046
1629709000076,2046
1629709000080,2046
1629709000084,2046
1629709000088,2046
1629709000092,2046
1629709000096,2047
1629709000100,2048
1629709000104,2048
1629709000108,2048
1629709000112,2048
1629709000116,2047
1629709000120,2047
1629709000124,2047
1629709000128,2048
1629709000132,2048
1629709000136,2049
1629709000140,2049
1629709000144,2050
1629709000148,2051
1629709000152,2051
1629709000156,2051
1629709000160,2051
1629709000164,2051
1629709000168,2052
1629709000172,2052
1629709000176,2053
1629709000180,2054
1629709000184,2055
1629709000188,2056
1629709000192,2057
1629709000196,2058
1629709000200,2058
1629709000204,2059
1629709000208,2060
1629709000212,2061
1629709000216,2063
1629709000220,2065
1629709000224,2067
1629709000228,2068
1629709000232,2069
1629709000236,2070
1629709000240,2071
1629709000244,2073
1629709000248,2075
1629709000252,2077
1629709000256,2079
1629709000260,2081
1629709000264,2083
1629709000268,2085
1629709000272,2086
1629709000276,2087
1629709000280,2087
1629709000284,2088
1629709000288,2089
1629709000292,2089
1629709000296,2090
1629709000300,2090
1629709000304,2089
1629709000308,2088
1629709000312,2086
1629709000316,2083
1629709000320,2079
1629709000324,2075
1629709000328,2070
1629709000332,2066
1629709000336,2063
1629709000340,2060
1629709000344,2057
1629709000348,2055
1629709000352,2052
1629709000356,2049
1629709000360,2048
1629709000364,2046
1629709000368,2045
1629709000372,2044
1629709000376,2044
1629709000380,2044
1629709000384,2043
1629709000388,2043
1629709000392,2043
1629709000396,2043
1629709000400,2043
1629709000404,2042
1629709000408,2042
1629709000412,2043
1629709000416,2043
1629709000420,2044
1629709000424,2044
1629709000428,2045
1629709000432,2045
1629709000436,2045
1629709000440,2046
1629709000444,2046
1629709000448,2046
1629709000452,2046
1629709000456,2047
1629709000460,2048
1629709000464,2048
1629709000468,2048
1629709000472,2048
1629709000476,2048
1629709000480,2048
1629709000484,2048
1629709000488,2048
1629709000492,2047
1629709000496,2048
1629709000500,2048
1629709000504,2048
1629709000508,2048
1629709000512,2048
1629709000516,2048
1629709000520,2047
1629709000524,2046
1629709000528,2046
1629709000532,2046
1629709000536,2046
1629709000540,2047
1629709000544,2047
1629709000548,2047
1629709000552,2046
1629709000556,2046
1629709000560,2046
1629709000564,2045
1629709000568,2045
1629709000572,2045
1629709000576,2046
1629709000580,2046
1629709000584,2047
1629709000588,2047
1629709000592,2047
1629709000596,2046
1629709000600,2046
1629709000604,2045
1629709000608,2045
1629709000612,2045
1629709000616,2046
1629709000620,2046
1629709000624,2047
1629709000628,2047
1629709000632,2046
1629709000636,2046
1629709000640,2046
1629709000644,2046
1629709000648,2046
1629709000652,2046
1629709000656,2046
1629709000660,2047
1629709000664,2047
1629709000668,2048
1629709000672,2048
1629709000676,2047
1629709000680,2047
1629709000684,2047
1629709000688,2047
1629709000692,2047
1629709000696,2047
1629709000700,2048
1629709000704,2048
1629709000708,2048
1629709000712,2048
1629709000716,2048
1629709000720,2048
1629709000724,2047
1629709000728,2048
1629709000732,2048
1629709000736,2048
1629709000740,2048
1629709000744,2048
1629709000748,2048
1629709000752,2048
1629709000756,2048
1629709000760,2048
1629709000764,2048
1629709000768,2048
1629709000772,2048
1629709000776,2048
1629709000780,2048
1629709000784,2049
1629709000788,2049
1629709000792,2049
1629709000796,2048
1629709000800,2048
1629709000804,2048
1629709000808,2048
1629709000812,2048
1629709000816,2048
1629709000820,2048
1629709000824,2048
1629709000828,2049
1629709000832,2048
1629709000836,2048
1629709000840,2048
1629709000844,2048
1629709000848,2048
1629709000852,2048
1629709000856,2049
1629709000860,2049
1629709000864,2050
1629709000868,2050
1629709000872,2049
1629709000876,2048
1629709000880,2048
1629709000884,2047
1629709000888,2047
1629709000892,2047
1629709000896,2048
1629709000900,2049
1629709000904,2050
1629709000908,2052
1629709000912,2055
1629709000916,2058
1629709000920,2060
1629709000924,2061
1629709000928,2061
1629709000932,2058
1629709000936,2056
1629709000940,2053
1629709000944,2052
1629709000948,2051
1629709000952,2051
1629709000956,2050
1629709000960,2050
1629709000964,2050
1629709000968,2050
1629709000972,2051
1629709000976,2052
1629709000980,2052
1629709000984,2051
1629709000988,2048
1629709000992,2045
1629709000996,2044
1629709001000,2055
1629709001004,2086
1629709001008,2138
1629709001012,2197
1629709001016,2243
1629709001020,2256
1629709001024,2227
1629709001028,2168
1629709001032,2102
1629709001036,2052
1629709001040,2030
1629709001044,2031
1629709001048,2042
1629709001052,2050
1629709001056,2054
1629709001060,2052
1629709001064,2050
1629709001068,2048
1629709001072,2047
1629709001076,2047
1629709001080,2046
1629709001084,2046
1629709001088,2046
1629709001092,2046
1629709001096,2046
1629709001100,2047
1629709001104,2047
1629709001108,2048
1629709001112,2047
1629709001116,2047
1629709001120,2047
1629709001124,2046
1629709001128,2047
1629709001132,2047
1629709001136,2048
1629709001140,2048
1629709001144,2049
1629709001148,2049
1629709001152,2050
1629709001156,2050
1629709001160,2050
1629709001164,2050
1629709001168,2050
1629709001172,2051
1629709001176,2051
1629709001180,2052
1629709001184,2053
1629709001188,2053
1629709001192,2054
1629709001196,2054
1629709001200,2055
1629709001204,2055
1629709001208,2056
1629709001212,2057
1629709001216,2059
1629709001220,2060
1629709001224,2062
1629709001228,2063
1629709001232,2064
1629709001236,2065
1629709001240,2065
1629709001244,2066
1629709001248,2068
1629709001252,2069
1629709001256,2071
1629709001260,2073
1629709001264,2075
1629709001268,2077
1629709001272,2078
1629709001276,2080
1629709001280,2080
1629709001284,2082
1629709001288,2083
1629709001292,2084
1629709001296,2085
1629709001300,2086
1629709001304,2087
1629709001308,2087
1629709001312,2087
1629709001316,2086
1629709001320,2085
1629709001324,2083
1629709001328,2081
1629709001332,2079
1629709001336,2076
1629709001340,2072
1629709001344,2068
1629709001348,2065
1629709001352,2061
1629709001356,2057
1629709001360,2054
1629709001364,2051
1629709001368,2049
1629709001372,2048
1629709001376,2046
1629709001380,2045
1629709001384,2045
1629709001388,2044
1629709001392,2043
1629709001396,2043
1629709001400,2042
1629709001404,2041
1629709001408,2041
1629709001412,2041
1629709001416,2041
1629709001420,2042
1629709001424,2042
1629709001428,2043
1629709001432,2043
1629709001436,2043
1629709001440,2043
1629709001444,2043
1629709001448,2043
1629709001452,2044
1629709001456,2044
1629709001460,2045
1629709001464,2046
1629709001468,2046
1629709001472,2047
1629709001476,2047
1629709001480,2046
1629709001484,2046
1629709001488,2046
1629709001492,2046
1629709001496,2046
1629709001500,2046
1629709001504,2047
1629709001508,2047
1629709001512,2046
1629709001516,2046
1629709001520,2046
1629709001524,2045
1629709001528,2045
1629709001532,2045
1629709001536,2045
1629709001540,2045
1629709001544,2046
1629709001548,2046
1629709001552,2046
1629709001556,2045
1629709001560,2044
1629709001564,2044
1629709001568,2044
1629709001572,2043
1629709001576,2044
1629709001580,2044
1629709001584,2044
1629709001588,2044
1629709001592,2044
1629709001596,2044
1629709001600,2044
1629709001604,2043
1629709001608,2043
1629709001612,2043
1629709001616,2044
1629709001620,2044
1629709001624,2045
1629709001628,2044
1629709001632,2044
1629709001636,2043
1629709001640,2043
1629709001644,2043
1629709001648,2043
1629709001652,2044
1629709001656,2045
1629709001660,2045
1629709001664,2045
1629709001668,2045
1629709001672,2045
1629709001676,2044
1629709001680,2044
1629709001684,2044
1629709001688,2044
1629709001692,2045
1629709001696,2046
1629709001700,2047
1629709001704,2047
1629709001708,2046
1629709001712,2046
1629709001716,2045
1629709001720,2045
1629709001724,2045
1629709001728,2045
1629709001732,2045
1629709001736,2046
1629709001740,2046
1629709001744,2047
1629709001748,2047
1629709001752,2048
1629709001756,2048
1629709001760,2048
1629709001764,2047
1629709001768,2047
1629709001772,2047
1629709001776,2047
1629709001780,2047
1629709001784,2048
1629709001788,2048
1629709001792,2048
1629709001796,2049
1629709001800,2049
1629709001804,2048
1629709001808,2048
1629709001812,2048
1629709001816,2048
1629709001820,2048
1629709001824,2048
1629709001828,2048
1629709001832,2048
1629709001836,2048
1629709001840,2048
1629709001844,2049
1629709001848,2049
1629709001852,2049
1629709001856,2049
1629709001860,2050
1629709001864,2050
1629709001868,2051
1629709001872,2050
1629709001876,2050
1629709001880,2049
1629709001884,2048
1629709001888,2048
1629709001892,2048
1629709001896,2048
1629709001900,2049
1629709001904,2050
1629709001908,2051
1629709001912,2052
1629709001916,2053
1629709001920,2055
1629709001924,2058
1629709001928,2061
1629709001932,2063
1629709001936,2063
1629709001940,2061
1629709001944,2058
1629709001948,2056
1629709001952,2054
1629709001956,2053
1629709001960,2053
1629709001964,2053
1629709001968,2053
1629709001972,2053
1629709001976,2053
1629709001980,2053
1629709001984,2054
1629709001988,2054
1629709001992,2054
1629709001996,2052
1629709002000,2049
1629709002004,2048
1629709002008,2054
1629709002012,2077
1629709002016,2122
1629709002020,2177
1629709002024,2226
1629709002028,2247
1629709002032,2226
1629709002036,2170
1629709002040,2101
1629709002044,2044
1629709002048,2014
1629709002052,2013
1629709002056,2029
1629709002060,2046
1629709002064,2056
1629709002068,2058
1629709002072,2056
1629709002076,2053
1629709002080,2051
1629709002084,2050
1629709002088,2050
1629709002092,2050
1629709002096,2050
1629709002100,2050
1629709002104,2051
1629709002108,2051
1629709002112,2051
1629709002116,2050
1629709002120,2049
1629709002124,2049
1629709002128,2049
1629709002132,2051
1629709002136,2052
1629709002140,2054
1629709002144,2054
1629709002148,2054
1629709002152,2054
1629709002156,2053
1629709002160,2053
1629709002164,2053
1629709002168,2053
1629709002172,2053
1629709002176,2054
1629709002180,2055
1629709002184,2057
1629709002188,2058
1629709002192,2058
1629709002196,2057
1629709002200,2057
1629709002204,2057
1629709002208,2057
1629709002212,2058
1629709002216,2059
1629709002220,2060
1629709002224,2061
1629709002228,2061
1629709002232,2062
1629709002236,2063
1629709002240,2064
1629709002244,2065
1629709002248,2067
1629709002252,2069
1629709002256,2070
1629709002260,2071
1629709002264,2073
1629709002268,2074
1629709002272,2076
1629709002276,2078
1629709002280,2080
1629709002284,2082
1629709002288,2083
1629709002292,2084
1629709002296,2087
1629709002300,2089
1629709002304,2091
1629709002308,2093
1629709002312,2093
1629709002316,2093
1629709002320,2093
1629709002324,2092
1629709002328,2092
1629709002332,2090
1629709002336,2087
1629709002340,2085
1629709002344,2082
1629709002348,2079
1629709002352,2076
1629709002356,2071
1629709002360,2067
1629709002364,2061
1629709002368,2056
1629709002372,2053
1629709002376,2050
1629709002380,2048
1629709002384,2048
1629709002388,2046
1629709002392,2044
1629709002396,2041
1629709002400,2039
1629709002404,2037
1629709002408,2036
1629709002412,2036
1629709002416,2037
1629709002420,2039
1629709002424,2039
1629709002428,2040
1629709002432,2040
1629709002436,2040
1629709002440,2040
1629709002444,2040
1629709002448,2040
1629709002452,2041
1629709002456,2042
1629709002460,2043
1629709002464,2043
1629709002468,2043
1629709002472,2044
1629709002476,2044
1629709002480,2045
1629709002484,2045
1629709002488,2045
1629709002492,2045
1629709002496,2046
1629709002500,2046
1629709002504,2047
1629709002508,2046
1629709002512,2046
1629709002516,2045
1629709002520,2045
1629709002524,2046
1629709002528,2047
1629709002532,2047
1629709002536,2047
1629709002540,2046
1629709002544,2045
1629709002548,2045
1629709002552,2044
1629709002556,2044
1629709002560,2044
1629709002564,2044
1629709002568,2044
1629709002572,2044
1629709002576,2044
1629709002580,2043
1629709002584,2044
1629709002588,2044
1629709002592,2045
1629709002596,2045
1629709002600,2045
1629709002604,2044
1629709002608,2043
1629709002612,2042
1629709002616,2042
1629709002620,2043
1629709002624,2044
1629709002628,2045
1629709002632,2047
1629709002636,2047
1629709002640,2046
1629709002644,2045
1629709002648,2043
1629709002652,2042
1629709002656,2042
1629709002660,2043
1629709002664,2044
1629709002668,2046
1629709002672,2048
1629709002676,2048
1629709002680,2048
1629709002684,2046
1629709002688,2045
1629709002692,2044
1629709002696,2044
1629709002700,2046
1629709002704,2048
1629709002708,2048
1629709002712,2048
1629709002716,2046
1629709002720,2045
1629709002724,2046
1629709002728,2047
1629709002732,2048
1629709002736,2048
1629709002740,2048
1629709002744,2048
1629709002748,2048
1629709002752,2049
1629709002756,2050
1629709002760,2050
1629709002764,2049
1629709002768,2048
1629709002772,2047
1629709002776,2048
1629709002780,2048
1629709002784,2049
1629709002788,2048
1629709002792,2048
1629709002796,2047
1629709002800,2048
1629709002804,2049
1629709002808,2054
1629709002812,2059
1629709002816,2063
1629709002820,2066
1629709002824,2065
1629709002828,2061
1629709002832,2056
1629709002836,2052
1629709002840,2050
1629709002844,2050
1629709002848,2050
1629709002852,2049
1629709002856,2049
1629709002860,2048
1629709002864,2049
1629709002868,2052
1629709002872,2055
1629709002876,2056
1629709002880,2053
1629709002884,2048
1629709002888,2045
1629709002892,2048
1629709002896,2071
1629709002900,2113
1629709002904,2166
1629709002908,2210
1629709002912,2227
1629709002916,2206
1629709002920,2152
1629709002924,2085
1629709002928,2028
1629709002932,1996
1629709002936,1993
1629709002940,2010
1629709002944,2033
1629709002948,2049
1629709002952,2059
1629709002956,2061
1629709002960,2058
1629709002964,2053
1629709002968,2050
1629709002972,2049
1629709002976,2050
1629709002980,2053
1629709002984,2054
1629709002988,2056
1629709002992,2057
1629709002996,2056
1629709003000,2055
1629709003004,2054
1629709003008,2054
1629709003012,2054
1629709003016,2055
1629709003020,2057
1629709003024,2057
1629709003028,2057
1629709003032,2057
1629709003036,2056
1629709003040,2056
1629709003044,2056
1629709003048,2057
1629709003052,2059
1629709003056,2061
1629709003060,2062
1629709003064,2062
1629709003068,2062
1629709003072,2062
1629709003076,2063
1629709003080,2064
1629709003084,2066
1629709003088,2067
1629709003092,2068
1629709003096,2068
1629709003100,2069
1629709003104,2069
1629709003108,2069
1629709003112,2070
1629709003116,2072
1629709003120,2074
1629709003124,2077
1629709003128,2079
1629709003132,2081
1629709003136,2082
1629709003140,2082
1629709003144,2083
1629709003148,2084
1629709003152,2087
1629709003156,2089
1629709003160,2092
1629709003164,2092
1629709003168,2094
1629709003172,2097
1629709003176,2100
1629709003180,2103
1629709003184,2105
1629709003188,2105
1629709003192,2105
1629709003196,2104
1629709003200,2104
1629709003204,2104
1629709003208,2104
1629709003212,2103
1629709003216,2104
1629709003220,2103
1629709003224,2104
1629709003228,2102
1629709003232,2096
1629709003236,2090
1629709003240,2082
1629709003244,2075
1629709003248,2070
1629709003252,2066
1629709003256,2063
1629709003260,2061
1629709003264,2059
1629709003268,2059
1629709003272,2058
1629709003276,2057
1629709003280,2054
1629709003284,2053
1629709003288,2051
1629709003292,2050
1629709003296,2051
1629709003300,2051
1629709003304,2049
1629709003308,2049
1629709003312,2049
1629709003316,2050
1629709003320,2051
1629709003324,2052
1629709003328,2052
1629709003332,2052
1629709003336,2053
1629709003340,2055
1629709003344,2056
1629709003348,2057
1629709003352,2057
1629709003356,2056
1629709003360,2055
1629709003364,2054
1629709003368,2054
1629709003372,2054
1629709003376,2054
1629709003380,2056
1629709003384,2057
1629709003388,2057
1629709003392,2057
1629709003396,2057
1629709003400,2056
1629709003404,2056
1629709003408,2057
1629709003412,2057
1629709003416,2057
1629709003420,2057
1629709003424,2055
1629709003428,2055
1629709003432,2054
1629709003436,2054
1629709003440,2053
1629709003444,2052
1629709003448,2052
1629709003452,2053
1629709003456,2054
1629709003460,2055
1629709003464,2056
1629709003468,2055
1629709003472,2054
1629709003476,2054
1629709003480,2053
1629709003484,2052
1629709003488,2051
1629709003492,2050
1629709003496,2050
1629709003500,2051
1629709003504,2052
1629709003508,2053
1629709003512,2054
1629709003516,2053
1629709003520,2052
1629709003524,2052
1629709003528,2052
1629709003532,2053
1629709003536,2055
1629709003540,2055
1629709003544,2055
1629709003548,2053
1629709003552,2051
1629709003556,2050
1629709003560,2050
1629709003564,2051
1629709003568,2052
1629709003572,2053
1629709003576,2053
1629709003580,2053
1629709003584,2053
1629709003588,2054
1629709003592,2054
1629709003596,2054
1629709003600,2053
1629709003604,2052
1629709003608,2051
1629709003612,2050
1629709003616,2051
1629709003620,2051
1629709003624,2050
1629709003628,2050
1629709003632,2051
1629709003636,2053
1629709003640,2056
1629709003644,2060
1629709003648,2063
1629709003652,2064
1629709003656,2063
1629709003660,2060
1629709003664,2057
1629709003668,2055
1629709003672,2055
1629709003676,2054
1629709003680,2053
1629709003684,2052
1629709003688,2052
1629709003692,2052
1629709003696,2053
1629709003700,2055
1629709003704,2056
1629709003708,2055
1629709003712,2053
1629709003716,2050
1629709003720,2048
1629709003724,2050
1629709003728,2066
1629709003732,2100
1629709003736,2150
1629709003740,2200
1629709003744,2230
1629709003748,2225
1629709003752,2181
1629709003756,2117
1629709003760,2056
1629709003764,2019
1629709003768,2011
1629709003772,2023
1629709003776,2042
1629709003780,2054
1629709003784,2058
1629709003788,2056
1629709003792,2054
1629709003796,2051
1629709003800,2050
1629709003804,2051
1629709003808,2051
1629709003812,2051
1629709003816,2052
1629709003820,2051
1629709003824,2051
1629709003828,2051
1629709003832,2050
1629709003836,2050
1629709003840,2051
1629709003844,2051
1629709003848,2051
1629709003852,2051
1629709003856,2052
1629709003860,2053
1629709003864,2054
1629709003868,2054
1629709003872,2054
1629709003876,2054
1629709003880,2054
1629709003884,2054
1629709003888,2055
1629709003892,2055
1629709003896,2056
1629709003900,2057
1629709003904,2057
1629709003908,2058
1629709003912,2058
1629709003916,2058
1629709003920,2058
1629709003924,2058
1629709003928,2059
1629709003932,2061
1629709003936,2062
1629709003940,2064
1629709003944,2065
1629709003948,2066
1629709003952,2066
1629709003956,2066
1629709003960,2067
1629709003964,2067
1629709003968,2069
1629709003972,2070
1629709003976,2072
1629709003980,2074
1629709003984,2077
1629709003988,2078
1629709003992,2080
1629709003996,2081
1629709004000,2082
1629709004004,2084
1629709004008,2085
1629709004012,2086
1629709004016,2087
1629709004020,2088
1629709004024,2089
1629709004028,2090
1629709004032,2090
1629709004036,2089
1629709004040,2088
1629709004044,2087
1629709004048,2085
1629709004052,2082
1629709004056,2080
1629709004060,2076
1629709004064,2072
1629709004068,2068
1629709004072,2063
1629709004076,2059
1629709004080,2055
1629709004084,2052
1629709004088,2050
1629709004092,2048
1629709004096,2047
1629709004100,2046
1629709004104,2045
1629709004108,2043
1629709004112,2042
1629709004116,2041
1629709004120,2039
1629709004124,2039
1629709004128,2038
1629709004132,2039
1629709004136,2039
1629709004140,2040
1629709004144,2041
1629709004148,2042
1629709004152,2042
1629709004156,2042
1629709004160,2042
1629709004164,2042
1629709004168,2042
1629709004172,2042
1629709004176,2043
1629709004180,2043
1629709004184,2044
1629709004188,2045
1629709004192,2046
1629709004196,2046
1629709004200,2045
1629709004204,2044
1629709004208,2044
1629709004212,2045
1629709004216,2045
1629709004220,2046
1629709004224,2046
1629709004228,2046
1629709004232,2045
1629709004236,2045
1629709004240,2044
1629709004244,2044
1629709004248,2043
1629709004252,2043
1629709004256,2043
1629709004260,2043
1629709004264,2044
1629709004268,2044
1629709004272,2044
1629709004276,2044
1629709004280,2043
1629709004284,2043
1629709004288,2042
1629709004292,2042
1629709004296,2042
1629709004300,2042
1629709004304,2042
1629709004308,2042
1629709004312,2042
1629709004316,2042
1629709004320,2042
1629709004324,2042
1629709004328,2042
1629709004332,2042
1629709004336,2042
1629709004340,2042
1629709004344,2042
1629709004348,2042
1629709004352,2042
1629709004356,2042
1629709004360,2042
1629709004364,2041
1629709004368,2041
1629709004372,2041
1629709004376,2042
1629709004380,2043
1629709004384,2044
1629709004388,2044
1629709004392,2044
1629709004396,2043
1629709004400,2043
1629709004404,2042
1629709004408,2043
1629709004412,2043
1629709004416,2043
1629709004420,2044
1629709004424,2044
1629709004428,2044
1629709004432,2044
1629709004436,2043
1629709004440,2042
1629709004444,2041
1629709004448,2040
1629709004452,2040
1629709004456,2039
1629709004460,2039
1629709004464,2040
1629709004468,2041
1629709004472,2043
1629709004476,2046
1629709004480,2049
1629709004484,2052
1629709004488,2053
1629709004492,2053
1629709004496,2052
1629709004500,2050
1629709004504,2048
1629709004508,2047
1629709004512,2046
1629709004516,2045
1629709004520,2045
1629709004524,2045
1629709004528,2045
1629709004532,2045
1629709004536,2046
1629709004540,2047
1629709004544,2047
1629709004548,2047
1629709004552,2044
1629709004556,2041
1629709004560,2038
1629709004564,2041
1629709004568,2056
1629709004572,2093
1629709004576,2148
1629709004580,2207
1629709004584,2248
1629709004588,2252
1629709004592,2214
1629709004596,2149
1629709004600,2082
1629709004604,2037
1629709004608,2020
1629709004612,2025
1629709004616,2038
1629709004620,2048
1629709004624,2049
1629709004628,2047
1629709004632,2044
1629709004636,2042
1629709004640,2041
1629709004644,2040
1629709004648,2040
1629709004652,2040
1629709004656,2041
1629709004660,2041
1629709004664,2041
1629709004668,2041
1629709004672,2042
1629709004676,2042
1629709004680,2042
1629709004684,2042
1629709004688,2042
1629709004692,2042
1629709004696,2043
1629709004700,2043
1629709004704,2044
1629709004708,2044
1629709004712,2044
1629709004716,2044
1629709004720,2044
1629709004724,2044
1629709004728,2044
1629709004732,2045
1629709004736,2046
1629709004740,2046
1629709004744,2047
1629709004748,2047
1629709004752,2047
1629709004756,2048
1629709004760,2048
1629709004764,2048
1629709004768,2048
1629709004772,2049
1629709004776,2050
1629709004780,2052
1629709004784,2053
1629709004788,2054
1629709004792,2054
1629709004796,2055
1629709004800,2056
1629709004804,2057
1629709004808,2058
1629709004812,2059
1629709004816,2060
1629709004820,2062
1629709004824,2063
1629709004828,2065
1629709004832,2066
1629709004836,2068
1629709004840,2069
1629709004844,2070
1629709004848,2071
1629709004852,2073
1629709004856,2074
1629709004860,2075
1629709004864,2076
1629709004868,2077
1629709004872,2077
1629709004876,2076
1629709004880,2075
1629709004884,2074
1629709004888,2072
1629709004892,2071
1629709004896,2069
1629709004900,2066
1629709004904,2063
1629709004908,2060
1629709004912,2056
1629709004916,2053
1629709004920,2049
1629709004924,2047
1629709004928,2045
1629709004932,2043
1629709004936,2042
1629709004940,2041
1629709004944,2040
1629709004948,2040
1629709004952,2039
1629709004956,2039
1629709004960,2038
1629709004964,2038
1629709004968,2038
1629709004972,2038
1629709004976,2038
1629709004980,2038
1629709004984,2039
1629709004988,2039
1629709004992,2039
1629709004996,2039
1629709005000,2038
1629709005004,2038
1629709005008,2038
1629709005012,2038
1629709005016,2039
1629709005020,2039
1629709005024,2040
1629709005028,2040
1629709005032,2040
1629709005036,2040
1629709005040,2040
1629709005044,2040
1629709005048,2040
1629709005052,2040
1629709005056,2041
1629709005060,2042
1629709005064,2042
1629709005068,2042
1629709005072,2041
1629709005076,2041
1629709005080,2041
1629709005084,2040
1629709005088,2040
1629709005092,2040
1629709005096,2040
1629709005100,2041
1629709005104,2041
1629709005108,2041
1629709005112,2040
1629709005116,2040
1629709005120,2039
1629709005124,2038
1629709005128,2038
1629709005132,2039
1629709005136,2039
1629709005140,2040
1629709005144,2040
1629709005148,2040
1629709005152,2040
1629709005156,2039
1629709005160,2039
1629709005164,2039
1629709005168,2039
1629709005172,2039
1629709005176,2039
1629709005180,2040
1629709005184,2040
1629709005188,2040
1629709005192,2040
1629709005196,2039
1629709005200,2039
1629709005204,2039
1629709005208,2039
1629709005212,2039
1629709005216,2040
1629709005220,2040
1629709005224,2041
1629709005228,2041
1629709005232,2041
1629709005236,2041
1629709005240,2040
1629709005244,2040
1629709005248,2040
1629709005252,2040
1629709005256,2041
1629709005260,2041
1629709005264,2042
1629709005268,2041
1629709005272,2041
1629709005276,2041
1629709005280,2040
1629709005284,2041
1629709005288,2041
1629709005292,2041
1629709005296,2041
1629709005300,2041
1629709005304,2042
1629709005308,2042
1629709005312,2042
1629709005316,2042
1629709005320,2042
1629709005324,2042
1629709005328,2041
1629709005332,2041
1629709005336,2041
1629709005340,2041
1629709005344,2040
1629709005348,2040
1629709005352,2039
1629709005356,2038
1629709005360,2037
1629709005364,2037
1629709005368,2038
1629709005372,2041
1629709005376,2045
1629709005380,2048
1629709005384,2051
1629709005388,2054
1629709005392,2054
1629709005396,2052
1629709005400,2050
1629709005404,2048
1629709005408,2045
1629709005412,2044
1629709005416,2044
1629709005420,2044
1629709005424,2044
1629709005428,2044
1629709005432,2044
1629709005436,2043
1629709005440,2044
1629709005444,2045
1629709005448,2045
1629709005452,2043
1629709005456,2041
1629709005460,2038
1629709005464,2038
1629709005468,2048
1629709005472,2079
1629709005476,2132
1629709005480,2194
1629709005484,2245
1629709005488,2262
1629709005492,2234
1629709005496,2173
1629709005500,2103
1629709005504,2048
1629709005508,2023
1629709005512,2023
1629709005516,2034
1629709005520,2044
1629709005524,2047
1629709005528,2045
1629709005532,2043
1629709005536,2041
1629709005540,2040
1629709005544,2039
1629709005548,2039
1629709005552,2039
1629709005556,2038
1629709005560,2038
1629709005564,2038
1629709005568,2038
1629709005572,2038
1629709005576,2039
1629709005580,2039
1629709005584,2040
1629709005588,2040
1629709005592,2040
1629709005596,2040
1629709005600,2040
1629709005604,2040
1629709005608,2041
1629709005612,2041
1629709005616,2042
1629709005620,2042
1629709005624,2042
1629709005628,2043
1629709005632,2043
1629709005636,2043
1629709005640,2043
1629709005644,2043
1629709005648,2044
1629709005652,2044
1629709005656,2046
1629709005660,2047
1629709005664,2048
1629709005668,2048
1629709005672,2048
1629709005676,2049
1629709005680,2049
1629709005684,2050
1629709005688,2051
1629709005692,2052
1629709005696,2053
1629709005700,2055
1629709005704,2056
1629709005708,2058
1629709005712,2059
1629709005716,2060
1629709005720,2060
1629709005724,2062
1629709005728,2063
1629709005732,2065
1629709005736,2067
1629709005740,2069
1629709005744,2071
1629709005748,2072
1629709005752,2073
1629709005756,2073
1629709005760,2074
1629709005764,2075
1629709005768,2075
1629709005772,2076
1629709005776,2076
1629709005780,2076
1629709005784,2075
1629709005788,2074
1629709005792,2072
1629709005796,2069
1629709005800,2066
1629709005804,2062
1629709005808,2058
1629709005812,2055
1629709005816,2052
1629709005820,2049
1629709005824,2048
1629709005828,2045
1629709005832,2043
1629709005836,2041
1629709005840,2039
1629709005844,2038
1629709005848,2037
1629709005852,2036
1629709005856,2036
1629709005860,2036
1629709005864,2036
1629709005868,2036
1629709005872,2035
1629709005876,2035
1629709005880,2034
1629709005884,2034
1629709005888,2035
1629709005892,2035
1629709005896,2035
1629709005900,2036
1629709005904,2036
1629709005908,2037
1629709005912,2037
1629709005916,2037
1629709005920,2037
1629709005924,2036
1629709005928,2036
1629709005932,2036
1629709005936,2037
1629709005940,2037
1629709005944,2039
1629709005948,2039
1629709005952,2040
1629709005956,2040
1629709005960,2039
1629709005964,2039
1629709005968,2039
1629709005972,2039
1629709005976,2040
1629709005980,2040
1629709005984,2040
1629709005988,2040
1629709005992,2039
1629709005996,2039
1629709006000,2039
1629709006004,2038
1629709006008,2038
1629709006012,2038
1629709006016,2039
1629709006020,2039
1629709006024,2040
1629709006028,2040
1629709006032,2040
1629709006036,2040
1629709006040,2039
1629709006044,2039
1629709006048,2039
1629709006052,2039
1629709006056,2040
1629709006060,2040
1629709006064,2040
1629709006068,2040
1629709006072,2040
1629709006076,2041
1629709006080,2040
1629709006084,2040
1629709006088,2040
1629709006092,2040
1629709006096,2041
1629709006100,2041
1629709006104,2041
1629709006108,2041
1629709006112,2041
1629709006116,2040
1629709006120,2040
1629709006124,2040
1629709006128,2041
1629709006132,2042
1629709006136,2043
1629709006140,2043
1629709006144,2044
1629709006148,2043
1629709006152,2043
1629709006156,2043
1629709006160,2043
1629709006164,2043
1629709006168,2044
1629709006172,2044
1629709006176,2044
1629709006180,2045
1629709006184,2045
1629709006188,2046
1629709006192,2045
1629709006196,2045
1629709006200,2044
1629709006204,2044
1629709006208,2044
1629709006212,2044
1629709006216,2045
1629709006220,2045
1629709006224,2046
1629709006228,2046
1629709006232,2046
1629709006236,2045
1629709006240,2045
1629709006244,2045
1629709006248,2045
1629709006252,2045
1629709006256,2046
1629709006260,2046
1629709006264,2046
1629709006268,2047
1629709006272,2046
1629709006276,2046
1629709006280,2046
1629709006284,2046
1629709006288,2046
1629709006292,2046
1629709006296,2046
1629709006300,2047
1629709006304,2047
1629709006308,2047
1629709006312,2047
1629709006316,2047
1629709006320,2046
1629709006324,2046
1629709006328,2047
1629709006332,2047
1629709006336,2047
1629709006340,2048
1629709006344,2048
1629709006348,2048
1629709006352,2048
1629709006356,2047
1629709006360,2047
1629709006364,2047
1629709006368,2047
1629709006372,2046
1629709006376,2046
1629709006380,2045
1629709006384,2045
1629709006388,2046
1629709006392,2046
1629709006396,2047
1629709006400,2048
1629709006404,2050
1629709006408,2053
1629709006412,2057
1629709006416,2059
1629709006420,2060
1629709006424,2058
1629709006428,2055
1629709006432,2052
1629709006436,2050
1629709006440,2048
1629709006444,2048
1629709006448,2048
1629709006452,2048
1629709006456,2048
1629709006460,2048
1629709006464,2049
1629709006468,2050
1629709006472,2051
1629709006476,2050
1629709006480,2048
1629709006484,2045
1629709006488,2041
1629709006492,2043
1629709006496,2059
1629709006500,2096
1629709006504,2153
1629709006508,2214
1629709006512,2256
1629709006516,2260
1629709006520,2221
1629709006524,2155
1629709006528,2088
1629709006532,2042
1629709006536,2025
1629709006540,2030
1629709006544,2043
1629709006548,2051
1629709006552,2053
1629709006556,2050
1629709006560,2048
1629709006564,2045
1629709006568,2044
1629709006572,2043
1629709006576,2043
1629709006580,2044
1629709006584,2044
1629709006588,2044
1629709006592,2044
1629709006596,2044
1629709006600,2043
1629709006604,2043
1629709006608,2043
1629709006612,2044
1629709006616,2044
1629709006620,2045
1629709006624,2046
1629709006628,2046
1629709006632,2046
1629709006636,2046
1629709006640,2046
1629709006644,2046
1629709006648,2046
1629709006652,2047
1629709006656,2047
1629709006660,2048
1629709006664,2048
1629709006668,2049
1629709006672,2049
1629709006676,2050
1629709006680,2050
1629709006684,2050
1629709006688,2051
1629709006692,2052
1629709006696,2053
1629709006700,2054
1629709006704,2054
1629709006708,2055
1629709006712,2056
1629709006716,2057
1629709006720,2058
1629709006724,2059
1629709006728,2060
1629709006732,2061
1629709006736,2062
1629709006740,2063
1629709006744,2064
1629709006748,2065
1629709006752,2066
1629709006756,2067
1629709006760,2068
1629709006764,2070
1629709006768,2071
1629709006772,2072
1629709006776,2074
1629709006780,2075
1629709006784,2077
1629709006788,2078
1629709006792,2078
1629709006796,2079
1629709006800,2078
1629709006804,2078
1629709006808,2078
1629709006812,2077
1629709006816,2077
1629709006820,2076
1629709006824,2074
1629709006828,2072
1629709006832,2069
1629709006836,2065
1629709006840,2061
1629709006844,2057
1629709006848,2054
1629709006852,2050
1629709006856,2048
1629709006860,2047
1629709006864,2045
1629709006868,2044
1629709006872,2042
1629709006876,2041
1629709006880,2040
1629709006884,2039
1629709006888,2038
1629709006892,2038
1629709006896,2038
1629709006900,2038
1629709006904,2038
1629709006908,2038
1629709006912,2038
1629709006916,2038
1629709006920,2038
1629709006924,2038
1629709006928,2038
1629709006932,2039
1629709006936,2040
1629709006940,2040
1629709006944,2041
1629709006948,2041
1629709006952,2042
1629709006956,2042
1629709006960,2042
1629709006964,2042
1629709006968,2042
1629709006972,2043
1629709006976,2043
1629709006980,2044
1629709006984,2044
1629709006988,2044
1629709006992,2044
1629709006996,2043
1629709007000,2043
1629709007004,2043
1629709007008,2043
1629709007012,2043
1629709007016,2043
1629709007020,2043
1629709007024,2043
1629709007028,2043
1629709007032,2042
1629709007036,2042
1629709007040,2041
1629709007044,2041
1629709007048,2040
1629709007052,2040
1629709007056,2041
1629709007060,2041
1629709007064,2041
1629709007068,2042
1629709007072,2042
1629709007076,2042
1629709007080,2041
1629709007084,2040
1629709007088,2040
1629709007092,2040
1629709007096,2041
1629709007100,2042
1629709007104,2042
1629709007108,2042
1629709007112,2042
1629709007116,2041
1629709007120,2041
1629709007124,2040
1629709007128,2040
1629709007132,2041
1629709007136,2041
1629709007140,2042
1629709007144,2042
1629709007148,2042
1629709007152,2042
1629709007156,2042
1629709007160,2042
1629709007164,2042
1629709007168,2042
1629709007172,2042
1629709007176,2042
1629709007180,2043
1629709007184,2043
1629709007188,2043
1629709007192,2043
1629709007196,2043
1629709007200,2043
1629709007204,2042
1629709007208,2042
1629709007212,2042
1629709007216,2043
1629709007220,2043
1629709007224,2044
1629709007228,2044
1629709007232,2044
1629709007236,2044
1629709007240,2044
1629709007244,2044
1629709007248,2044
1629709007252,2044
1629709007256,2044
1629709007260,2045
1629709007264,2045
1629709007268,2045
1629709007272,2045
1629709007276,2045
1629709007280,2044
1629709007284,2044
1629709007288,2045
1629709007292,2045
1629709007296,2045
1629709007300,2046
1629709007304,2046
1629709007308,2046
1629709007312,2046
1629709007316,2046
1629709007320,2046
1629709007324,2046
1629709007328,2046
1629709007332,2046
1629709007336,2046
1629709007340,2047
1629709007344,2047
1629709007348,2047
1629709007352,2047
1629709007356,2047
1629709007360,2047
1629709007364,2046
1629709007368,2047
1629709007372,2047
1629709007376,2047
1629709007380,2047
1629709007384,2048
1629709007388,2048
1629709007392,2048
1629709007396,2048
1629709007400,2047
1629709007404,2046
1629709007408,2046
1629709007412,2046
1629709007416,2047
1629709007420,2047
1629709007424,2048
1629709007428,2048
1629709007432,2048
1629709007436,2048
1629709007440,2047
1629709007444,2046
1629709007448,2045
1629709007452,2044
1629709007456,2044
1629709007460,2045
1629709007464,2046
1629709007468,2048
1629709007472,2049
1629709007476,2051
1629709007480,2055
1629709007484,2058
1629709007488,2059
1629709007492,2059
1629709007496,2057
1629709007500,2055
1629709007504,2052
1629709007508,2050
1629709007512,2049
1629709007516,2049
1629709007520,2049
1629709007524,2048
1629709007528,2048
1629709007532,2048
1629709007536,2049
1629709007540,2050
1629709007544,2051
1629709007548,2051
1629709007552,2049
1629709007556,2046
1629709007560,2042
1629709007564,2045
1629709007568,2064
1629709007572,2105
1629709007576,2163
1629709007580,2220
1629709007584,2252
1629709007588,2245
1629709007592,2199
1629709007596,2133
1629709007600,2071
1629709007604,2034
1629709007608,2023
1629709007612,2031
1629709007616,2043
1629709007620,2051
1629709007624,2052
1629709007628,2050
1629709007632,2048
1629709007636,2046
1629709007640,2045
1629709007644,2044
1629709007648,2044
1629709007652,2044
1629709007656,2045
1629709007660,2045
1629709007664,2046
1629709007668,2046
1629709007672,2045
1629709007676,2045
1629709007680,2045
1629709007684,2045
1629709007688,2045
1629709007692,2046
1629709007696,2046
1629709007700,2047
1629709007704,2047
1629709007708,2048
1629709007712,2048
1629709007716,2048
1629709007720,2048
1629709007724,2048
1629709007728,2048
1629709007732,2049
1629709007736,2049
1629709007740,2050
1629709007744,2051
1629709007748,2052
1629709007752,2053
1629709007756,2053
1629709007760,2054
1629709007764,2054
1629709007768,2054
1629709007772,2055
1629709007776,2056
1629709007780,2057
1629709007784,2059
1629709007788,2060
1629709007792,2061
1629709007796,2061
1629709007800,2062
1629709007804,2063
1629709007808,2064
1629709007812,2065
1629709007816,2067
1629709007820,2069
1629709007824,2071
1629709007828,2072
1629709007832,2073
1629709007836,2075
1629709007840,2076
1629709007844,2077
1629709007848,2078
1629709007852,2079
1629709007856,2081
1629709007860,2082
1629709007864,2083
1629709007868,2084
1629709007872,2084
1629709007876,2084
1629709007880,2083
1629709007884,2082
1629709007888,2081
1629709007892,2080
1629709007896,2078
1629709007900,2075
1629709007904,2073
1629709007908,2069
1629709007912,2066
1629709007916,2062
1629709007920,2058
1629709007924,2054
1629709007928,2051
1629709007932,2048
1629709007936,2047
1629709007940,2046
1629709007944,2045
1629709007948,2043
1629709007952,2042
1629709007956,2041
1629709007960,2040
1629709007964,2039
1629709007968,2039
1629709007972,2039
1629709007976,2039
1629709007980,2040
1629709007984,2040
1629709007988,2041
1629709007992,2041
1629709007996,2041
1629709008000,2041
1629709008004,2042
1629709008008,2042
1629709008012,2043
1629709008016,2044
1629709008020,2044
1629709008024,2045
1629709008028,2046
1629709008032,2046
1629709008036,2046
1629709008040,2045
1629709008044,2045
1629709008048,2045
1629709008052,2045
1629709008056,2046
1629709008060,2046
1629709008064,2046
1629709008068,2046
1629709008072,2046
1629709008076,2045
1629709008080,2044
1629709008084,2044
1629709008088,2044
1629709008092,2044
1629709008096,2044
1629709008100,2045
1629709008104,2044
1629709008108,2044
1629709008112,2043
1629709008116,2043
1629709008120,2042
1629709008124,2042
1629709008128,2042
1629709008132,2042
1629709008136,2043
1629709008140,2043
1629709008144,2043
1629709008148,2043
1629709008152,2043
1629709008156,2042
1629709008160,2042
1629709008164,2042
1629709008168,2042
1629709008172,2042
1629709008176,2042
1629709008180,2043
1629709008184,2043
1629709008188,2043
1629709008192,2043
1629709008196,2042
1629709008200,2042
1629709008204,2042
1629709008208,2042
1629709008212,2042
1629709008216,2043
1629709008220,2043
1629709008224,2043
1629709008228,2044
1629709008232,2043
1629709008236,2043
1629709008240,2042
1629709008244,2042
1629709008248,2042
1629709008252,2042
1629709008256,2043
1629709008260,2043
1629709008264,2044
1629709008268,2044
1629709008272,2044
1629709008276,2043
1629709008280,2043
1629709008284,2043
1629709008288,2043
1629709008292,2043
1629709008296,2044
1629709008300,2044
1629709008304,2044
1629709008308,2045
1629709008312,2045
1629709008316,2045
1629709008320,2044
1629709008324,2044
1629709008328,2044
1629709008332,2045
1629709008336,2045
1629709008340,2045
1629709008344,2046
1629709008348,2046
1629709008352,2046
1629709008356,2046
1629709008360,2045
1629709008364,2045
1629709008368,2045
1629709008372,2045
1629709008376,2046
1629709008380,2046
1629709008384,2046
1629709008388,2046
1629709008392,2046
1629709008396,2046
1629709008400,2046
1629709008404,2046
1629709008408,2046
1629709008412,2046
1629709008416,2046
1629709008420,2046
1629709008424,2047
1629709008428,2047
1629709008432,2047
1629709008436,2047
1629709008440,2046
1629709008444,2046
1629709008448,2046
1629709008452,2046
1629709008456,2046
1629709008460,2047
1629709008464,2047
1629709008468,2047
1629709008472,2048
1629709008476,2048
1629709008480,2047
1629709008484,2046
1629709008488,2045
1629709008492,2045
1629709008496,2045
1629709008500,2045
1629709008504,2046
1629709008508,2047
1629709008512,2048
1629709008516,2049
1629709008520,2052
1629709008524,2055
1629709008528,2059
1629709008532,2060
1629709008536,2060
1629709008540,2058
1629709008544,2055
1629709008548,2052
1629709008552,2050
1629709008556,2049
1629709008560,2049
1629709008564,2048
1629709008568,2048
1629709008572,2048
1629709008576,2049
1629709008580,2050
1629709008584,2051
1629709008588,2051
1629709008592,2050
1629709008596,2048
1629709008600,2043
1629709008604,2041
1629709008608,2049
1629709008612,2076
1629709008616,2123
1629709008620,2182
1629709008624,2232
1629709008628,2251
1629709008632,2229
1629709008636,2173
1629709008640,2106
1629709008644,2051
1629709008648,2024
1629709008652,2022
1629709008656,2034
1629709008660,2046
1629709008664,2052
1629709008668,2051
1629709008672,2049
1629709008676,2047
1629709008680,2046
1629709008684,2045
1629709008688,2045
1629709008692,2045
1629709008696,2045
1629709008700,2046
1629709008704,2046
1629709008708,2046
1629709008712,2046
1629709008716,2046
1629709008720,2045
1629709008724,2045
1629709008728,2046
1629709008732,2046
1629709008736,2046
1629709008740,2047
1629709008744,2048
1629709008748,2048
1629709008752,2048
1629709008756,2048
1629709008760,2048
1629709008764,2048
1629709008768,2048
1629709008772,2048
1629709008776,2049
1629709008780,2050
1629709008784,2051
1629709008788,2052
1629709008792,2053
1629709008796,2053
1629709008800,2054
1629709008804,2054
1629709008808,2055
1629709008812,2055
1629709008816,2056
1629709008820,2057
1629709008824,2058
1629709008828,2059
1629709008832,2060
1629709008836,2061
1629709008840,2062
1629709008844,2063
1629709008848,2064
1629709008852,2065
1629709008856,2067
1629709008860,2069
1629709008864,2071
1629709008868,2072
1629709008872,2074
1629709008876,2075
1629709008880,2076
1629709008884,2078
1629709008888,2079
1629709008892,2081
1629709008896,2082
1629709008900,2083
1629709008904,2084
1629709008908,2085
1629709008912,2085
1629709008916,2085
1629709008920,2084
1629709008924,2084
1629709008928,2083
1629709008932,2082
1629709008936,2081
1629709008940,2079
1629709008944,2076
1629709008948,2072
1629709008952,2069
1629709008956,2065
1629709008960,2061
1629709008964,2058
1629709008968,2054
1629709008972,2052
1629709008976,2049
1629709008980,2048
1629709008984,2047
1629709008988,2045
1629709008992,2043
1629709008996,2042
1629709009000,2040
1629709009004,2040
1629709009008,2040
1629709009012,2040
1629709009016,2041
1629709009020,2041
1629709009024,2042
1629709009028,2042
1629709009032,2042
1629709009036,2043
1629709009040,2043
1629709009044,2044
1629709009048,2045
1629709009052,2045
1629709009056,2046
1629709009060,2046
1629709009064,2047
1629709009068,2047
1629709009072,2047
1629709009076,2047
1629709009080,2047
1629709009084,2047
1629709009088,2047
1629709009092,2048
1629709009096,2048
1629709009100,2048
1629709009104,2049
1629709009108,2048
1629709009112,2048
1629709009116,2048
1629709009120,2047
1629709009124,2046
1629709009128,2047
1629709009132,2047
1629709009136,2047
1629709009140,2048
1629709009144,2048
1629709009148,2047
1629709009152,2047
1629709009156,2046
1629709009160,2045
1629709009164,2045
1629709009168,2045
1629709009172,2045
1629709009176,2045
1629709009180,2046
1629709009184,2046
1629709009188,2045
1629709009192,2045
1629709009196,2044
1629709009200,2044
1629709009204,2044
1629709009208,2043
1629709009212,2044
1629709009216,2044
1629709009220,2045
1629709009224,2045
1629709009228,2045
1629709009232,2045
1629709009236,2045
1629709009240,2044
1629709009244,2044
1629709009248,2044
1629709009252,2044
1629709009256,2044
1629709009260,2045
1629709009264,2045
1629709009268,2046
1629709009272,2046
1629709009276,2045
1629709009280,2045
1629709009284,2045
1629709009288,2045
1629709009292,2045
1629709009296,2045
1629709009300,2045
1629709009304,2046
1629709009308,2046
1629709009312,2046
1629709009316,2046
1629709009320,2046
1629709009324,2046
1629709009328,2046
1629709009332,2046
1629709009336,2046
1629709009340,2047
1629709009344,2047
1629709009348,2047
1629709009352,2047
1629709009356,2046
1629709009360,2046
1629709009364,2046
1629709009368,2046
1629709009372,2046
1629709009376,2046
1629709009380,2046
1629709009384,2047
1629709009388,2047
1629709009392,2047
1629709009396,2047
1629709009400,2046
1629709009404,2046
1629709009408,2046
1629709009412,2047
1629709009416,2047
1629709009420,2047
1629709009424,2048
1629709009428,2048
1629709009432,2048
1629709009436,2047
1629709009440,2047
1629709009444,2047
1629709009448,2047
1629709009452,2047
1629709009456,2048
1629709009460,2048
1629709009464,2048
1629709009468,2048
1629709009472,2048
1629709009476,2048
1629709009480,2048
1629709009484,2047
1629709009488,2047
1629709009492,2047
1629709009496,2047
1629709009500,2048
1629709009504,2048
1629709009508,2047
1629709009512,2047
1629709009516,2046
1629709009520,2046
1629709009524,2046
1629709009528,2046
1629709009532,2048
1629709009536,2048
1629709009540,2051
1629709009544,2055
1629709009548,2059
1629709009552,2061
1629709009556,2061
1629709009560,2059
1629709009564,2056
1629709009568,2052
1629709009572,2050
1629709009576,2049
1629709009580,2049
1629709009584,2049
1629709009588,2049
1629709009592,2049
1629709009596,2049
1629709009600,2049
1629709009604,2050
1629709009608,2050
1629709009612,2049
1629709009616,2048
1629709009620,2045
1629709009624,2043
1629709009628,2048
1629709009632,2070
1629709009636,2114
1629709009640,2170
1629709009644,2222
1629709009648,2248
1629709009652,2234
1629709009656,2185
1629709009660,2120
1629709009664,2063
1629709009668,2031
1629709009672,2023
1629709009676,2033
1629709009680,2044
1629709009684,2051
1629709009688,2052
1629709009692,2050
1629709009696,2048
1629709009700,2047
1629709009704,2047
1629709009708,2046
1629709009712,2046
1629709009716,2046
1629709009720,2046
1629709009724,2045
1629709009728,2045
1629709009732,2046
1629709009736,2046
1629709009740,2047
1629709009744,2047
1629709009748,2047
1629709009752,2047
1629709009756,2047
1629709009760,2047
1629709009764,2047
1629709009768,2048
1629709009772,2048
1629709009776,2048
1629709009780,2049
1629709009784,2050
1629709009788,2050
1629709009792,2051
1629709009796,2051
1629709009800,2051
1629709009804,2051
1629709009808,2051
1629709009812,2052
1629709009816,2053
1629709009820,2054
1629709009824,2055
1629709009828,2056
1629709009832,2057
1629709009836,2057
1629709009840,2058
1629709009844,2058
1629709009848,2059
1629709009852,2060
1629709009856,2062
1629709009860,2063
1629709009864,2064
1629709009868,2066
1629709009872,2067
1629709009876,2068
1629709009880,2069
1629709009884,2070
1629709009888,2072
1629709009892,2074
1629709009896,2075
1629709009900,2077
1629709009904,2079
1629709009908,2081
1629709009912,2082
1629709009916,2082
1629709009920,2083
1629709009924,2084
1629709009928,2084
1629709009932,2085
1629709009936,2085
1629709009940,2086
1629709009944,2086
1629709009948,2085
1629709009952,2084
1629709009956,2082
1629709009960,2079
1629709009964,2076
1629709009968,2072
1629709009972,2069
1629709009976,2066
1629709009980,2063
1629709009984,2060
1629709009988,2057
1629709009992,2053
1629709009996,2050
1629709010000,2048
1629709010004,2047
1629709010008,2045
1629709010012,2044
1629709010016,2044
1629709010020,2044
1629709010024,2043
1629709010028,2043
1629709010032,2042
1629709010036,2041
1629709010040,2041
1629709010044,2040
1629709010048,2041
1629709010052,2042
1629709010056,2043
1629709010060,2045
1629709010064,2046
1629709010068,2046
1629709010072,2046
1629709010076,2046
1629709010080,2046
1629709010084,2045
1629709010088,2046
1629709010092,2046
1629709010096,2047
1629709010100,2047
1629709010104,2048
1629709010108,2048
1629709010112,2048
1629709010116,2048
1629709010120,2048
1629709010124,2048
1629709010128,2048
1629709010132,2048
1629709010136,2048
1629709010140,2048
1629709010144,2048
1629709010148,2047
1629709010152,2047
1629709010156,2047
1629709010160,2046
1629709010164,2046
1629709010168,2046
1629709010172,2046
1629709010176,2047
1629709010180,2047
1629709010184,2047
1629709010188,2047
1629709010192,2047
1629709010196,2046
1629709010200,2046
1629709010204,2045
1629709010208,2045
1629709010212,2044
1629709010216,2045
1629709010220,2045
1629709010224,2045
1629709010228,2046
1629709010232,2046
1629709010236,2046
1629709010240,2045
1629709010244,2045
1629709010248,2044
1629709010252,2044
1629709010256,2045
1629709010260,2045
1629709010264,2046
1629709010268,2046
1629709010272,2045
1629709010276,2045
1629709010280,2045
1629709010284,2045
1629709010288,2045
1629709010292,2046
1629709010296,2047
1629709010300,2047
1629709010304,2047
1629709010308,2046
1629709010312,2045
1629709010316,2044
1629709010320,2044
1629709010324,2045
1629709010328,2045
1629709010332,2046
1629709010336,2047
1629709010340,2047
1629709010344,2047
1629709010348,2047
1629709010352,2046
1629709010356,2046
1629709010360,2045
1629709010364,2045
1629709010368,2045
1629709010372,2045
1629709010376,2045
1629709010380,2046
1629709010384,2047
1629709010388,2048
1629709010392,2048
1629709010396,2048
1629709010400,2047
1629709010404,2047
1629709010408,2046
1629709010412,2046
1629709010416,2046
1629709010420,2047
1629709010424,2047
1629709010428,2048
1629709010432,2048
1629709010436,2048
1629709010440,2048
1629709010444,2048
1629709010448,2047
1629709010452,2046
1629709010456,2047
1629709010460,2048
1629709010464,2048
1629709010468,2048
1629709010472,2048
1629709010476,2047
1629709010480,2047
1629709010484,2047
1629709010488,2048
1629709010492,2048
1629709010496,2048
1629709010500,2048
1629709010504,2047
1629709010508,2048
1629709010512,2048
1629709010516,2048
1629709010520,2047
1629709010524,2047
1629709010528,2047
1629709010532,2047
1629709010536,2048
1629709010540,2048
1629709010544,2050
1629709010548,2053
1629709010552,2056
1629709010556,2059
1629709010560,2060
1629709010564,2060
1629709010568,2057
1629709010572,2054
1629709010576,2052
1629709010580,2050
1629709010584,2049
1629709010588,2049
1629709010592,2048
1629709010596,2048
1629709010600,2048
1629709010604,2048
1629709010608,2048
1629709010612,2049
1629709010616,2050
1629709010620,2049
1629709010624,2048
1629709010628,2045
1629709010632,2045
1629709010636,2057
1629709010640,2090
1629709010644,2139
1629709010648,2194
1629709010652,2231
1629709010656,2232
1629709010660,2193
1629709010664,2127
1629709010668,2059
1629709010672,2013
1629709010676,1996
1629709010680,2005
1629709010684,2025
1629709010688,2042
1629709010692,2050
1629709010696,2051
1629709010700,2049
1629709010704,2048
1629709010708,2047
1629709010712,2047
1629709010716,2048
1629709010720,2047
1629709010724,2045
1629709010728,2044
1629709010732,2044
1629709010736,2045
1629709010740,2047
1629709010744,2048
1629709010748,2048
1629709010752,2048
1629709010756,2047
1629709010760,2047
1629709010764,2047
1629709010768,2047
1629709010772,2048
1629709010776,2048
1629709010780,2049
1629709010784,2049
1629709010788,2050
1629709010792,2050
1629709010796,2051
1629709010800,2051
1629709010804,2052
1629709010808,2052
1629709010812,2053
1629709010816,2053
1629709010820,2053
1629709010824,2054
1629709010828,2055
1629709010832,2056
1629709010836,2058
1629709010840,2059
1629709010844,2059
1629709010848,2059
1629709010852,2060
1629709010856,2061
1629709010860,2063
1629709010864,2065
1629709010868,2067
1629709010872,2068
1629709010876,2068
1629709010880,2068
1629709010884,2069
1629709010888,2070
1629709010892,2072
1629709010896,2074
1629709010900,2076
1629709010904,2078
1629709010908,2079
1629709010912,2081
1629709010916,2083
1629709010920,2085
1629709010924,2086
1629709010928,2088
1629709010932,2088
1629709010936,2088
1629709010940,2088
1629709010944,2088
1629709010948,2089
1629709010952,2089
1629709010956,2088
1629709010960,2087
1629709010964,2085
1629709010968,2082
1629709010972,2078
1629709010976,2075
1629709010980,2071
1629709010984,2068
1629709010988,2063
1629709010992,2058
1629709010996,2054
1629709011000,2049
1629709011004,2046
1629709011008,2043
1629709011012,2041
1629709011016,2040
1629709011020,2039
1629709011024,2038
1629709011028,2037
1629709011032,2037
1629709011036,2036
1629709011040,2035
1629709011044,2034
1629709011048,2034
1629709011052,2034
1629709011056,2034
1629709011060,2035
1629709011064,2036
1629709011068,2037
1629709011072,2038
1629709011076,2039
1629709011080,2039
1629709011084,2039
1629709011088,2039
1629709011092,2040
1629709011096,2041
1629709011100,2043
1629709011104,2043
1629709011108,2043
1629709011112,2042
1629709011116,2041
1629709011120,2041
1629709011124,2041
1629709011128,2042
1629709011132,2042
1629709011136,2043
1629709011140,2043
1629709011144,2042
1629709011148,2041
1629709011152,2041
1629709011156,2040
1629709011160,2039
1629709011164,2039
1629709011168,2039
1629709011172,2039
1629709011176,2040
1629709011180,2040
1629709011184,2040
1629709011188,2040
1629709011192,2038
1629709011196,2038
1629709011200,2037
1629709011204,2037
1629709011208,2038
1629709011212,2038
1629709011216,2039
1629709011220,2039
1629709011224,2038
1629709011228,2038
1629709011232,2037
1629709011236,2037
1629709011240,2036
1629709011244,2036
1629709011248,2037
1629709011252,2037
1629709011256,2038
1629709011260,2038
1629709011264,2039
1629709011268,2039
1629709011272,2039
1629709011276,2039
1629709011280,2038
1629709011284,2038
1629709011288,2038
1629709011292,2038
1629709011296,2038
1629709011300,2039
1629709011304,2039
1629709011308,2040
1629709011312,2040
1629709011316,2040
1629709011320,2040
1629709011324,2040
1629709011328,2040
1629709011332,2040
1629709011336,2040
1629709011340,2040
1629709011344,2040
1629709011348,2040
1629709011352,2041
1629709011356,2041
1629709011360,2041
1629709011364,2041
1629709011368,2041
1629709011372,2041
1629709011376,2041
1629709011380,2041
1629709011384,2042
1629709011388,2042
1629709011392,2042
1629709011396,2042
1629709011400,2041
1629709011404,2041
1629709011408,2041
1629709011412,2041
1629709011416,2041
1629709011420,2042
1629709011424,2042
1629709011428,2042
1629709011432,2042
1629709011436,2042
1629709011440,2041
1629709011444,2040
1629709011448,2040
1629709011452,2040
1629709011456,2040
1629709011460,2043
1629709011464,2046
1629709011468,2049
1629709011472,2053
1629709011476,2056
1629709011480,2056
1629709011484,2054
1629709011488,2050
1629709011492,2048
1629709011496,2046
1629709011500,2045
1629709011504,2046
1629709011508,2046
1629709011512,2046
1629709011516,2045
1629709011520,2044
1629709011524,2044
1629709011528,2046
1629709011532,2047
1629709011536,2047
1629709011540,2045
1629709011544,2042
1629709011548,2039
1629709011552,2045
1629709011556,2067
1629709011560,2109
1629709011564,2165
1629709011568,2216
1629709011572,2241
1629709011576,2225
1629709011580,2174
1629709011584,2106
1629709011588,2048
1629709011592,2014
1629709011596,2009
1629709011600,2022
1629709011604,2038
1629709011608,2048
1629709011612,2049
1629709011616,2048
1629709011620,2046
1629709011624,2045
1629709011628,2044
1629709011632,2044
1629709011636,2044
1629709011640,2043
1629709011644,2043
1629709011648,2043
1629709011652,2043
1629709011656,2044
1629709011660,2045
1629709011664,2045
1629709011668,2046
1629709011672,2046
1629709011676,2046
1629709011680,2045
1629709011684,2045
1629709011688,2046
1629709011692,2046
1629709011696,2047
1629709011700,2048
1629709011704,2048
1629709011708,2048
1629709011712,2048
1629709011716,2049
1629709011720,2049
1629709011724,2049
1629709011728,2049
1629709011732,2050
1629709011736,2051
1629709011740,2052
1629709011744,2054
1629709011748,2054
1629709011752,2055
1629709011756,2055
1629709011760,2055
1629709011764,2056
1629709011768,2057
1629709011772,2058
1629709011776,2059
1629709011780,2061
1629709011784,2062
1629709011788,2063
1629709011792,2064
1629709011796,2065
1629709011800,2067
1629709011804,2068
1629709011808,2070
1629709011812,2072
1629709011816,2074
1629709011820,2076
1629709011824,2078
1629709011828,2080
1629709011832,2082
1629709011836,2083
1629709011840,2084
1629709011844,2084
1629709011848,2085
1629709011852,2086
1629709011856,2087
1629709011860,2088
1629709011864,2089
1629709011868,2088
1629709011872,2087
1629709011876,2085
1629709011880,2082
1629709011884,2079
1629709011888,2075
1629709011892,2072
1629709011896,2069
1629709011900,2065
1629709011904,2061
1629709011908,2057
1629709011912,2053
1629709011916,2050
1629709011920,2048
1629709011924,2046
1629709011928,2044
1629709011932,2042
1629709011936,2042
1629709011940,2041
1629709011944,2040
1629709011948,2040
1629709011952,2040
1629709011956,2039
1629709011960,2039
1629709011964,2039
1629709011968,2039
1629709011972,2039
1629709011976,2040
1629709011980,2041
1629709011984,2042
1629709011988,2043
1629709011992,2043
1629709011996,2043
1629709012000,2043
1629709012004,2043
1629709012008,2044
1629709012012,2044
1629709012016,2045
1629709012020,2046
1629709012024,2047
1629709012028,2047
1629709012032,2047
1629709012036,2046
1629709012040,2046
1629709012044,2045
1629709012048,2046
1629709012052,2046
1629709012056,2046
1629709012060,2046
1629709012064,2047
1629709012068,2046
1629709012072,2046
1629709012076,2045
1629709012080,2045
1629709012084,2044
1629709012088,2044
1629709012092,2044
1629709012096,2045
1629709012100,2045
1629709012104,2045
1629709012108,2045
1629709012112,2044
1629709012116,2044
1629709012120,2043
1629709012124,2043
1629709012128,2043
1629709012132,2043
1629709012136,2043
1629709012140,2044
1629709012144,2044
1629709012148,2044
1629709012152,2043
1629709012156,2043
1629709012160,2043
1629709012164,2043
1629709012168,2043
1629709012172,2043
1629709012176,2043
1629709012180,2044
1629709012184,2044
1629709012188,2044
1629709012192,2044
1629709012196,2044
1629709012200,2043
1629709012204,2043
1629709012208,2043
1629709012212,2043
1629709012216,2044
1629709012220,2044
1629709012224,2045
1629709012228,2045
1629709012232,2045
1629709012236,2045
1629709012240,2045
1629709012244,2045
1629709012248,2045
1629709012252,2045
1629709012256,2045
1629709012260,2046
1629709012264,2046
1629709012268,2046
1629709012272,2046
1629709012276,2046
1629709012280,2046
1629709012284,2046
1629709012288,2046
1629709012292,2046
1629709012296,2046
1629709012300,2046
1629709012304,2047
1629709012308,2047
1629709012312,2048
1629709012316,2047
1629709012320,2047
1629709012324,2047
1629709012328,2046
1629709012332,2046
1629709012336,2047
1629709012340,2047
1629709012344,2047
1629709012348,2047
1629709012352,2046
1629709012356,2045
1629709012360,2044
1629709012364,2044
1629709012368,2044
1629709012372,2045
1629709012376,2047
1629709012380,2049
1629709012384,2053
1629709012388,2057
1629709012392,2059
1629709012396,2060
1629709012400,2059
1629709012404,2056
1629709012408,2052
1629709012412,2050
1629709012416,2049
1629709012420,2048
1629709012424,2048
1629709012428,2048
1629709012432,2048
1629709012436,2048
1629709012440,2048
1629709012444,2048
1629709012448,2049
1629709012452,2049
1629709012456,2048
1629709012460,2046
1629709012464,2042
1629709012468,2045
1629709012472,2061
1629709012476,2098
1629709012480,2153
1629709012484,2210
1629709012488,2246
1629709012492,2246
1629709012496,2206
1629709012500,2143
1629709012504,2080
1629709012508,2039
1629709012512,2024
1629709012516,2030
1629709012520,2042
1629709012524,2050
1629709012528,2053
1629709012532,2051
1629709012536,2049
1629709012540,2048
1629709012544,2048
1629709012548,2047
1629709012552,2047
1629709012556,2046
1629709012560,2046
1629709012564,2045
1629709012568,2045
1629709012572,2046
1629709012576,2046
1629709012580,2047
1629709012584,2047
1629709012588,2048
1629709012592,2048
1629709012596,2047
1629709012600,2047
1629709012604,2047
1629709012608,2048
1629709012612,2048
1629709012616,2048
1629709012620,2049
1629709012624,2049
1629709012628,2050
1629709012632,2050
1629709012636,2050
1629709012640,2050
1629709012644,2050
1629709012648,2050
1629709012652,2051
1629709012656,2052
1629709012660,2053
1629709012664,2054
1629709012668,2055
1629709012672,2056
1629709012676,2056
1629709012680,2056
1629709012684,2057
1629709012688,2058
1629709012692,2059
1629709012696,2060
1629709012700,2062
1629709012704,2063
1629709012708,2065
1629709012712,2066
1629709012716,2067
1629709012720,2068
1629709012724,2069
1629709012728,2071
1629709012732,2072
1629709012736,2075
1629709012740,2077
1629709012744,2079
1629709012748,2080
1629709012752,2081
1629709012756,2082
1629709012760,2083
1629709012764,2083
1629709012768,2084
1629709012772,2085
1629709012776,2086
1629709012780,2086
1629709012784,2086
1629709012788,2085
1629709012792,2083
1629709012796,2081
1629709012800,2078
1629709012804,2074
1629709012808,2070
1629709012812,2067
1629709012816,2064
1629709012820,2061
1629709012824,2058
1629709012828,2055
1629709012832,2051
1629709012836,2048
1629709012840,2047
1629709012844,2044
1629709012848,2043
1629709012852,2042
1629709012856,2042
1629709012860,2042
1629709012864,2041
1629709012868,2040
1629709012872,2040
1629709012876,2039
1629709012880,2039
1629709012884,2039
1629709012888,2039
1629709012892,2039
1629709012896,2039
1629709012900,2040
1629709012904,2041
1629709012908,2042
1629709012912,2042
1629709012916,2042
1629709012920,2042
1629709012924,2042
1629709012928,2043
1629709012932,2043
1629709012936,2044
1629709012940,2045
1629709012944,2045
1629709012948,2045
1629709012952,2045
1629709012956,2045
1629709012960,2045
1629709012964,2044
1629709012968,2044
1629709012972,2044
1629709012976,2045
1629709012980,2045
1629709012984,2045
1629709012988,2045
1629709012992,2045
1629709012996,2045
1629709013000,2044
1629709013004,2043
1629709013008,2043
1629709013012,2043
1629709013016,2042
1629709013020,2043
1629709013024,2043
1629709013028,2043
1629709013032,2043
1629709013036,2042
1629709013040,2042
1629709013044,2041
1629709013048,2041
1629709013052,2041
1629709013056,2041
1629709013060,2042
1629709013064,2042
1629709013068,2043
1629709013072,2043
1629709013076,2042
1629709013080,2042
1629709013084,2041
1629709013088,2041
1629709013092,2041
1629709013096,2041
1629709013100,2042
1629709013104,2043
1629709013108,2043
1629709013112,2043
1629709013116,2042
1629709013120,2041
1629709013124,2041
1629709013128,2041
1629709013132,2041
1629709013136,2042
1629709013140,2043
1629709013144,2043
1629709013148,2043
1629709013152,2043
1629709013156,2042
1629709013160,2042
1629709013164,2042
1629709013168,2042
1629709013172,2042
1629709013176,2043
1629709013180,2043
1629709013184,2044
1629709013188,2044
1629709013192,2044
1629709013196,2044
1629709013200,2043
1629709013204,2043
1629709013208,2043
1629709013212,2043
1629709013216,2044
1629709013220,2045
1629709013224,2045
1629709013228,2045
1629709013232,2045
1629709013236,2044
1629709013240,2044
1629709013244,2044
1629709013248,2044
1629709013252,2044
1629709013256,2044
1629709013260,2045
1629709013264,2045
1629709013268,2045
1629709013272,2045
1629709013276,2045
1629709013280,2044
1629709013284,2044
1629709013288,2044
1629709013292,2044
1629709013296,2044
1629709013300,2044
1629709013304,2043
1629709013308,2043
1629709013312,2043
1629709013316,2043
1629709013320,2043
1629709013324,2045
1629709013328,2046
1629709013332,2048
1629709013336,2052
1629709013340,2056
1629709013344,2058
1629709013348,2058
1629709013352,2056
1629709013356,2052
1629709013360,2049
1629709013364,2048
1629709013368,2046
1629709013372,2046
1629709013376,2046
1629709013380,2047
1629709013384,2048
1629709013388,2048
1629709013392,2048
1629709013396,2048
1629709013400,2048
1629709013404,2048
1629709013408,2046
1629709013412,2042
1629709013416,2039
1629709013420,2045
1629709013424,2066
1629709013428,2109
1629709013432,2167
1629709013436,2221
1629709013440,2251
1629709013444,2239
1629709013448,2191
1629709013452,2124
1629709013456,2065
1629709013460,2030
1629709013464,2022
1629709013468,2031
1629709013472,2044
1629709013476,2050
1629709013480,2050
1629709013484,2048
1629709013488,2046
1629709013492,2044
1629709013496,2044
1629709013500,2044
1629709013504,2044
1629709013508,2044
1629709013512,2044
1629709013516,2043
1629709013520,2043
1629709013524,2043
1629709013528,2044
1629709013532,2044
1629709013536,2044
1629709013540,2045
1629709013544,2045
1629709013548,2045
1629709013552,2046
1629709013556,2046
1629709013560,2046
1629709013564,2046
1629709013568,2046
1629709013572,2047
1629709013576,2047
1629709013580,2048
1629709013584,2048
1629709013588,2048
1629709013592,2048
1629709013596,2049
1629709013600,2049
1629709013604,2049
1629709013608,2050
1629709013612,2051
1629709013616,2052
1629709013620,2053
1629709013624,2054
1629709013628,2055
1629709013632,2056
1629709013636,2056
1629709013640,2057
1629709013644,2057
1629709013648,2058
1629709013652,2059
1629709013656,2061
1629709013660,2063
1629709013664,2064
1629709013668,2066
1629709013672,2067
1629709013676,2068
1629709013680,2069
1629709013684,2071
1629709013688,2073
1629709013692,2075
1629709013696,2076
1629709013700,2078
1629709013704,2079
1629709013708,2080
1629709013712,2081
1629709013716,2082
1629709013720,2082
1629709013724,2082
1629709013728,2083
1629709013732,2083
1629709013736,2082
1629709013740,2082
1629709013744,2081
1629709013748,2079
1629709013752,2076
1629709013756,2073
1629709013760,2069
1629709013764,2065
1629709013768,2062
1629709013772,2059
1629709013776,2056
1629709013780,2053
1629709013784,2051
1629709013788,2048
1629709013792,2047
1629709013796,2044
1629709013800,2043
1629709013804,2041
1629709013808,2041
1629709013812,2040
1629709013816,2040
1629709013820,2040
1629709013824,2040
1629709013828,2039
1629709013832,2039
1629709013836,2039
1629709013840,2039
1629709013844,2039
1629709013848,2039
1629709013852,2040
1629709013856,2040
1629709013860,2041
1629709013864,2042
1629709013868,2043
1629709013872,2043
1629709013876,2043
1629709013880,2043
1629709013884,2044
1629709013888,2044
1629709013892,2044
1629709013896,2045
1629709013900,2045
1629709013904,2045
1629709013908,2045
1629709013912,2045
1629709013916,2045
1629709013920,2045
1629709013924,2045
1629709013928,2045
1629709013932,2045
1629709013936,2045
1629709013940,2045
1629709013944,2045
1629709013948,2045
1629709013952,2045
1629709013956,2044
1629709013960,2043
1629709013964,2043
1629709013968,2043
1629709013972,2043
1629709013976,2043
1629709013980,2043
1629709013984,2043
1629709013988,2043
1629709013992,2043
1629709013996,2043
1629709014000,2043
1629709014004,2043
1629709014008,2043
1629709014012,2043
1629709014016,2043
1629709014020,2043
1629709014024,2043
1629709014028,2044
1629709014032,2043
1629709014036,2043
1629709014040,2043
1629709014044,2043
1629709014048,2042
1629709014052,2043
1629709014056,2043
1629709014060,2044
1629709014064,2044
1629709014068,2044
1629709014072,2044
1629709014076,2044
1629709014080,2044
1629709014084,2044
1629709014088,2044
1629709014092,2044
1629709014096,2045
1629709014100,2045
1629709014104,2046
1629709014108,2046
1629709014112,2045
1629709014116,2045
1629709014120,2045
1629709014124,2045
1629709014128,2045
1629709014132,2046
1629709014136,2046
1629709014140,2046
1629709014144,2047
1629709014148,2047
1629709014152,2046
1629709014156,2046
1629709014160,2046
1629709014164,2046
1629709014168,2046
1629709014172,2046
1629709014176,2047
1629709014180,2047
1629709014184,2048
1629709014188,2048
1629709014192,2048
1629709014196,2048
1629709014200,2047
1629709014204,2047
1629709014208,2047
1629709014212,2047
1629709014216,2047
1629709014220,2047
1629709014224,2048
1629709014228,2048
1629709014232,2048
1629709014236,2048
1629709014240,2047
1629709014244,2047
1629709014248,2047
1629709014252,2047
1629709014256,2048
1629709014260,2048
1629709014264,2048
1629709014268,2048
1629709014272,2048
1629709014276,2048
1629709014280,2048
1629709014284,2047
1629709014288,2046
1629709014292,2046
1629709014296,2046
1629709014300,2047
1629709014304,2048
1629709014308,2048
1629709014312,2050
1629709014316,2052
1629709014320,2055
1629709014324,2058
1629709014328,2060
1629709014332,2062
1629709014336,2061
1629709014340,2059
1629709014344,2056
1629709014348,2054
1629709014352,2052
1629709014356,2051
1629709014360,2050
1629709014364,2050
1629709014368,2050
1629709014372,2050
1629709014376,2051
1629709014380,2052
1629709014384,2053
1629709014388,2053
1629709014392,2051
1629709014396,2048
1629709014400,2044
1629709014404,2044
1629709014408,2055
1629709014412,2087
1629709014416,2140
1629709014420,2200
1629709014424,2245
1629709014428,2255
1629709014432,2224
1629709014436,2163
1629709014440,2097
1629709014444,2048
1629709014448,2027
1629709014452,2029
1629709014456,2040
1629709014460,2050
1629709014464,2054
1629709014468,2053
1629709014472,2050
1629709014476,2048
1629709014480,2047
1629709014484,2046
1629709014488,2046
1629709014492,2046
1629709014496,2046
1629709014500,2047
1629709014504,2047
1629709014508,2047
1629709014512,2047
1629709014516,2047
1629709014520,2047
1629709014524,2047
1629709014528,2047
1629709014532,2048
1629709014536,2048
1629709014540,2048
1629709014544,2049
1629709014548,2049
1629709014552,2049
1629709014556,2049
1629709014560,2049
1629709014564,2049
1629709014568,2050
1629709014572,2050
1629709014576,2051
1629709014580,2052
1629709014584,2052
1629709014588,2053
1629709014592,2053
1629709014596,2054
1629709014600,2054
1629709014604,2054
1629709014608,2055
1629709014612,2056
1629709014616,2058
1629709014620,2059
1629709014624,2060
1629709014628,2061
1629709014632,2061
1629709014636,2062
1629709014640,2063
1629709014644,2064
1629709014648,2065
1629709014652,2067
1629709014656,2068
1629709014660,2070
1629709014664,2072
1629709014668,2073
1629709014672,2075
1629709014676,2076
1629709014680,2078
1629709014684,2079
1629709014688,2080
1629709014692,2081
1629709014696,2083
1629709014700,2084
1629709014704,2085
1629709014708,2086
1629709014712,2085
1629709014716,2085
1629709014720,2085
1629709014724,2084
1629709014728,2083
1629709014732,2082
1629709014736,2080
1629709014740,2078
1629709014744,2075
1629709014748,2072
1629709014752,2068
1629709014756,2064
1629709014760,2061
1629709014764,2057
1629709014768,2054
1629709014772,2051
1629709014776,2049
1629709014780,2048
1629709014784,2047
1629709014788,2045
1629709014792,2044
1629709014796,2043
1629709014800,2042
1629709014804,2041
1629709014808,2041
1629709014812,2041
1629709014816,2041
1629709014820,2042
1629709014824,2042
1629709014828,2043
1629709014832,2043
1629709014836,2043
1629709014840,2043
1629709014844,2043
1629709014848,2044
1629709014852,2044
1629709014856,2045
1629709014860,2046
1629709014864,2047
1629709014868,2047
1629709014872,2047
1629709014876,2047
1629709014880,2047
1629709014884,2047
1629709014888,2047
1629709014892,2047
1629709014896,2047
1629709014900,2048
1629709014904,2048
1629709014908,2048
1629709014912,2048
1629709014916,2048
1629709014920,2047
1629709014924,2047
1629709014928,2047
1629709014932,2047
1629709014936,2047
1629709014940,2047
1629709014944,2047
1629709014948,2047
1629709014952,2047
1629709014956,2046
1629709014960,2046
1629709014964,2045
1629709014968,2045
1629709014972,2045
1629709014976,2045
1629709014980,2046
1629709014984,2046
1629709014988,2046
1629709014992,2046
1629709014996,2045
1629709015000,2045
1629709015004,2044
1629709015008,2044
1629709015012,2044
1629709015016,2045
1629709015020,2045
1629709015024,2046
1629709015028,2046
1629709015032,2046
1629709015036,2046
1629709015040,2046
1629709015044,2045
1629709015048,2045
1629709015052,2045
1629709015056,2046
1629709015060,2046
1629709015064,2047
1629709015068,2047
1629709015072,2047
1629709015076,2047
1629709015080,2046
1629709015084,2046
1629709015088,2046
1629709015092,2046
1629709015096,2047
1629709015100,2047
1629709015104,2048
1629709015108,2048
1629709015112,2047
1629709015116,2047
1629709015120,2046
1629709015124,2046
1629709015128,2046
1629709015132,2047
1629709015136,2047
1629709015140,2048
1629709015144,2048
1629709015148,2048
1629709015152,2048
1629709015156,2048
1629709015160,2048
1629709015164,2047
1629709015168,2047
1629709015172,2048
1629709015176,2048
1629709015180,2048
1629709015184,2048
1629709015188,2048
1629709015192,2048
1629709015196,2048
1629709015200,2048
1629709015204,2048
1629709015208,2048
1629709015212,2048
1629709015216,2048
1629709015220,2048
1629709015224,2049
1629709015228,2049
1629709015232,2048
1629709015236,2048
1629709015240,2048
1629709015244,2048
1629709015248,2048
1629709015252,2048
1629709015256,2049
1629709015260,2049
1629709015264,2050
1629709015268,2049
1629709015272,2049
1629709015276,2049
1629709015280,2049
1629709015284,2048
1629709015288,2048
1629709015292,2048
1629709015296,2048
1629709015300,2048
1629709015304,2048
1629709015308,2048
1629709015312,2048
1629709015316,2048
1629709015320,2048
1629709015324,2049
1629709015328,2051
1629709015332,2054
1629709015336,2058
1629709015340,2062
1629709015344,2063
1629709015348,2063
1629709015352,2060
1629709015356,2057
1629709015360,2054
1629709015364,2052
1629709015368,2051
1629709015372,2051
1629709015376,2051
1629709015380,2052
1629709015384,2052
1629709015388,2052
1629709015392,2052
1629709015396,2053
1629709015400,2052
1629709015404,2051
1629709015408,2048
1629709015412,2045
1629709015416,2044
1629709015420,2054
1629709015424,2084
1629709015428,2135
1629709015432,2193
1629709015436,2240
1629709015440,2254
1629709015444,2227
1629709015448,2169
1629709015452,2103
1629709015456,2052
1629709015460,2029
1629709015464,2029
1629709015468,2041
1629709015472,2050
1629709015476,2055
1629709015480,2054
1629709015484,2051
1629709015488,2048
1629709015492,2048
1629709015496,2047
1629709015500,2047
1629709015504,2047
1629709015508,2048
1629709015512,2048
1629709015516,2048
1629709015520,2048
1629709015524,2048
1629709015528,2048
1629709015532,2048
1629709015536,2048
1629709015540,2048
1629709015544,2048
1629709015548,2049
1629709015552,2049
1629709015556,2049
1629709015560,2049
1629709015564,2049
1629709015568,2050
1629709015572,2050
1629709015576,2051
1629709015580,2052
1629709015584,2052
1629709015588,2053
1629709015592,2053
1629709015596,2053
1629709015600,2054
1629709015604,2054
1629709015608,2055
1629709015612,2055
1629709015616,2056
1629709015620,2057
1629709015624,2058
1629709015628,2060
1629709015632,2060
1629709015636,2061
1629709015640,2061
1629709015644,2062
1629709015648,2063
1629709015652,2064
1629709015656,2066
1629709015660,2067
1629709015664,2069
1629709015668,2070
1629709015672,2071
1629709015676,2073
1629709015680,2074
1629709015684,2075
1629709015688,2076
1629709015692,2078
1629709015696,2080
1629709015700,2082
1629709015704,2083
1629709015708,2084
1629709015712,2085
1629709015716,2085
1629709015720,2085
1629709015724,2085
1629709015728,2085
1629709015732,2085
1629709015736,2085
1629709015740,2084
1629709015744,2083
1629709015748,2081
1629709015752,2079
1629709015756,2076
1629709015760,2072
1629709015764,2068
1629709015768,2064
1629709015772,2061
1629709015776,2058
1629709015780,2055
1629709015784,2053
1629709015788,2051
1629709015792,2048
1629709015796,2047
1629709015800,2045
1629709015804,2043
1629709015808,2042
1629709015812,2042
1629709015816,2042
1629709015820,2042
1629709015824,2042
1629709015828,2042
1629709015832,2042
1629709015836,2042
1629709015840,2042
1629709015844,2042
1629709015848,2042
1629709015852,2043
1629709015856,2044
1629709015860,2045
1629709015864,2046
1629709015868,2046
1629709015872,2047
1629709015876,2047
1629709015880,2047
1629709015884,2047
1629709015888,2047
1629709015892,2047
1629709015896,2048
1629709015900,2048
1629709015904,2048
1629709015908,2048
1629709015912,2048
1629709015916,2048
1629709015920,2048
1629709015924,2048
1629709015928,2047
1629709015932,2047
1629709015936,2047
1629709015940,2048
1629709015944,2048
1629709015948,2047
1629709015952,2047
1629709015956,2046
1629709015960,2046
1629709015964,2045
1629709015968,2046
1629709015972,2046
1629709015976,2046
1629709015980,2046
1629709015984,2046
1629709015988,2045
1629709015992,2045
1629709015996,2044
1629709016000,2044
1629709016004,2044
1629709016008,2044
1629709016012,2044
1629709016016,2044
1629709016020,2045
1629709016024,2046
1629709016028,2046
1629709016032,2046
1629709016036,2045
1629709016040,2044
1629709016044,2043
1629709016048,2044
1629709016052,2045
1629709016056,2045
1629709016060,2046
1629709016064,2046
1629709016068,2045
1629709016072,2045
1629709016076,2045
1629709016080,2045
1629709016084,2045
1629709016088,2045
1629709016092,2045
1629709016096,2046
1629709016100,2046
1629709016104,2047
1629709016108,2047
1629709016112,2046
1629709016116,2046
1629709016120,2045
1629709016124,2044
1629709016128,2045
1629709016132,2045
1629709016136,2047
1629709016140,2047
1629709016144,2048
1629709016148,2048
1629709016152,2048
1629709016156,2047
1629709016160,2047
1629709016164,2047
1629709016168,2046
1629709016172,2047
1629709016176,2047
1629709016180,2047
1629709016184,2048
1629709016188,2048
1629709016192,2048
1629709016196,2048
1629709016200,2048
1629709016204,2048
1629709016208,2048
1629709016212,2048
1629709016216,2048
1629709016220,2048
1629709016224,2048
1629709016228,2048
1629709016232,2048
1629709016236,2048
1629709016240,2048
1629709016244,2048
1629709016248,2048
1629709016252,2048
1629709016256,2048
1629709016260,2049
1629709016264,2049
1629709016268,2049
1629709016272,2048
1629709016276,2048
1629709016280,2047
1629709016284,2047
1629709016288,2047
1629709016292,2048
1629709016296,2049
1629709016300,2050
1629709016304,2052
1629709016308,2054
1629709016312,2057
1629709016316,2060
1629709016320,2062
1629709016324,2063
1629709016328,2061
1629709016332,2058
1629709016336,2055
1629709016340,2054
1629709016344,2053
1629709016348,2053
1629709016352,2052
1629709016356,2051
1629709016360,2049
1629709016364,2049
1629709016368,2049
1629709016372,2050
1629709016376,2051
1629709016380,2052
1629709016384,2050
1629709016388,2048
1629709016392,2044
1629709016396,2047
1629709016400,2063
1629709016404,2100
1629709016408,2154
1629709016412,2209
1629709016416,2242
1629709016420,2237
1629709016424,2193
1629709016428,2125
1629709016432,2060
1629709016436,2020
1629709016440,2008
1629709016444,2019
1629709016448,2037
1629709016452,2050
1629709016456,2055
1629709016460,2054
1629709016464,2051
1629709016468,2048
1629709016472,2047
1629709016476,2047
1629709016480,2047
1629709016484,2047
1629709016488,2047
1629709016492,2048
1629709016496,2048
1629709016500,2048
1629709016504,2048
1629709016508,2048
1629709016512,2048
1629709016516,2048
1629709016520,2048
1629709016524,2048
1629709016528,2049
1629709016532,2049
1629709016536,2050
1629709016540,2050
1629709016544,2050
1629709016548,2051
1629709016552,2051
1629709016556,2051
1629709016560,2051
1629709016564,2052
1629709016568,2052
1629709016572,2053
1629709016576,2053
1629709016580,2054
1629709016584,2055
1629709016588,2056
1629709016592,2057
1629709016596,2058
1629709016600,2058
1629709016604,2059
1629709016608,2059
1629709016612,2060
1629709016616,2061
1629709016620,2061
1629709016624,2062
1629709016628,2064
1629709016632,2066
1629709016636,2068
1629709016640,2069
1629709016644,2070
1629709016648,2071
1629709016652,2072
1629709016656,2073
1629709016660,2075
1629709016664,2077
1629709016668,2079
1629709016672,2081
1629709016676,2082
1629709016680,2084
1629709016684,2085
1629709016688,2086
1629709016692,2087
1629709016696,2089
1629709016700,2090
1629709016704,2090
1629709016708,2090
1629709016712,2090
1629709016716,2089
1629709016720,2087
1629709016724,2086
1629709016728,2084
1629709016732,2080
1629709016736,2077
1629709016740,2073
1629709016744,2069
1629709016748,2065
1629709016752,2061
1629709016756,2057
1629709016760,2053
1629709016764,2049
1629709016768,2047
1629709016772,2044
1629709016776,2042
1629709016780,2041
1629709016784,2040
1629709016788,2039
1629709016792,2037
1629709016796,2036
1629709016800,2035
1629709016804,2034
1629709016808,2034
1629709016812,2034
1629709016816,2035
1629709016820,2036
1629709016824,2036
1629709016828,2037
1629709016832,2037
1629709016836,2038
1629709016840,2039
1629709016844,2040
1629709016848,2040
1629709016852,2040
1629709016856,2039
1629709016860,2040
1629709016864,2041
1629709016868,2042
1629709016872,2043
1629709016876,2043
1629709016880,2042
1629709016884,2040
1629709016888,2040
1629709016892,2040
1629709016896,2041
1629709016900,2042
1629709016904,2042
1629709016908,2042
1629709016912,2041
1629709016916,2041
1629709016920,2041
1629709016924,2041
1629709016928,2041
1629709016932,2040
1629709016936,2040
1629709016940,2040
1629709016944,2040
1629709016948,2040
1629709016952,2039
1629709016956,2038
1629709016960,2038
1629709016964,2038
1629709016968,2038
1629709016972,2039
1629709016976,2039
1629709016980,2040
1629709016984,2039
1629709016988,2039
1629709016992,2038
1629709016996,2038
1629709017000,2037
1629709017004,2037
1629709017008,2038
1629709017012,2039
1629709017016,2039
1629709017020,2040
1629709017024,2040
1629709017028,2040
1629709017032,2039
1629709017036,2039
1629709017040,2039
1629709017044,2039
1629709017048,2039
1629709017052,2040
1629709017056,2040
1629709017060,2040
1629709017064,2041
1629709017068,2041
1629709017072,2040
1629709017076,2040
1629709017080,2040
1629709017084,2040
1629709017088,2040
1629709017092,2040
1629709017096,2041
1629709017100,2042
1629709017104,2042
1629709017108,2042
1629709017112,2042
1629709017116,2041
1629709017120,2041
1629709017124,2040
1629709017128,2041
1629709017132,2041
1629709017136,2042
1629709017140,2042
1629709017144,2042
1629709017148,2043
1629709017152,2043
1629709017156,2044
1629709017160,2044
1629709017164,2043
1629709017168,2043
1629709017172,2043
1629709017176,2043
1629709017180,2043
1629709017184,2044
1629709017188,2044
1629709017192,2044
1629709017196,2043
1629709017200,2042
1629709017204,2042
1629709017208,2041
1629709017212,2042
1629709017216,2042
1629709017220,2043
1629709017224,2045
1629709017228,2048
1629709017232,2051
1629709017236,2055
1629709017240,2057
1629709017244,2057
1629709017248,2055
1629709017252,2051
1629709017256,2048
1629709017260,2047
1629709017264,2047
1629709017268,2047
1629709017272,2048
1629709017276,2048
1629709017280,2048
1629709017284,2047
1629709017288,2047
1629709017292,2048
1629709017296,2048
1629709017300,2048
1629709017304,2047
1629709017308,2044
1629709017312,2042
1629709017316,2049
1629709017320,2073
1629709017324,2117
1629709017328,2171
1629709017332,2217
1629709017336,2235
1629709017340,2212
1629709017344,2157
1629709017348,2089
1629709017352,2035
1629709017356,2007
1629709017360,2007
1629709017364,2023
1629709017368,2040
1629709017372,2049
1629709017376,2052
1629709017380,2050
1629709017384,2048
1629709017388,2047
1629709017392,2047
1629709017396,2047
1629709017400,2046
1629709017404,2046
1629709017408,2046
1629709017412,2046
1629709017416,2047
1629709017420,2048
1629709017424,2048
1629709017428,2048
1629709017432,2048
1629709017436,2048
1629709017440,2048
1629709017444,2048
1629709017448,2048
1629709017452,2048
1629709017456,2049
1629709017460,2050
1629709017464,2050
1629709017468,2050
1629709017472,2051
1629709017476,2051
1629709017480,2051
1629709017484,2051
1629709017488,2051
1629709017492,2052
1629709017496,2053
1629709017500,2054
1629709017504,2056
1629709017508,2057
1629709017512,2057
1629709017516,2057
1629709017520,2058
1629709017524,2058
1629709017528,2059
1629709017532,2060
1629709017536,2062
1629709017540,2063
1629709017544,2064
1629709017548,2065
1629709017552,2066
1629709017556,2067
1629709017560,2068
1629709017564,2069
1629709017568,2070
1629709017572,2072
1629709017576,2074
1629709017580,2076
1629709017584,2079
1629709017588,2081
1629709017592,2082
1629709017596,2083
1629709017600,2084
1629709017604,2085
1629709017608,2086
1629709017612,2086
1629709017616,2087
1629709017620,2088
1629709017624,2089
1629709017628,2090
1629709017632,2089
1629709017636,2088
1629709017640,2086
1629709017644,2084
1629709017648,2081
1629709017652,2077
1629709017656,2074
1629709017660,2070
1629709017664,2066
1629709017668,2062
1629709017672,2058
1629709017676,2055
1629709017680,2051
1629709017684,2048
1629709017688,2047
1629709017692,2045
1629709017696,2044
1629709017700,2043
1629709017704,2042
1629709017708,2042
1629709017712,2041
1629709017716,2040
1629709017720,2039
1629709017724,2039
1629709017728,2039
1629709017732,2040
1629709017736,2041
1629709017740,2042
1629709017744,2043
1629709017748,2043
1629709017752,2043
1629709017756,2044
1629709017760,2044
1629709017764,2044
1629709017768,2044
1629709017772,2044
1629709017776,2045
1629709017780,2046
1629709017784,2047
1629709017788,2047
1629709017792,2047
1629709017796,2046
1629709017800,2046
1629709017804,2046
1629709017808,2046
1629709017812,2046
1629709017816,2046
1629709017820,2046
1629709017824,2047
1629709017828,2047
1629709017832,2046
1629709017836,2046
1629709017840,2045
1629709017844,2045
1629709017848,2044
1629709017852,2044
1629709017856,2044
1629709017860,2044
1629709017864,2044
1629709017868,2044
1629709017872,2044
1629709017876,2044
1629709017880,2043
1629709017884,2042
1629709017888,2042
1629709017892,2042
1629709017896,2043
1629709017900,2043
1629709017904,2043
1629709017908,2043
1629709017912,2043
1629709017916,2042
1629709017920,2042
1629709017924,2042
1629709017928,2042
1629709017932,2042
1629709017936,2042
1629709017940,2043
1629709017944,2043
1629709017948,2044
1629709017952,2043
1629709017956,2043
1629709017960,2043
1629709017964,2042
1629709017968,2042
1629709017972,2042
1629709017976,2042
1629709017980,2043
1629709017984,2044
1629709017988,2044
1629709017992,2044
1629709017996,2044
1629709018000,2043
1629709018004,2043
1629709018008,2043
1629709018012,2043
1629709018016,2044
1629709018020,2044
1629709018024,2045
1629709018028,2045
1629709018032,2045
1629709018036,2045
1629709018040,2044
1629709018044,2044
1629709018048,2044
1629709018052,2044
1629709018056,2045
1629709018060,2045
1629709018064,2046
1629709018068,2046
1629709018072,2046
1629709018076,2046
1629709018080,2045
1629709018084,2045
1629709018088,2045
1629709018092,2045
1629709018096,2046
1629709018100,2046
1629709018104,2047
1629709018108,2047
1629709018112,2047
1629709018116,2046
1629709018120,2046
1629709018124,2046
1629709018128,2045
1629709018132,2045
1629709018136,2044
1629709018140,2044
1629709018144,2044
1629709018148,2044
1629709018152,2044
1629709018156,2045
1629709018160,2046
1629709018164,2048
1629709018168,2052
1629709018172,2056
1629709018176,2058
1629709018180,2059
1629709018184,2057
1629709018188,2054
1629709018192,2051
1629709018196,2049
1629709018200,2048
1629709018204,2048
1629709018208,2048
1629709018212,2048
1629709018216,2048
1629709018220,2048
1629709018224,2049
1629709018228,2049
1629709018232,2049
1629709018236,2048
1629709018240,2047
1629709018244,2043
1629709018248,2040
1629709018252,2045
1629709018256,2065
1629709018260,2108
1629709018264,2166
1629709018268,2223
1629709018272,2255
1629709018276,2247
1629709018280,2201
1629709018284,2135
1629709018288,2074
1629709018292,2037
1629709018296,2027
1629709018300,2035
1629709018304,2046
1629709018308,2052
1629709018312,2052
1629709018316,2050
1629709018320,2047
1629709018324,2046
1629709018328,2045
1629709018332,2045
1629709018336,2045
1629709018340,2046
1629709018344,2046
1629709018348,2046
1629709018352,2046
1629709018356,2045
1629709018360,2045
1629709018364,2045
1629709018368,2045
1629709018372,2045
1629709018376,2046
1629709018380,2047
1629709018384,2047
1629709018388,2048
1629709018392,2048
1629709018396,2048
1629709018400,2048
1629709018404,2048
1629709018408,2048
1629709018412,2048
1629709018416,2048
1629709018420,2049
1629709018424,2050
1629709018428,2051
1629709018432,2051
1629709018436,2051
1629709018440,2051
1629709018444,2052
1629709018448,2052
1629709018452,2053
1629709018456,2054
1629709018460,2055
1629709018464,2056
1629709018468,2057
1629709018472,2058
1629709018476,2059
1629709018480,2060
1629709018484,2061
1629709018488,2062
1629709018492,2063
1629709018496,2064
1629709018500,2066
1629709018504,2068
1629709018508,2069
1629709018512,2071
1629709018516,2072
1629709018520,2073
1629709018524,2075
1629709018528,2076
1629709018532,2078
1629709018536,2080
1629709018540,2081
1629709018544,2082
1629709018548,2083
1629709018552,2084
1629709018556,2084
1629709018560,2084
1629709018564,2083
1629709018568,2083
1629709018572,2082
1629709018576,2081
1629709018580,2080
1629709018584,2077
1629709018588,2075
1629709018592,2071
1629709018596,2067
1629709018600,2063
1629709018604,2059
1629709018608,2056
1629709018612,2053
1629709018616,2051
1629709018620,2049
1629709018624,2048
1629709018628,2046
1629709018632,2044
1629709018636,2043
1629709018640,2042
1629709018644,2041
1629709018648,2040
1629709018652,2040
1629709018656,2040
1629709018660,2040
1629709018664,2040
1629709018668,2041
1629709018672,2041
1629709018676,2041
1629709018680,2041
1629709018684,2041
1629709018688,2041
1629709018692,2042
1629709018696,2043
1629709018700,2044
1629709018704,2045
1629709018708,2045
1629709018712,2045
1629709018716,2045
1629709018720,2045
1629709018724,2045
1629709018728,2045
1629709018732,2045
1629709018736,2045
1629709018740,2046
1629709018744,2046
1629709018748,2046
1629709018752,2046
1629709018756,2045
1629709018760,2045
1629709018764,2045
1629709018768,2045
1629709018772,2045
1629709018776,2045
1629709018780,2045
1629709018784,2045
1629709018788,2045
1629709018792,2045
1629709018796,2044
1629709018800,2044
1629709018804,2043
1629709018808,2043
1629709018812,2043
1629709018816,2043
1629709018820,2044
1629709018824,2044
1629709018828,2043
1629709018832,2043
1629709018836,2043
1629709018840,2042
1629709018844,2042
1629709018848,2042
1629709018852,2042
1629709018856,2043
1629709018860,2043
1629709018864,2043
1629709018868,2043
1629709018872,2043
1629709018876,2043
1629709018880,2043
1629709018884,2042
1629709018888,2042
1629709018892,2042
1629709018896,2043
1629709018900,2043
1629709018904,2044
1629709018908,2044
1629709018912,2044
1629709018916,2043
1629709018920,2043
1629709018924,2043
1629709018928,2043
1629709018932,2043
1629709018936,2043
1629709018940,2044
1629709018944,2044
1629709018948,2044
1629709018952,2044
1629709018956,2044
1629709018960,2044
1629709018964,2043
1629709018968,2043
1629709018972,2044
1629709018976,2044
1629709018980,2045
1629709018984,2045
1629709018988,2045
1629709018992,2045
1629709018996,2045
1629709019000,2044
1629709019004,2044
1629709019008,2044
1629709019012,2044
1629709019016,2045
1629709019020,2045
1629709019024,2045
1629709019028,2045
1629709019032,2045
1629709019036,2046
1629709019040,2046
1629709019044,2045
1629709019048,2045
1629709019052,2045
1629709019056,2046
1629709019060,2046
1629709019064,2047
1629709019068,2047
1629709019072,2047
1629709019076,2046
1629709019080,2046
1629709019084,2045
1629709019088,2045
1629709019092,2044
1629709019096,2044
1629709019100,2044
1629709019104,2045
1629709019108,2045
1629709019112,2046
1629709019116,2047
1629709019120,2048
1629709019124,2051
1629709019128,2055
1629709019132,2058
1629709019136,2059
1629709019140,2059
1629709019144,2057
1629709019148,2054
1629709019152,2051
1629709019156,2049
1629709019160,2048
1629709019164,2048
1629709019168,2047
1629709019172,2047
1629709019176,2048
1629709019180,2048
1629709019184,2048
1629709019188,2049
1629709019192,2049
1629709019196,2048
1629709019200,2046
1629709019204,2041
1629709019208,2040
1629709019212,2050
1629709019216,2081
1629709019220,2132
1629709019224,2192
1629709019228,2240
1629709019232,2254
1629709019236,2227
1629709019240,2168
1629709019244,2101
1629709019248,2050
1629709019252,2026
1629709019256,2027
1629709019260,2038
1629709019264,2048
1629709019268,2052
1629709019272,2051
1629709019276,2049
1629709019280,2047
1629709019284,2045
1629709019288,2044
1629709019292,2044
1629709019296,2045
1629709019300,2045
1629709019304,2045
1629709019308,2045
1629709019312,2045
1629709019316,2045
1629709019320,2045
1629709019324,2045
1629709019328,2045
1629709019332,2045
1629709019336,2046
1629709019340,2046
1629709019344,2047
1629709019348,2048
1629709019352,2048
1629709019356,2048
1629709019360,2048
1629709019364,2048
1629709019368,2048
1629709019372,2048
1629709019376,2048
1629709019380,2049
1629709019384,2050
1629709019388,2051
1629709019392,2051
1629709019396,2052
1629709019400,2052
1629709019404,2052
1629709019408,2052
1629709019412,2053
1629709019416,2055
1629709019420,2056
1629709019424,2057
1629709019428,2058
1629709019432,2058
1629709019436,2059
1629709019440,2060
1629709019444,2061
1629709019448,2062
1629709019452,2063
1629709019456,2065
1629709019460,2067
1629709019464,2068
1629709019468,2070
1629709019472,2072
1629709019476,2073
1629709019480,2075
1629709019484,2076
1629709019488,2077
1629709019492,2078
1629709019496,2079
1629709019500,2081
1629709019504,2082
1629709019508,2083
1629709019512,2083
1629709019516,2083
1629709019520,2082
1629709019524,2082
1629709019528,2082
1629709019532,2081
1629709019536,2080
1629709019540,2079
1629709019544,2076
1629709019548,2073
1629709019552,2070
1629709019556,2066
1629709019560,2062
1629709019564,2058
1629709019568,2055
1629709019572,2052
1629709019576,2050
1629709019580,2049
1629709019584,2048
1629709019588,2047
1629709019592,2045
1629709019596,2044
1629709019600,2042
1629709019604,2041
1629709019608,2041
1629709019612,2040
1629709019616,2041
1629709019620,2041
1629709019624,2042
1629709019628,2042
1629709019632,2042
1629709019636,2042
1629709019640,2042
1629709019644,2042
1629709019648,2043
1629709019652,2043
1629709019656,2044
1629709019660,2045
1629709019664,2046
1629709019668,2046
1629709019672,2047
1629709019676,2046
1629709019680,2046
1629709019684,2046
1629709019688,2046
1629709019692,2046
1629709019696,2047
1629709019700,2047
1629709019704,2048
1629709019708,2048
1629709019712,2048
1629709019716,2047
1629709019720,2047
1629709019724,2047
1629709019728,2046
1629709019732,2046
1629709019736,2047
1629709019740,2047
1629709019744,2047
1629709019748,2047
1629709019752,2046
1629709019756,2046
1629709019760,2045
1629709019764,2045
1629709019768,2045
1629709019772,2045
1629709019776,2045
1629709019780,2045
1629709019784,2046
1629709019788,2046
1629709019792,2046
1629709019796,2045
1629709019800,2045
1629709019804,2044
1629709019808,2044
1629709019812,2044
1629709019816,2045
1629709019820,2045
1629709019824,2045
1629709019828,2046
1629709019832,2045
1629709019836,2045
1629709019840,2045
1629709019844,2045
1629709019848,2045
1629709019852,2045
1629709019856,2045
1629709019860,2045
1629709019864,2046
1629709019868,2046
1629709019872,2046
1629709019876,2046
1629709019880,2045
1629709019884,2045
1629709019888,2045
1629709019892,2045
1629709019896,2046
1629709019900,2046
1629709019904,2047
1629709019908,2047
1629709019912,2047
1629709019916,2047
1629709019920,2047
1629709019924,2047
1629709019928,2047
1629709019932,2047
1629709019936,2047
1629709019940,2047
1629709019944,2048
1629709019948,2048
1629709019952,2048
1629709019956,2048
1629709019960,2048
1629709019964,2047
1629709019968,2047
1629709019972,2047
1629709019976,2047
1629709019980,2048
1629709019984,2048
1629709019988,2048
1629709019992,2048
1629709019996,2048
1629709020000,2048
1629709020004,2048
1629709020008,2048
1629709020012,2048
1629709020016,2048
1629709020020,2048
1629709020024,2048
1629709020028,2048
1629709020032,2048
1629709020036,2048
1629709020040,2048
1629709020044,2048
1629709020048,2048
1629709020052,2048
1629709020056,2048
1629709020060,2049
1629709020064,2049
1629709020068,2049
1629709020072,2048
1629709020076,2048
1629709020080,2046
1629709020084,2045
1629709020088,2045
1629709020092,2046
1629709020096,2047
1629709020100,2048
1629709020104,2050
1629709020108,2052
1629709020112,2055
1629709020116,2058
1629709020120,2060
1629709020124,2061
1629709020128,2059
1629709020132,2057
1629709020136,2054
1629709020140,2052
1629709020144,2051
1629709020148,2051
1629709020152,2050
1629709020156,2050
1629709020160,2050
1629709020164,2049
1629709020168,2049
1629709020172,2050
1629709020176,2051
1629709020180,2052
1629709020184,2050
1629709020188,2048
1629709020192,2044
1629709020196,2045
1629709020200,2058
1629709020204,2092
1629709020208,2145
1629709020212,2202
1629709020216,2243
1629709020220,2249
1629709020224,2215
1629709020228,2154
1629709020232,2090
1629709020236,2046
1629709020240,2027
1629709020244,2030
1629709020248,2042
1629709020252,2050
1629709020256,2053
1629709020260,2052
1629709020264,2050
1629709020268,2048
1629709020272,2048
1629709020276,2048
1629709020280,2047
1629709020284,2046
1629709020288,2046
1629709020292,2046
1629709020296,2047
1629709020300,2047
1629709020304,2048
1629709020308,2048
1629709020312,2048
1629709020316,2047
1629709020320,2047
1629709020324,2047
1629709020328,2048
1629709020332,2048
1629709020336,2048
1629709020340,2049
1629709020344,2050
1629709020348,2050
1629709020352,2050
1629709020356,2050
1629709020360,2050
1629709020364,2050
1629709020368,2051
1629709020372,2051
1629709020376,2052
1629709020380,2053
1629709020384,2054
1629709020388,2055
1629709020392,2056
1629709020396,2056
1629709020400,2056
1629709020404,2057
1629709020408,2058
1629709020412,2058
1629709020416,2060
1629709020420,2061
1629709020424,2062
1629709020428,2063
1629709020432,2064
1629709020436,2065
1629709020440,2065
1629709020444,2066
1629709020448,2068
1629709020452,2069
1629709020456,2071
1629709020460,2073
1629709020464,2074
1629709020468,2076
1629709020472,2077
1629709020476,2078
1629709020480,2079
1629709020484,2080
1629709020488,2081
1629709020492,2081
1629709020496,2082
1629709020500,2083
1629709020504,2084
1629709020508,2084
1629709020512,2084
1629709020516,2083
1629709020520,2082
1629709020524,2081
1629709020528,2079
1629709020532,2076
1629709020536,2074
1629709020540,2071
1629709020544,2068
1629709020548,2065
1629709020552,2061
1629709020556,2058
1629709020560,2055
1629709020564,2052
1629709020568,2049
1629709020572,2048
1629709020576,2047
1629709020580,2046
1629709020584,2045
1629709020588,2045
1629709020592,2044
1629709020596,2044
1629709020600,2043
1629709020604,2042
1629709020608,2042
1629709020612,2043
1629709020616,2043
1629709020620,2044
1629709020624,2045
1629709020628,2045
1629709020632,2045
1629709020636,2046
1629709020640,2046
1629709020644,2046
1629709020648,2046
1629709020652,2047
1629709020656,2048
1629709020660,2048
1629709020664,2048
1629709020668,2048
1629709020672,2048
1629709020676,2048
1629709020680,2048
1629709020684,2048
1629709020688,2048
1629709020692,2048
1629709020696,2048
1629709020700,2048
1629709020704,2048
1629709020708,2048
1629709020712,2048
1629709020716,2048
1629709020720,2047
1629709020724,2047
1629709020728,2046
1629709020732,2046
1629709020736,2046
1629709020740,2046
1629709020744,2046
1629709020748,2047
1629709020752,2046
1629709020756,2046
1629709020760,2046
1629709020764,2045
1629709020768,2045
1629709020772,2045
1629709020776,2045
1629709020780,2046
1629709020784,2046
1629709020788,2046
1629709020792,2046
1629709020796,2045
1629709020800,2045
1629709020804,2045
1629709020808,2045
1629709020812,2045
1629709020816,2046
1629709020820,2046
1629709020824,2046
1629709020828,2046
1629709020832,2046
1629709020836,2045
1629709020840,2045
1629709020844,2045
1629709020848,2045
1629709020852,2045
1629709020856,2046
1629709020860,2046
1629709020864,2047
1629709020868,2047
1629709020872,2047
1629709020876,2046
1629709020880,2046
1629709020884,2045
1629709020888,2045
1629709020892,2046
1629709020896,2046
1629709020900,2047
1629709020904,2047
1629709020908,2047
1629709020912,2047
1629709020916,2047
1629709020920,2046
1629709020924,2046
1629709020928,2046
1629709020932,2046
1629709020936,2047
1629709020940,2047
1629709020944,2048
1629709020948,2048
1629709020952,2048
1629709020956,2048
1629709020960,2047
1629709020964,2047
1629709020968,2047
1629709020972,2047
1629709020976,2047
1629709020980,2047
1629709020984,2048
1629709020988,2048
1629709020992,2048
1629709020996,2048
1629709021000,2048
1629709021004,2048
1629709021008,2047
1629709021012,2047
1629709021016,2048
1629709021020,2048
1629709021024,2048
1629709021028,2048
1629709021032,2048
1629709021036,2048
1629709021040,2048
1629709021044,2048
1629709021048,2048
1629709021052,2048
1629709021056,2048
1629709021060,2048
1629709021064,2048
1629709021068,2048
1629709021072,2048
1629709021076,2047
1629709021080,2046
1629709021084,2045
1629709021088,2046
1629709021092,2047
1629709021096,2048
1629709021100,2050
1629709021104,2052
1629709021108,2056
1629709021112,2059
1629709021116,2061
1629709021120,2061
1629709021124,2060
1629709021128,2057
1629709021132,2054
1629709021136,2052
1629709021140,2051
1629709021144,2051
1629709021148,2051
1629709021152,2051
1629709021156,2050
1629709021160,2050
1629709021164,2050
1629709021168,2050
1629709021172,2051
1629709021176,2051
1629709021180,2050
1629709021184,2048
1629709021188,2044
1629709021192,2044
1629709021196,2056
1629709021200,2088
1629709021204,2140
1629709021208,2198
1629709021212,2240
1629709021216,2248
1629709021220,2217
1629709021224,2157
1629709021228,2094
1629709021232,2048
1629709021236,2028
1629709021240,2030
1629709021244,2041
1629709021248,2050
1629709021252,2053
1629709021256,2053
1629709021260,2051
1629709021264,2049
1629709021268,2048
1629709021272,2048
1629709021276,2047
1629709021280,2047
1629709021284,2047
1629709021288,2047
1629709021292,2047
1629709021296,2047
1629709021300,2048
1629709021304,2048
1629709021308,2048
1629709021312,2048
1629709021316,2048
1629709021320,2048
1629709021324,2048
1629709021328,2048
1629709021332,2049
1629709021336,2049
1629709021340,2050
1629709021344,2050
1629709021348,2050
1629709021352,2050
1629709021356,2050
1629709021360,2050
1629709021364,2051
1629709021368,2052
1629709021372,2053
1629709021376,2054
1629709021380,2055
1629709021384,2056
1629709021388,2057
1629709021392,2057
1629709021396,2058
1629709021400,2058
1629709021404,2059
1629709021408,2059
1629709021412,2060
1629709021416,2062
1629709021420,2063
1629709021424,2064
1629709021428,2066
1629709021432,2066
1629709021436,2067
1629709021440,2068
1629709021444,2069
1629709021448,2070
1629709021452,2072
1629709021456,2074
1629709021460,2076
1629709021464,2077
1629709021468,2078
1629709021472,2079
1629709021476,2080
1629709021480,2081
1629709021484,2082
1629709021488,2083
1629709021492,2083
1629709021496,2084
1629709021500,2085
1629709021504,2085
1629709021508,2085
1629709021512,2084
1629709021516,2083
1629709021520,2081
1629709021524,2080
1629709021528,2078
1629709021532,2076
1629709021536,2073
1629709021540,2070
1629709021544,2066
1629709021548,2063
1629709021552,2059
1629709021556,2056
1629709021560,2052
1629709021564,2049
1629709021568,2048
1629709021572,2046
1629709021576,2045
1629709021580,2045
1629709021584,2045
1629709021588,2044
1629709021592,2043
1629709021596,2042
1629709021600,2042
1629709021604,2042
1629709021608,2043
1629709021612,2044
1629709021616,2046
1629709021620,2046
1629709021624,2046
1629709021628,2046
1629709021632,2045
1629709021636,2045
1629709021640,2045
1629709021644,2046
1629709021648,2046
1629709021652,2047
1629709021656,2047
1629709021660,2048
1629709021664,2048
1629709021668,2048
1629709021672,2048
1629709021676,2048
1629709021680,2048
1629709021684,2048
1629709021688,2048
1629709021692,2048
1629709021696,2048
1629709021700,2048
1629709021704,2048
1629709021708,2048
1629709021712,2048
1629709021716,2047
1629709021720,2046
1629709021724,2046
1629709021728,2046
1629709021732,2046
1629709021736,2046
1629709021740,2047
1629709021744,2047
1629709021748,2047
1629709021752,2047
1629709021756,2046
1629709021760,2046
1629709021764,2045
1629709021768,2045
1629709021772,2044
1629709021776,2044
1629709021780,2044
1629709021784,2044
1629709021788,2045
1629709021792,2045
1629709021796,2044
1629709021800,2044
1629709021804,2043
1629709021808,2044
1629709021812,2044
1629709021816,2044
1629709021820,2045
1629709021824,2045
1629709021828,2045
1629709021832,2045
1629709021836,2044
1629709021840,2044
1629709021844,2043
1629709021848,2043
1629709021852,2043
1629709021856,2044
1629709021860,2045
1629709021864,2046
1629709021868,2046
1629709021872,2045
1629709021876,2045
1629709021880,2044
1629709021884,2044
1629709021888,2044
1629709021892,2044
1629709021896,2045
1629709021900,2046
1629709021904,2046
1629709021908,2047
1629709021912,2046
1629709021916,2045
1629709021920,2044
1629709021924,2043
1629709021928,2043
1629709021932,2044
1629709021936,2046
1629709021940,2047
1629709021944,2047
1629709021948,2046
1629709021952,2045
1629709021956,2044
1629709021960,2044
1629709021964,2045
1629709021968,2046
1629709021972,2046
1629709021976,2046
1629709021980,2046
1629709021984,2046
1629709021988,2047
1629709021992,2047
1629709021996,2047
1629709022000,2046
1629709022004,2045
1629709022008,2044
1629709022012,2044
1629709022016,2044
1629709022020,2045
1629709022024,2046
1629709022028,2046
1629709022032,2046
1629709022036,2046
1629709022040,2045
1629709022044,2044
1629709022048,2043
1629709022052,2043
1629709022056,2044
1629709022060,2045
1629709022064,2047
1629709022068,2049
1629709022072,2052
1629709022076,2056
1629709022080,2059
1629709022084,2060
1629709022088,2058
1629709022092,2054
1629709022096,2050
1629709022100,2048
1629709022104,2047
1629709022108,2047
1629709022112,2046
1629709022116,2045
1629709022120,2044
1629709022124,2045
1629709022128,2046
1629709022132,2048
1629709022136,2048
1629709022140,2048
1629709022144,2046
1629709022148,2041
1629709022152,2039
1629709022156,2047
1629709022160,2072
1629709022164,2118
1629709022168,2172
1629709022172,2217
1629709022176,2232
1629709022180,2205
1629709022184,2145
1629709022188,2075
1629709022192,2021
1629709022196,1994
1629709022200,1996
1629709022204,2014
1629709022208,2034
1629709022212,2046
1629709022216,2049
1629709022220,2048
1629709022224,2047
1629709022228,2045
1629709022232,2045
1629709022236,2045
1629709022240,2045
1629709022244,2045
1629709022248,2045
1629709022252,2045
1629709022256,2046
1629709022260,2046
1629709022264,2047
1629709022268,2047
1629709022272,2047
1629709022276,2047
1629709022280,2047
1629709022284,2047
1629709022288,2048
1629709022292,2048
1629709022296,2049
1629709022300,2049
1629709022304,2050
1629709022308,2050
1629709022312,2050
1629709022316,2050
1629709022320,2051
1629709022324,2052
1629709022328,2052
1629709022332,2053
1629709022336,2054
1629709022340,2055
1629709022344,2055
1629709022348,2056
1629709022352,2057
1629709022356,2057
1629709022360,2058
1629709022364,2059
1629709022368,2060
1629709022372,2061
1629709022376,2062
1629709022380,2063
1629709022384,2064
1629709022388,2065
1629709022392,2066
1629709022396,2067
1629709022400,2069
1629709022404,2070
1629709022408,2071
1629709022412,2072
1629709022416,2074
1629709022420,2076
1629709022424,2078
1629709022428,2080
1629709022432,2082
1629709022436,2083
1629709022440,2084
1629709022444,2085
1629709022448,2085
1629709022452,2086
1629709022456,2087
1629709022460,2087
1629709022464,2088
1629709022468,2088
1629709022472,2088
1629709022476,2087
1629709022480,2086
1629709022484,2084
1629709022488,2082
1629709022492,2079
1629709022496,2076
1629709022500,2072
1629709022504,2069
1629709022508,2065
1629709022512,2062
1629709022516,2057
1629709022520,2053
1629709022524,2050
1629709022528,2048
1629709022532,2046
1629709022536,2044
1629709022540,2043
1629709022544,2042
1629709022548,2041
1629709022552,2040
1629709022556,2040
1629709022560,2040
1629709022564,2039
1629709022568,2040
1629709022572,2040
1629709022576,2040
1629709022580,2041
1629709022584,2042
1629709022588,2042
1629709022592,2043
1629709022596,2043
1629709022600,2043
1629709022604,2043
1629709022608,2044
1629709022612,2044
1629709022616,2045
1629709022620,2046
1629709022624,2046
1629709022628,2047
1629709022632,2047
1629709022636,2046
1629709022640,2046
1629709022644,2046
1629709022648,2046
1629709022652,2046
1629709022656,2046
1629709022660,2047
1629709022664,2047
1629709022668,2047
1629709022672,2046
1629709022676,2046
1629709022680,2045
1629709022684,2044
1629709022688,2043
1629709022692,2043
1629709022696,2043
1629709022700,2044
1629709022704,2044
1629709022708,2044
1629709022712,2044
1629709022716,2044
1629709022720,2043
1629709022724,2042
1629709022728,2042
1629709022732,2042
1629709022736,2042
1629709022740,2042
1629709022744,2043
1629709022748,2043
1629709022752,2043
1629709022756,2043
1629709022760,2042
1629709022764,2042
1629709022768,2042
1629709022772,2042
1629709022776,2042
1629709022780,2043
1629709022784,2043
1629709022788,2043
1629709022792,2043
1629709022796,2043
1629709022800,2043
1629709022804,2043
1629709022808,2043
1629709022812,2043
1629709022816,2043
1629709022820,2043
1629709022824,2044
1629709022828,2044
1629709022832,2045
1629709022836,2045
1629709022840,2045
1629709022844,2045
1629709022848,2045
1629709022852,2045
1629709022856,2045
1629709022860,2045
1629709022864,2045
1629709022868,2045
1629709022872,2045
1629709022876,2045
1629709022880,2045
1629709022884,2045
1629709022888,2045
1629709022892,2045
1629709022896,2046
1629709022900,2046
1629709022904,2046
1629709022908,2047
1629709022912,2047
1629709022916,2047
1629709022920,2046
1629709022924,2046
1629709022928,2046
1629709022932,2046
1629709022936,2047
1629709022940,2047
1629709022944,2047
1629709022948,2048
1629709022952,2047
1629709022956,2047
1629709022960,2047
1629709022964,2046
1629709022968,2046
1629709022972,2045
1629709022976,2045
1629709022980,2044
1629709022984,2044
1629709022988,2044
1629709022992,2045
1629709022996,2046
1629709023000,2048
1629709023004,2051
1629709023008,2055
1629709023012,2058
1629709023016,2060
1629709023020,2059
1629709023024,2057
1629709023028,2054
1629709023032,2052
1629709023036,2050
1629709023040,2050
1629709023044,2049
1629709023048,2049
1629709023052,2049
1629709023056,2049
1629709023060,2050
1629709023064,2051
1629709023068,2052
1629709023072,2052
1629709023076,2050
1629709023080,2048
1629709023084,2044
1629709023088,2044
1629709023092,2055
1629709023096,2087
1629709023100,2139
1629709023104,2198
1629709023108,2242
1629709023112,2253
1629709023116,2223
1629709023120,2164
1629709023124,2098
1629709023128,2049
1629709023132,2027
1629709023136,2029
1629709023140,2040
1629709023144,2050
1629709023148,2054
1629709023152,2053
1629709023156,2050
1629709023160,2048
1629709023164,2047
1629709023168,2046
1629709023172,2047
1629709023176,2047
1629709023180,2048
1629709023184,2048
1629709023188,2048
1629709023192,2047
1629709023196,2047
1629709023200,2047
1629709023204,2047
1629709023208,2047
1629709023212,2047
1629709023216,2048
1629709023220,2048
1629709023224,2048
1629709023228,2048
1629709023232,2049
1629709023236,2049
1629709023240,2049
1629709023244,2049
1629709023248,2049
1629709023252,2050
1629709023256,2050
1629709023260,2051
1629709023264,2052
1629709023268,2052
1629709023272,2053
1629709023276,2053
1629709023280,2053
1629709023284,2054
1629709023288,2055
1629709023292,2056
1629709023296,2057
1629709023300,2058
1629709023304,2060
1629709023308,2061
1629709023312,2062
1629709023316,2062
1629709023320,2063
1629709023324,2064
1629709023328,2065
1629709023332,2067
1629709023336,2068
1629709023340,2070
1629709023344,2072
1629709023348,2074
1629709023352,2075
1629709023356,2076
1629709023360,2077
1629709023364,2078
1629709023368,2079
1629709023372,2081
1629709023376,2082
1629709023380,2083
1629709023384,2084
1629709023388,2085
1629709023392,2085
1629709023396,2085
1629709023400,2085
1629709023404,2084
1629709023408,2084
1629709023412,2083
1629709023416,2081
1629709023420,2080
1629709023424,2078
1629709023428,2075
1629709023432,2071
1629709023436,2067
1629709023440,2063
1629709023444,2059
1629709023448,2056
1629709023452,2053
1629709023456,2051
1629709023460,2049
1629709023464,2048
1629709023468,2047
1629709023472,2045
1629709023476,2044
1629709023480,2043
1629709023484,2042
1629709023488,2041
1629709023492,2040
1629709023496,2041
1629709023500,2042
1629709023504,2042
1629709023508,2043
1629709023512,2043
1629709023516,2043
1629709023520,2043
1629709023524,2043
1629709023528,2044
1629709023532,2044
1629709023536,2045
1629709023540,2046
1629709023544,2046
1629709023548,2046
1629709023552,2046
1629709023556,2046
1629709023560,2046
1629709023564,2046
1629709023568,2046
1629709023572,2046
1629709023576,2047
1629709023580,2047
1629709023584,2047
1629709023588,2047
1629709023592,2047
1629709023596,2047
1629709023600,2046
1629709023604,2045
1629709023608,2045
1629709023612,2045
1629709023616,2045
1629709023620,2045
1629709023624,2046
1629709023628,2045
1629709023632,2045
1629709023636,2044
1629709023640,2044
1629709023644,2044
1629709023648,2043
1629709023652,2044
1629709023656,2044
1629709023660,2044
1629709023664,2044
1629709023668,2044
1629709023672,2044
1629709023676,2044
1629709023680,2043
1629709023684,2043
1629709023688,2043
1629709023692,2043
1629709023696,2043
1629709023700,2044
1629709023704,2044
1629709023708,2045
1629709023712,2045
1629709023716,2044
1629709023720,2044
1629709023724,2044
1629709023728,2044
1629709023732,2044
1629709023736,2044
1629709023740,2045
1629709023744,2045
1629709023748,2045
1629709023752,2045
1629709023756,2045
1629709023760,2044
1629709023764,2044
1629709023768,2044
1629709023772,2044
1629709023776,2045
1629709023780,2045
1629709023784,2045
1629709023788,2046
1629709023792,2045
1629709023796,2045
1629709023800,2045
1629709023804,2045
1629709023808,2045
1629709023812,2045
1629709023816,2046
1629709023820,2046
1629709023824,2046
1629709023828,2047
1629709023832,2046
1629709023836,2046
1629709023840,2046
1629709023844,2045
1629709023848,2045
1629709023852,2045
1629709023856,2046
1629709023860,2047
1629709023864,2047
1629709023868,2048
1629709023872,2047
1629709023876,2047
1629709023880,2047
1629709023884,2047
1629709023888,2047
1629709023892,2047
1629709023896,2046
1629709023900,2046
1629709023904,2045
1629709023908,2045
1629709023912,2045
1629709023916,2045
1629709023920,2046
1629709023924,2047
1629709023928,2048
1629709023932,2051
1629709023936,2055
1629709023940,2058
1629709023944,2061
1629709023948,2061
1629709023952,2058
1629709023956,2055
1629709023960,2052
1629709023964,2049
1629709023968,2048
1629709023972,2048
1629709023976,2048
1629709023980,2049
1629709023984,2049
1629709023988,2049
1629709023992,2049
1629709023996,2050
1629709024000,2050
1629709024004,2049
1629709024008,2048
1629709024012,2044
1629709024016,2041
1629709024020,2046
1629709024024,2065
1629709024028,2106
1629709024032,2162
1629709024036,2216
1629709024040,2247
1629709024044,2240
1629709024048,2195
1629709024052,2132
1629709024056,2073
1629709024060,2038
1629709024064,2028
1629709024068,2035
1629709024072,2046
1629709024076,2051
1629709024080,2052
1629709024084,2049
1629709024088,2047
1629709024092,2046
1629709024096,2046
1629709024100,2046
1629709024104,2047
1629709024108,2046
1629709024112,2046
1629709024116,2045
1629709024120,2045
1629709024124,2045
1629709024128,2046
1629709024132,2046
1629709024136,2047
1629709024140,2047
1629709024144,2048
1629709024148,2048
1629709024152,2048
1629709024156,2048
1629709024160,2048
1629709024164,2048
1629709024168,2048
1629709024172,2048
1629709024176,2049
1629709024180,2050
1629709024184,2051
1629709024188,2051
1629709024192,2052
1629709024196,2052
1629709024200,2052
1629709024204,2052
1629709024208,2053
1629709024212,2053
1629709024216,2054
1629709024220,2055
1629709024224,2057
1629709024228,2058
1629709024232,2058
1629709024236,2059
1629709024240,2059
1629709024244,2060
1629709024248,2061
1629709024252,2062
