timestamp,ecg_waveform
1631290337175,2010
1631290337179,2010
1631290337183,2009
1631290337187,2009
1631290337191,2009
1631290337195,2009
1631290337199,2009
1631290337203,2009
1631290337207,2008
1631290337211,2008
1631290337215,2008
1631290337219,2008
1631290337223,2009
1631290337227,2010
1631290337231,2010
1631290337235,2011
1631290337239,2011
1631290337243,2010
1631290337247,2010
1631290337251,2010
1631290337255,2010
1631290337259,2011
1631290337263,2012
1631290337267,2012
1631290337271,2013
1631290337275,2013
1631290337279,2013
1631290337283,2013
1631290337287,2013
1631290337291,2013
1631290337295,2013
1631290337299,2013
1631290337303,2014
1631290337307,2014
1631290337311,2014
1631290337315,2014
1631290337319,2014
1631290337323,2014
1631290337327,2014
1631290337331,2014
1631290337335,2015
1631290337339,2015
1631290337343,2016
1631290337347,2017
1631290337351,2017
1631290337355,2018
1631290337359,2019
1631290337363,2018
1631290337367,2018
1631290337371,2018
1631290337375,2018
1631290337379,2019
1631290337383,2019
1631290337387,2020
1631290337391,2021
1631290337395,2021
1631290337399,2021
1631290337403,2022
1631290337407,2022
1631290337411,2022
1631290337415,2023
1631290337419,2025
1631290337423,2026
1631290337427,2028
1631290337431,2029
1631290337435,2031
1631290337439,2032
1631290337443,2034
1631290337447,2036
1631290337451,2038
1631290337455,2040
1631290337459,2042
1631290337463,2044
1631290337467,2044
1631290337471,2045
1631290337475,2044
1631290337479,2044
1631290337483,2044
1631290337487,2044
1631290337491,2043
1631290337495,2041
1631290337499,2039
1631290337503,2038
1631290337507,2036
1631290337511,2036
1631290337515,2035
1631290337519,2035
1631290337523,2035
1631290337527,2035
1631290337531,2035
1631290337535,2035
1631290337539,2035
1631290337543,2035
1631290337547,2035
1631290337551,2036
1631290337555,2036
1631290337559,2036
1631290337563,2037
1631290337567,2037
1631290337571,2037
1631290337575,2037
1631290337579,2038
1631290337583,2039
1631290337587,2040
1631290337591,2040
1631290337595,2039
1631290337599,2036
1631290337603,2035
1631290337607,2039
1631290337611,2050
1631290337615,2076
1631290337619,2114
1631290337623,2161
1631290337627,2202
1631290337631,2223
1631290337635,2207
1631290337639,2158
1631290337643,2089
1631290337647,2026
1631290337651,1987
1631290337655,1980
1631290337659,1995
1631290337663,2019
1631290337667,2037
1631290337671,2047
1631290337675,2051
1631290337679,2052
1631290337683,2053
1631290337687,2054
1631290337691,2055
1631290337695,2055
1631290337699,2056
1631290337703,2058
1631290337707,2059
1631290337711,2060
1631290337715,2061
1631290337719,2062
1631290337723,2063
1631290337727,2064
1631290337731,2066
1631290337735,2067
1631290337739,2069
1631290337743,2070
1631290337747,2071
1631290337751,2072
1631290337755,2074
1631290337759,2075
1631290337763,2077
1631290337767,2078
1631290337771,2080
1631290337775,2081
1631290337779,2083
1631290337783,2086
1631290337787,2088
1631290337791,2090
1631290337795,2092
1631290337799,2093
1631290337803,2094
1631290337807,2096
1631290337811,2099
1631290337815,2103
1631290337819,2107
1631290337823,2112
1631290337827,2115
1631290337831,2118
1631290337835,2121
1631290337839,2124
1631290337843,2129
1631290337847,2134
1631290337851,2140
1631290337855,2146
1631290337859,2151
1631290337863,2156
1631290337867,2159
1631290337871,2161
1631290337875,2162
1631290337879,2162
1631290337883,2161
1631290337887,2159
1631290337891,2157
1631290337895,2154
1631290337899,2149
1631290337903,2143
1631290337907,2136
1631290337911,2127
1631290337915,2118
1631290337919,2108
1631290337923,2100
1631290337927,2093
1631290337931,2086
1631290337935,2082
1631290337939,2077
1631290337943,2074
1631290337947,2071
1631290337951,2069
1631290337955,2068
1631290337959,2066
1631290337963,2065
1631290337967,2064
1631290337971,2064
1631290337975,2064
1631290337979,2064
1631290337983,2065
1631290337987,2065
1631290337991,2065
1631290337995,2064
1631290337999,2064
1631290338003,2063
1631290338007,2063
1631290338011,2063
1631290338015,2064
1631290338019,2065
1631290338023,2066
1631290338027,2067
1631290338031,2067
1631290338035,2067
1631290338039,2066
1631290338043,2065
1631290338047,2065
1631290338051,2064
1631290338055,2065
1631290338059,2065
1631290338063,2066
1631290338067,2066
1631290338071,2066
1631290338075,2065
1631290338079,2064
1631290338083,2064
1631290338087,2064
1631290338091,2063
1631290338095,2063
1631290338099,2062
1631290338103,2062
1631290338107,2062
1631290338111,2062
1631290338115,2062
1631290338119,2061
1631290338123,2060
1631290338127,2058
1631290338131,2057
1631290338135,2057
1631290338139,2057
1631290338143,2058
1631290338147,2060
1631290338151,2060
1631290338155,2060
1631290338159,2058
1631290338163,2057
1631290338167,2056
1631290338171,2056
1631290338175,2056
1631290338179,2056
1631290338183,2056
1631290338187,2056
1631290338191,2055
1631290338195,2055
1631290338199,2054
1631290338203,2054
1631290338207,2055
1631290338211,2057
1631290338215,2060
1631290338219,2063
1631290338223,2065
1631290338227,2065
1631290338231,2064
1631290338235,2063
1631290338239,2061
1631290338243,2060
1631290338247,2059
1631290338251,2058
1631290338255,2057
1631290338259,2055
1631290338263,2054
1631290338267,2052
1631290338271,2052
1631290338275,2051
1631290338279,2050
1631290338283,2050
1631290338287,2049
1631290338291,2049
1631290338295,2049
1631290338299,2049
1631290338303,2049
1631290338307,2048
1631290338311,2048
1631290338315,2048
1631290338319,2048
1631290338323,2048
1631290338327,2047
1631290338331,2047
1631290338335,2047
1631290338339,2048
1631290338343,2048
1631290338347,2049
1631290338351,2049
1631290338355,2048
1631290338359,2045
1631290338363,2041
1631290338367,2043
1631290338371,2052
1631290338375,2073
1631290338379,2109
1631290338383,2156
1631290338387,2202
1631290338391,2231
1631290338395,2227
1631290338399,2185
1631290338403,2118
1631290338407,2048
1631290338411,1997
1631290338415,1977
1631290338419,1983
1631290338423,2004
1631290338427,2025
1631290338431,2037
1631290338435,2044
1631290338439,2047
1631290338443,2049
1631290338447,2051
1631290338451,2052
1631290338455,2052
1631290338459,2053
1631290338463,2054
1631290338467,2055
1631290338471,2057
1631290338475,2059
1631290338479,2060
1631290338483,2060
1631290338487,2060
1631290338491,2060
1631290338495,2060
1631290338499,2061
1631290338503,2064
1631290338507,2066
1631290338511,2069
1631290338515,2070
1631290338519,2071
1631290338523,2072
1631290338527,2072
1631290338531,2073
1631290338535,2074
1631290338539,2075
1631290338543,2078
1631290338547,2080
1631290338551,2083
1631290338555,2085
1631290338559,2087
1631290338563,2089
1631290338567,2091
1631290338571,2093
1631290338575,2096
1631290338579,2099
1631290338583,2103
1631290338587,2107
1631290338591,2110
1631290338595,2113
1631290338599,2115
1631290338603,2119
1631290338607,2122
1631290338611,2126
1631290338615,2129
1631290338619,2132
1631290338623,2135
1631290338627,2137
1631290338631,2139
1631290338635,2140
1631290338639,2140
1631290338643,2139
1631290338647,2137
1631290338651,2133
1631290338655,2128
1631290338659,2121
1631290338663,2113
1631290338667,2104
1631290338671,2094
1631290338675,2084
1631290338679,2075
1631290338683,2065
1631290338687,2056
1631290338691,2048
1631290338695,2042
1631290338699,2036
1631290338703,2032
1631290338707,2029
1631290338711,2027
1631290338715,2024
1631290338719,2022
1631290338723,2021
1631290338727,2019
1631290338731,2019
1631290338735,2019
1631290338739,2019
1631290338743,2020
1631290338747,2020
1631290338751,2021
1631290338755,2022
1631290338759,2022
1631290338763,2022
1631290338767,2022
1631290338771,2022
1631290338775,2023
1631290338779,2024
1631290338783,2025
1631290338787,2026
1631290338791,2026
1631290338795,2027
1631290338799,2027
1631290338803,2027
1631290338807,2028
1631290338811,2028
1631290338815,2027
1631290338819,2027
1631290338823,2027
1631290338827,2027
1631290338831,2027
1631290338835,2028
1631290338839,2027
1631290338843,2027
1631290338847,2026
1631290338851,2025
1631290338855,2025
1631290338859,2025
1631290338863,2025
1631290338867,2026
1631290338871,2025
1631290338875,2025
1631290338879,2024
1631290338883,2024
1631290338887,2023
1631290338891,2023
1631290338895,2023
1631290338899,2023
1631290338903,2023
1631290338907,2023
1631290338911,2023
1631290338915,2023
1631290338919,2022
1631290338923,2021
1631290338927,2021
1631290338931,2021
1631290338935,2021
1631290338939,2021
1631290338943,2022
1631290338947,2022
1631290338951,2022
1631290338955,2022
1631290338959,2022
1631290338963,2022
1631290338967,2021
1631290338971,2021
1631290338975,2021
1631290338979,2021
1631290338983,2022
1631290338987,2022
1631290338991,2024
1631290338995,2027
1631290338999,2029
1631290339003,2031
1631290339007,2032
1631290339011,2032
1631290339015,2031
1631290339019,2030
1631290339023,2030
1631290339027,2029
1631290339031,2030
1631290339035,2029
1631290339039,2028
1631290339043,2026
1631290339047,2024
1631290339051,2021
1631290339055,2019
1631290339059,2018
1631290339063,2017
1631290339067,2017
1631290339071,2018
1631290339075,2018
1631290339079,2017
1631290339083,2017
1631290339087,2016
1631290339091,2016
1631290339095,2015
1631290339099,2016
1631290339103,2016
1631290339107,2017
1631290339111,2017
1631290339115,2017
1631290339119,2017
1631290339123,2017
1631290339127,2016
1631290339131,2017
1631290339135,2018
1631290339139,2019
1631290339143,2018
1631290339147,2015
1631290339151,2014
1631290339155,2019
1631290339159,2033
1631290339163,2060
1631290339167,2100
1631290339171,2148
1631290339175,2189
1631290339179,2208
1631290339183,2190
1631290339187,2139
1631290339191,2068
1631290339195,2003
1631290339199,1962
1631290339203,1953
1631290339207,1967
1631290339211,1991
1631290339215,2010
1631290339219,2021
1631290339223,2025
1631290339227,2027
1631290339231,2029
1631290339235,2031
1631290339239,2031
1631290339243,2032
1631290339247,2032
1631290339251,2032
1631290339255,2033
1631290339259,2035
1631290339263,2037
1631290339267,2038
1631290339271,2039
1631290339275,2040
1631290339279,2041
1631290339283,2043
1631290339287,2043
1631290339291,2044
1631290339295,2045
1631290339299,2046
1631290339303,2048
1631290339307,2049
1631290339311,2051
1631290339315,2052
1631290339319,2054
1631290339323,2055
1631290339327,2056
1631290339331,2058
1631290339335,2061
1631290339339,2064
1631290339343,2067
1631290339347,2070
1631290339351,2072
1631290339355,2074
1631290339359,2076
1631290339363,2078
1631290339367,2081
1631290339371,2084
1631290339375,2088
1631290339379,2092
1631290339383,2097
1631290339387,2101
1631290339391,2106
1631290339395,2109
1631290339399,2113
1631290339403,2116
1631290339407,2118
1631290339411,2120
1631290339415,2123
1631290339419,2124
1631290339423,2126
1631290339427,2126
1631290339431,2126
1631290339435,2124
1631290339439,2121
1631290339443,2116
1631290339447,2110
1631290339451,2102
1631290339455,2093
1631290339459,2083
1631290339463,2074
1631290339467,2064
1631290339471,2055
1631290339475,2047
1631290339479,2039
1631290339483,2032
1631290339487,2026
1631290339491,2020
1631290339495,2016
1631290339499,2013
1631290339503,2011
1631290339507,2010
1631290339511,2009
1631290339515,2009
1631290339519,2007
1631290339523,2007
1631290339527,2006
1631290339531,2006
1631290339535,2006
1631290339539,2007
1631290339543,2007
1631290339547,2008
1631290339551,2009
1631290339555,2010
1631290339559,2010
1631290339563,2010
1631290339567,2010
1631290339571,2011
1631290339575,2011
1631290339579,2012
1631290339583,2014
1631290339587,2015
1631290339591,2015
1631290339595,2016
1631290339599,2016
1631290339603,2017
1631290339607,2017
1631290339611,2018
1631290339615,2018
1631290339619,2018
1631290339623,2018
1631290339627,2018
1631290339631,2018
1631290339635,2019
1631290339639,2019
1631290339643,2018
1631290339647,2018
1631290339651,2018
1631290339655,2017
1631290339659,2017
1631290339663,2018
1631290339667,2018
1631290339671,2019
1631290339675,2019
1631290339679,2018
1631290339683,2018
1631290339687,2018
1631290339691,2017
1631290339695,2018
1631290339699,2018
1631290339703,2019
1631290339707,2019
1631290339711,2020
1631290339715,2020
1631290339719,2019
1631290339723,2019
1631290339727,2019
1631290339731,2020
1631290339735,2020
1631290339739,2020
1631290339743,2021
1631290339747,2021
1631290339751,2022
1631290339755,2022
1631290339759,2022
1631290339763,2022
1631290339767,2022
1631290339771,2022
1631290339775,2022
1631290339779,2022
1631290339783,2022
1631290339787,2022
1631290339791,2022
1631290339795,2024
1631290339799,2025
1631290339803,2026
1631290339807,2028
1631290339811,2028
1631290339815,2029
1631290339819,2031
1631290339823,2032
1631290339827,2033
1631290339831,2034
1631290339835,2035
1631290339839,2035
1631290339843,2035
1631290339847,2034
1631290339851,2034
1631290339855,2033
1631290339859,2032
1631290339863,2031
1631290339867,2029
1631290339871,2029
1631290339875,2029
1631290339879,2028
1631290339883,2028
1631290339887,2028
1631290339891,2028
1631290339895,2028
1631290339899,2028
1631290339903,2028
1631290339907,2028
1631290339911,2028
1631290339915,2028
1631290339919,2028
1631290339923,2028
1631290339927,2028
1631290339931,2028
1631290339935,2028
1631290339939,2029
1631290339943,2030
1631290339947,2031
1631290339951,2032
1631290339955,2032
1631290339959,2030
1631290339963,2026
1631290339967,2025
1631290339971,2030
1631290339975,2044
1631290339979,2070
1631290339983,2108
1631290339987,2153
1631290339991,2194
1631290339995,2216
1631290339999,2206
1631290340003,2162
1631290340007,2095
1631290340011,2029
1631290340015,1984
1631290340019,1969
1631290340023,1981
1631290340027,2004
1631290340031,2025
1631290340035,2037
1631290340039,2040
1631290340043,2040
1631290340047,2040
1631290340051,2041
1631290340055,2042
1631290340059,2042
1631290340063,2044
1631290340067,2045
1631290340071,2046
1631290340075,2047
1631290340079,2048
1631290340083,2048
1631290340087,2049
1631290340091,2050
1631290340095,2051
1631290340099,2052
1631290340103,2054
1631290340107,2055
1631290340111,2057
1631290340115,2058
1631290340119,2059
1631290340123,2060
1631290340127,2061
1631290340131,2062
1631290340135,2063
1631290340139,2065
1631290340143,2067
1631290340147,2069
1631290340151,2071
1631290340155,2074
1631290340159,2076
1631290340163,2078
1631290340167,2081
1631290340171,2083
1631290340175,2086
1631290340179,2088
1631290340183,2092
1631290340187,2095
1631290340191,2099
1631290340195,2103
1631290340199,2107
1631290340203,2110
1631290340207,2113
1631290340211,2117
1631290340215,2120
1631290340219,2124
1631290340223,2128
1631290340227,2130
1631290340231,2133
1631290340235,2135
1631290340239,2136
1631290340243,2136
1631290340247,2136
1631290340251,2135
1631290340255,2133
1631290340259,2129
1631290340263,2125
1631290340267,2118
1631290340271,2110
1631290340275,2101
1631290340279,2091
1631290340283,2081
1631290340287,2070
1631290340291,2061
1631290340295,2053
1631290340299,2047
1631290340303,2042
1631290340307,2037
1631290340311,2032
1631290340315,2028
1631290340319,2025
1631290340323,2023
1631290340327,2021
1631290340331,2020
1631290340335,2020
1631290340339,2020
1631290340343,2020
1631290340347,2020
1631290340351,2021
1631290340355,2021
1631290340359,2021
1631290340363,2020
1631290340367,2020
1631290340371,2020
1631290340375,2021
1631290340379,2022
1631290340383,2023
1631290340387,2024
1631290340391,2025
1631290340395,2025
1631290340399,2026
1631290340403,2026
1631290340407,2026
1631290340411,2027
1631290340415,2027
1631290340419,2027
1631290340423,2028
1631290340427,2029
1631290340431,2030
1631290340435,2030
1631290340439,2030
1631290340443,2031
1631290340447,2030
1631290340451,2030
1631290340455,2030
1631290340459,2030
1631290340463,2031
1631290340467,2031
1631290340471,2032
1631290340475,2032
1631290340479,2032
1631290340483,2032
1631290340487,2031
1631290340491,2031
1631290340495,2030
1631290340499,2030
1631290340503,2031
1631290340507,2031
1631290340511,2032
1631290340515,2032
1631290340519,2032
1631290340523,2032
1631290340527,2032
1631290340531,2032
1631290340535,2032
1631290340539,2033
1631290340543,2033
1631290340547,2034
1631290340551,2034
1631290340555,2034
1631290340559,2034
1631290340563,2034
1631290340567,2034
1631290340571,2033
1631290340575,2033
1631290340579,2033
1631290340583,2034
1631290340587,2034
1631290340591,2035
1631290340595,2035
1631290340599,2034
1631290340603,2033
1631290340607,2032
1631290340611,2032
1631290340615,2033
1631290340619,2034
1631290340623,2036
1631290340627,2039
1631290340631,2041
1631290340635,2043
1631290340639,2044
1631290340643,2045
1631290340647,2045
1631290340651,2045
1631290340655,2045
1631290340659,2045
1631290340663,2046
1631290340667,2046
1631290340671,2046
1631290340675,2045
1631290340679,2043
1631290340683,2041
1631290340687,2039
1631290340691,2038
1631290340695,2038
1631290340699,2038
1631290340703,2038
1631290340707,2038
1631290340711,2038
1631290340715,2038
1631290340719,2037
1631290340723,2037
1631290340727,2037
1631290340731,2037
1631290340735,2037
1631290340739,2036
1631290340743,2037
1631290340747,2037
1631290340751,2037
1631290340755,2038
1631290340759,2037
1631290340763,2038
1631290340767,2038
1631290340771,2038
1631290340775,2038
1631290340779,2036
1631290340783,2033
1631290340787,2032
1631290340791,2036
1631290340795,2048
1631290340799,2075
1631290340803,2114
1631290340807,2161
1631290340811,2205
1631290340815,2227
1631290340819,2214
1631290340823,2166
1631290340827,2097
1631290340831,2031
1631290340835,1988
1631290340839,1976
1631290340843,1989
1631290340847,2012
1631290340851,2030
1631290340855,2040
1631290340859,2044
1631290340863,2045
1631290340867,2046
1631290340871,2048
1631290340875,2048
1631290340879,2049
1631290340883,2050
1631290340887,2050
1631290340891,2051
1631290340895,2052
1631290340899,2053
1631290340903,2054
1631290340907,2055
1631290340911,2056
1631290340915,2058
1631290340919,2059
1631290340923,2060
1631290340927,2060
1631290340931,2060
1631290340935,2061
1631290340939,2062
1631290340943,2064
1631290340947,2067
1631290340951,2069
1631290340955,2071
1631290340959,2072
1631290340963,2073
1631290340967,2074
1631290340971,2075
1631290340975,2077
1631290340979,2080
1631290340983,2083
1631290340987,2086
1631290340991,2089
1631290340995,2091
1631290340999,2093
1631290341003,2095
1631290341007,2098
1631290341011,2101
1631290341015,2105
1631290341019,2109
1631290341023,2114
1631290341027,2118
1631290341031,2121
1631290341035,2124
1631290341039,2127
1631290341043,2130
1631290341047,2132
1631290341051,2134
1631290341055,2135
1631290341059,2136
1631290341063,2136
1631290341067,2135
1631290341071,2134
1631290341075,2131
1631290341079,2127
1631290341083,2121
1631290341087,2113
1631290341091,2104
1631290341095,2095
1631290341099,2085
1631290341103,2075
1631290341107,2066
1631290341111,2057
1631290341115,2049
1631290341119,2043
1631290341123,2036
1631290341127,2030
1631290341131,2026
1631290341135,2022
1631290341139,2020
1631290341143,2018
1631290341147,2017
1631290341151,2017
1631290341155,2016
1631290341159,2015
1631290341163,2014
1631290341167,2014
1631290341171,2014
1631290341175,2015
1631290341179,2015
1631290341183,2016
1631290341187,2017
1631290341191,2017
1631290341195,2018
1631290341199,2019
1631290341203,2019
1631290341207,2019
1631290341211,2018
1631290341215,2018
1631290341219,2018
1631290341223,2019
1631290341227,2020
1631290341231,2022
1631290341235,2023
1631290341239,2023
1631290341243,2023
1631290341247,2022
1631290341251,2022
1631290341255,2022
1631290341259,2022
1631290341263,2022
1631290341267,2022
1631290341271,2023
1631290341275,2023
1631290341279,2023
1631290341283,2023
1631290341287,2023
1631290341291,2023
1631290341295,2022
1631290341299,2023
1631290341303,2023
1631290341307,2023
1631290341311,2024
1631290341315,2024
1631290341319,2023
1631290341323,2023
1631290341327,2023
1631290341331,2023
1631290341335,2024
1631290341339,2024
1631290341343,2025
1631290341347,2025
1631290341351,2026
1631290341355,2026
1631290341359,2026
1631290341363,2026
1631290341367,2025
1631290341371,2025
1631290341375,2026
1631290341379,2027
1631290341383,2027
1631290341387,2028
1631290341391,2028
1631290341395,2029
1631290341399,2029
1631290341403,2028
1631290341407,2028
1631290341411,2028
1631290341415,2029
1631290341419,2029
1631290341423,2030
1631290341427,2030
1631290341431,2031
1631290341435,2031
1631290341439,2031
1631290341443,2030
1631290341447,2029
1631290341451,2029
1631290341455,2028
1631290341459,2029
1631290341463,2030
1631290341467,2031
1631290341471,2033
1631290341475,2035
1631290341479,2037
1631290341483,2039
1631290341487,2040
1631290341491,2041
1631290341495,2041
1631290341499,2042
1631290341503,2042
1631290341507,2043
1631290341511,2043
1631290341515,2043
1631290341519,2042
1631290341523,2042
1631290341527,2040
1631290341531,2039
1631290341535,2038
1631290341539,2036
1631290341543,2035
1631290341547,2035
1631290341551,2035
1631290341555,2036
1631290341559,2036
1631290341563,2036
1631290341567,2035
1631290341571,2035
1631290341575,2035
1631290341579,2035
1631290341583,2036
1631290341587,2036
1631290341591,2036
1631290341595,2036
1631290341599,2036
1631290341603,2036
1631290341607,2036
1631290341611,2036
1631290341615,2037
1631290341619,2039
1631290341623,2040
1631290341627,2039
1631290341631,2037
1631290341635,2034
1631290341639,2034
1631290341643,2042
1631290341647,2058
1631290341651,2089
1631290341655,2131
1631290341659,2178
1631290341663,2217
1631290341667,2229
1631290341671,2206
1631290341675,2150
1631290341679,2080
1631290341683,2020
1631290341687,1987
1631290341691,1984
1631290341695,2003
1631290341699,2025
1631290341703,2041
1631290341707,2048
1631290341711,2049
1631290341715,2049
1631290341719,2050
1631290341723,2050
1631290341727,2050
1631290341731,2050
1631290341735,2051
1631290341739,2053
1631290341743,2054
1631290341747,2056
1631290341751,2057
1631290341755,2057
1631290341759,2058
1631290341763,2059
1631290341767,2061
1631290341771,2063
1631290341775,2065
1631290341779,2066
1631290341783,2066
1631290341787,2065
1631290341791,2065
1631290341795,2064
1631290341799,2065
1631290341803,2065
1631290341807,2066
1631290341811,2067
1631290341815,2069
1631290341819,2071
1631290341823,2073
1631290341827,2076
1631290341831,2078
1631290341835,2080
1631290341839,2082
1631290341843,2085
1631290341847,2087
1631290341851,2090
1631290341855,2093
1631290341859,2096
1631290341863,2099
1631290341867,2103
1631290341871,2107
1631290341875,2111
1631290341879,2114
1631290341883,2117
1631290341887,2121
1631290341891,2124
1631290341895,2127
1631290341899,2130
1631290341903,2132
1631290341907,2134
1631290341911,2136
1631290341915,2136
1631290341919,2136
1631290341923,2135
1631290341927,2132
1631290341931,2129
1631290341935,2124
1631290341939,2117
1631290341943,2110
1631290341947,2102
1631290341951,2093
1631290341955,2084
1631290341959,2074
1631290341963,2065
1631290341967,2057
1631290341971,2050
1631290341975,2045
1631290341979,2040
1631290341983,2036
1631290341987,2033
1631290341991,2031
1631290341995,2028
1631290341999,2026
1631290342003,2025
1631290342007,2023
1631290342011,2023
1631290342015,2022
1631290342019,2023
1631290342023,2023
1631290342027,2024
1631290342031,2025
1631290342035,2025
1631290342039,2025
1631290342043,2025
1631290342047,2024
1631290342051,2025
1631290342055,2025
1631290342059,2026
1631290342063,2027
1631290342067,2028
1631290342071,2029
1631290342075,2029
1631290342079,2029
1631290342083,2029
1631290342087,2028
1631290342091,2028
1631290342095,2028
1631290342099,2028
1631290342103,2028
1631290342107,2029
1631290342111,2030
1631290342115,2030
1631290342119,2030
1631290342123,2029
1631290342127,2028
1631290342131,2027
1631290342135,2027
1631290342139,2027
1631290342143,2028
1631290342147,2029
1631290342151,2029
1631290342155,2029
1631290342159,2029
1631290342163,2028
1631290342167,2027
1631290342171,2027
1631290342175,2027
1631290342179,2027
1631290342183,2028
1631290342187,2029
1631290342191,2030
1631290342195,2030
1631290342199,2030
1631290342203,2030
1631290342207,2030
1631290342211,2030
1631290342215,2030
1631290342219,2030
1631290342223,2031
1631290342227,2031
1631290342231,2032
1631290342235,2031
1631290342239,2031
1631290342243,2031
1631290342247,2030
1631290342251,2030
1631290342255,2030
1631290342259,2030
1631290342263,2031
1631290342267,2032
1631290342271,2032
1631290342275,2032
1631290342279,2032
1631290342283,2032
1631290342287,2031
1631290342291,2031
1631290342295,2030
1631290342299,2030
1631290342303,2030
1631290342307,2031
1631290342311,2032
1631290342315,2034
1631290342319,2036
1631290342323,2038
1631290342327,2039
1631290342331,2041
1631290342335,2042
1631290342339,2043
1631290342343,2043
1631290342347,2043
1631290342351,2044
1631290342355,2043
1631290342359,2043
1631290342363,2042
1631290342367,2041
1631290342371,2040
1631290342375,2038
1631290342379,2036
1631290342383,2035
1631290342387,2034
1631290342391,2034
1631290342395,2035
1631290342399,2035
1631290342403,2035
1631290342407,2034
1631290342411,2034
1631290342415,2034
1631290342419,2034
1631290342423,2035
1631290342427,2035
1631290342431,2036
1631290342435,2036
1631290342439,2036
1631290342443,2036
1631290342447,2036
1631290342451,2036
1631290342455,2037
1631290342459,2038
1631290342463,2039
1631290342467,2040
1631290342471,2040
1631290342475,2037
1631290342479,2034
1631290342483,2034
1631290342487,2040
1631290342491,2054
1631290342495,2083
1631290342499,2122
1631290342503,2168
1631290342507,2206
1631290342511,2221
1631290342515,2199
1631290342519,2146
1631290342523,2076
1631290342527,2016
1631290342531,1981
1631290342535,1977
1631290342539,1996
1631290342543,2020
1631290342547,2037
1631290342551,2046
1631290342555,2048
1631290342559,2048
1631290342563,2048
1631290342567,2049
1631290342571,2050
1631290342575,2051
1631290342579,2052
1631290342583,2054
1631290342587,2056
1631290342591,2057
1631290342595,2058
1631290342599,2058
1631290342603,2059
1631290342607,2060
1631290342611,2062
1631290342615,2063
1631290342619,2064
1631290342623,2066
1631290342627,2067
1631290342631,2068
1631290342635,2070
1631290342639,2071
1631290342643,2073
1631290342647,2074
1631290342651,2075
1631290342655,2077
1631290342659,2079
1631290342663,2081
1631290342667,2083
1631290342671,2086
1631290342675,2088
1631290342679,2090
1631290342683,2092
1631290342687,2094
1631290342691,2096
1631290342695,2099
1631290342699,2102
1631290342703,2105
1631290342707,2109
1631290342711,2112
1631290342715,2116
1631290342719,2119
1631290342723,2122
1631290342727,2125
1631290342731,2128
1631290342735,2131
1631290342739,2134
1631290342743,2136
1631290342747,2139
1631290342751,2140
1631290342755,2141
1631290342759,2141
1631290342763,2141
1631290342767,2139
1631290342771,2137
1631290342775,2133
1631290342779,2128
1631290342783,2122
1631290342787,2114
1631290342791,2106
1631290342795,2097
1631290342799,2087
1631290342803,2077
1631290342807,2068
1631290342811,2060
1631290342815,2053
1631290342819,2048
1631290342823,2043
1631290342827,2039
1631290342831,2036
1631290342835,2033
1631290342839,2031
1631290342843,2029
1631290342847,2027
1631290342851,2026
1631290342855,2026
1631290342859,2025
1631290342863,2026
1631290342867,2026
1631290342871,2027
1631290342875,2027
1631290342879,2027
1631290342883,2027
1631290342887,2026
1631290342891,2026
1631290342895,2026
1631290342899,2027
1631290342903,2028
1631290342907,2029
1631290342911,2029
1631290342915,2029
1631290342919,2029
1631290342923,2029
1631290342927,2029
1631290342931,2029
1631290342935,2029
1631290342939,2029
1631290342943,2029
1631290342947,2029
1631290342951,2030
1631290342955,2030
1631290342959,2030
1631290342963,2029
1631290342967,2029
1631290342971,2028
1631290342975,2028
1631290342979,2028
1631290342983,2029
1631290342987,2029
1631290342991,2030
1631290342995,2029
1631290342999,2029
1631290343003,2029
1631290343007,2028
1631290343011,2028
1631290343015,2029
1631290343019,2029
1631290343023,2030
1631290343027,2030
1631290343031,2031
1631290343035,2031
1631290343039,2030
1631290343043,2030
1631290343047,2030
1631290343051,2030
1631290343055,2030
1631290343059,2030
1631290343063,2031
1631290343067,2031
1631290343071,2032
1631290343075,2032
1631290343079,2032
1631290343083,2031
1631290343087,2031
1631290343091,2031
1631290343095,2031
1631290343099,2031
1631290343103,2031
1631290343107,2032
1631290343111,2032
1631290343115,2033
1631290343119,2033
1631290343123,2033
1631290343127,2032
1631290343131,2031
1631290343135,2030
1631290343139,2030
1631290343143,2030
1631290343147,2032
1631290343151,2034
1631290343155,2036
1631290343159,2038
1631290343163,2040
1631290343167,2041
1631290343171,2042
1631290343175,2043
1631290343179,2043
1631290343183,2043
1631290343187,2043
1631290343191,2044
1631290343195,2044
1631290343199,2043
1631290343203,2042
1631290343207,2041
1631290343211,2039
1631290343215,2037
1631290343219,2035
1631290343223,2035
1631290343227,2035
1631290343231,2036
1631290343235,2036
1631290343239,2036
1631290343243,2036
1631290343247,2035
1631290343251,2035
1631290343255,2035
1631290343259,2035
1631290343263,2035
1631290343267,2035
1631290343271,2036
1631290343275,2036
1631290343279,2036
1631290343283,2036
1631290343287,2036
1631290343291,2036
1631290343295,2037
1631290343299,2038
1631290343303,2039
1631290343307,2039
1631290343311,2037
1631290343315,2034
1631290343319,2035
1631290343323,2041
1631290343327,2057
1631290343331,2087
1631290343335,2129
1631290343339,2175
1631290343343,2211
1631290343347,2218
1631290343351,2189
1631290343355,2130
1631290343359,2060
1631290343363,2005
1631290343367,1978
1631290343371,1980
1631290343375,2000
1631290343379,2023
1631290343383,2037
1631290343387,2045
1631290343391,2047
1631290343395,2048
1631290343399,2049
1631290343403,2050
1631290343407,2050
1631290343411,2050
1631290343415,2051
1631290343419,2053
1631290343423,2054
1631290343427,2055
1631290343431,2057
1631290343435,2058
1631290343439,2058
1631290343443,2059
1631290343447,2060
1631290343451,2061
1631290343455,2062
1631290343459,2063
1631290343463,2064
1631290343467,2066
1631290343471,2068
1631290343475,2069
1631290343479,2070
1631290343483,2071
1631290343487,2072
1631290343491,2074
1631290343495,2075
1631290343499,2077
1631290343503,2080
1631290343507,2083
1631290343511,2085
1631290343515,2087
1631290343519,2089
1631290343523,2091
1631290343527,2093
1631290343531,2095
1631290343535,2098
1631290343539,2101
1631290343543,2105
1631290343547,2109
1631290343551,2113
1631290343555,2116
1631290343559,2120
1631290343563,2122
1631290343567,2125
1631290343571,2127
1631290343575,2130
1631290343579,2132
1631290343583,2134
1631290343587,2136
1631290343591,2137
1631290343595,2137
1631290343599,2137
1631290343603,2135
1631290343607,2132
1631290343611,2128
1631290343615,2123
1631290343619,2116
1631290343623,2108
1631290343627,2100
1631290343631,2091
1631290343635,2082
1631290343639,2072
1631290343643,2063
1631290343647,2055
1631290343651,2048
1631290343655,2044
1631290343659,2039
1631290343663,2036
1631290343667,2032
1631290343671,2029
1631290343675,2027
1631290343679,2025
1631290343683,2024
1631290343687,2023
1631290343691,2023
1631290343695,2023
1631290343699,2023
1631290343703,2023
1631290343707,2024
1631290343711,2025
1631290343715,2025
1631290343719,2025
1631290343723,2025
1631290343727,2025
1631290343731,2025
1631290343735,2026
1631290343739,2026
1631290343743,2027
1631290343747,2028
1631290343751,2029
1631290343755,2029
1631290343759,2029
1631290343763,2029
1631290343767,2029
1631290343771,2029
1631290343775,2029
1631290343779,2029
1631290343783,2030
1631290343787,2030
1631290343791,2030
1631290343795,2031
1631290343799,2030
1631290343803,2030
1631290343807,2029
1631290343811,2029
1631290343815,2029
1631290343819,2029
1631290343823,2030
1631290343827,2030
1631290343831,2030
1631290343835,2030
1631290343839,2030
1631290343843,2030
1631290343847,2029
1631290343851,2029
1631290343855,2029
1631290343859,2029
1631290343863,2029
1631290343867,2030
1631290343871,2030
1631290343875,2031
1631290343879,2031
1631290343883,2031
1631290343887,2030
1631290343891,2030
1631290343895,2030
1631290343899,2031
1631290343903,2031
1631290343907,2032
1631290343911,2032
1631290343915,2032
1631290343919,2032
1631290343923,2032
1631290343927,2032
1631290343931,2032
1631290343935,2032
1631290343939,2031
1631290343943,2032
1631290343947,2032
1631290343951,2032
1631290343955,2032
1631290343959,2033
1631290343963,2035
1631290343967,2037
1631290343971,2040
1631290343975,2042
1631290343979,2044
1631290343983,2044
1631290343987,2044
1631290343991,2044
1631290343995,2044
1631290343999,2043
1631290344003,2043
1631290344007,2042
1631290344011,2041
1631290344015,2039
1631290344019,2037
1631290344023,2036
1631290344027,2036
1631290344031,2036
1631290344035,2036
1631290344039,2036
1631290344043,2035
1631290344047,2035
1631290344051,2034
1631290344055,2034
1631290344059,2034
1631290344063,2034
1631290344067,2035
1631290344071,2035
1631290344075,2035
1631290344079,2035
1631290344083,2035
1631290344087,2035
1631290344091,2035
1631290344095,2036
1631290344099,2037
1631290344103,2038
1631290344107,2037
1631290344111,2035
1631290344115,2032
1631290344119,2032
1631290344123,2039
1631290344127,2055
1631290344131,2085
1631290344135,2126
1631290344139,2171
1631290344143,2205
1631290344147,2213
1631290344151,2185
1631290344155,2128
1631290344159,2059
1631290344163,2004
1631290344167,1975
1631290344171,1977
1631290344175,1997
1631290344179,2021
1631290344183,2037
1631290344187,2045
1631290344191,2047
1631290344195,2047
1631290344199,2048
1631290344203,2048
1631290344207,2048
1631290344211,2049
1631290344215,2050
1631290344219,2051
1631290344223,2053
1631290344227,2054
1631290344231,2056
1631290344235,2056
1631290344239,2057
1631290344243,2058
1631290344247,2058
1631290344251,2059
1631290344255,2060
1631290344259,2061
1631290344263,2063
1631290344267,2064
1631290344271,2065
1631290344275,2067
1631290344279,2068
1631290344283,2069
1631290344287,2070
1631290344291,2071
1631290344295,2073
1631290344299,2075
1631290344303,2077
1631290344307,2079
1631290344311,2081
1631290344315,2083
1631290344319,2086
1631290344323,2088
1631290344327,2090
1631290344331,2093
1631290344335,2096
1631290344339,2099
1631290344343,2102
1631290344347,2105
1631290344351,2109
1631290344355,2112
1631290344359,2116
1631290344363,2119
1631290344367,2122
1631290344371,2124
1631290344375,2127
1631290344379,2129
1631290344383,2131
1631290344387,2132
1631290344391,2133
1631290344395,2133
1631290344399,2132
1631290344403,2131
1631290344407,2128
1631290344411,2123
1631290344415,2118
1631290344419,2111
1631290344423,2103
1631290344427,2095
1631290344431,2086
1631290344435,2076
1631290344439,2067
1631290344443,2058
1631290344447,2050
1631290344451,2044
1631290344455,2038
1631290344459,2034
1631290344463,2030
1631290344467,2027
1631290344471,2025
1631290344475,2023
1631290344479,2022
1631290344483,2020
1631290344487,2019
1631290344491,2018
1631290344495,2018
1631290344499,2018
1631290344503,2019
1631290344507,2020
1631290344511,2021
1631290344515,2021
1631290344519,2021
1631290344523,2022
1631290344527,2022
1631290344531,2022
1631290344535,2022
1631290344539,2023
1631290344543,2024
1631290344547,2025
1631290344551,2025
1631290344555,2026
1631290344559,2026
1631290344563,2025
1631290344567,2025
1631290344571,2025
1631290344575,2025
1631290344579,2026
1631290344583,2026
1631290344587,2027
1631290344591,2027
1631290344595,2027
1631290344599,2027
1631290344603,2027
1631290344607,2026
1631290344611,2026
1631290344615,2026
1631290344619,2026
1631290344623,2026
1631290344627,2027
1631290344631,2027
1631290344635,2027
1631290344639,2027
1631290344643,2027
1631290344647,2027
1631290344651,2027
1631290344655,2027
1631290344659,2027
1631290344663,2027
1631290344667,2028
1631290344671,2029
1631290344675,2029
1631290344679,2029
1631290344683,2028
1631290344687,2028
1631290344691,2028
1631290344695,2028
1631290344699,2028
1631290344703,2029
1631290344707,2029
1631290344711,2030
1631290344715,2030
1631290344719,2030
1631290344723,2029
1631290344727,2028
1631290344731,2028
1631290344735,2028
1631290344739,2029
1631290344743,2032
1631290344747,2035
1631290344751,2038
1631290344755,2041
1631290344759,2043
1631290344763,2043
1631290344767,2042
1631290344771,2041
1631290344775,2040
1631290344779,2040
1631290344783,2040
1631290344787,2040
1631290344791,2038
1631290344795,2036
1631290344799,2034
1631290344803,2033
1631290344807,2032
1631290344811,2032
1631290344815,2032
1631290344819,2033
1631290344823,2033
1631290344827,2033
1631290344831,2034
1631290344835,2033
1631290344839,2033
1631290344843,2033
1631290344847,2032
1631290344851,2032
1631290344855,2032
1631290344859,2033
1631290344863,2033
1631290344867,2034
1631290344871,2034
1631290344875,2035
1631290344879,2036
1631290344883,2036
1631290344887,2035
1631290344891,2032
1631290344895,2029
1631290344899,2032
1631290344903,2041
1631290344907,2061
1631290344911,2095
1631290344915,2138
1631290344919,2182
1631290344923,2209
1631290344927,2205
1631290344931,2167
1631290344935,2103
1631290344939,2037
1631290344943,1990
1631290344947,1973
1631290344951,1982
1631290344955,2005
1631290344959,2026
1631290344963,2039
1631290344967,2044
1631290344971,2045
1631290344975,2046
1631290344979,2048
1631290344983,2048
1631290344987,2048
1631290344991,2049
1631290344995,2051
1631290344999,2052
1631290345003,2052
1631290345007,2053
1631290345011,2053
1631290345015,2054
1631290345019,2055
1631290345023,2056
1631290345027,2058
1631290345031,2059
1631290345035,2061
1631290345039,2062
1631290345043,2063
1631290345047,2063
1631290345051,2065
1631290345055,2066
1631290345059,2067
1631290345063,2069
1631290345067,2071
1631290345071,2073
1631290345075,2075
1631290345079,2077
1631290345083,2078
1631290345087,2079
1631290345091,2081
1631290345095,2083
1631290345099,2086
1631290345103,2089
1631290345107,2092
1631290345111,2095
1631290345115,2098
1631290345119,2101
1631290345123,2103
1631290345127,2106
1631290345131,2109
1631290345135,2113
1631290345139,2117
1631290345143,2120
1631290345147,2124
1631290345151,2126
1631290345155,2128
1631290345159,2129
1631290345163,2130
1631290345167,2130
1631290345171,2131
1631290345175,2131
1631290345179,2130
1631290345183,2129
1631290345187,2126
1631290345191,2122
1631290345195,2116
1631290345199,2109
1631290345203,2100
1631290345207,2091
1631290345211,2082
1631290345215,2073
1631290345219,2064
1631290345223,2057
1631290345227,2050
1631290345231,2046
1631290345235,2040
1631290345239,2036
1631290345243,2032
1631290345247,2028
1631290345251,2025
1631290345255,2024
1631290345259,2024
1631290345263,2024
1631290345267,2024
1631290345271,2024
1631290345275,2024
1631290345279,2023
1631290345283,2023
1631290345287,2023
1631290345291,2024
1631290345295,2025
1631290345299,2026
1631290345303,2027
1631290345307,2027
1631290345311,2028
1631290345315,2028
1631290345319,2028
1631290345323,2028
1631290345327,2028
1631290345331,2029
1631290345335,2029
1631290345339,2030
1631290345343,2030
1631290345347,2030
1631290345351,2030
1631290345355,2030
1631290345359,2030
1631290345363,2030
1631290345367,2030
1631290345371,2030
1631290345375,2030
1631290345379,2031
1631290345383,2031
1631290345387,2031
1631290345391,2031
1631290345395,2032
1631290345399,2032
1631290345403,2031
1631290345407,2031
1631290345411,2030
1631290345415,2030
1631290345419,2030
1631290345423,2031
1631290345427,2031
1631290345431,2032
1631290345435,2032
1631290345439,2032
1631290345443,2032
1631290345447,2031
1631290345451,2031
1631290345455,2031
1631290345459,2031
1631290345463,2032
1631290345467,2032
1631290345471,2033
1631290345475,2034
1631290345479,2034
1631290345483,2034
1631290345487,2034
1631290345491,2033
1631290345495,2033
1631290345499,2032
1631290345503,2032
1631290345507,2033
1631290345511,2033
1631290345515,2034
1631290345519,2034
1631290345523,2035
1631290345527,2037
1631290345531,2040
1631290345535,2043
1631290345539,2045
1631290345543,2046
1631290345547,2046
1631290345551,2046
1631290345555,2045
1631290345559,2045
1631290345563,2044
1631290345567,2044
1631290345571,2043
1631290345575,2041
1631290345579,2038
1631290345583,2036
1631290345587,2035
1631290345591,2035
1631290345595,2036
1631290345599,2036
1631290345603,2036
1631290345607,2036
1631290345611,2035
1631290345615,2036
1631290345619,2036
1631290345623,2036
1631290345627,2036
1631290345631,2035
1631290345635,2035
1631290345639,2034
1631290345643,2034
1631290345647,2034
1631290345651,2035
1631290345655,2035
1631290345659,2036
1631290345663,2037
1631290345667,2038
1631290345671,2037
1631290345675,2034
1631290345679,2033
1631290345683,2036
1631290345687,2047
1631290345691,2068
1631290345695,2104
1631290345699,2149
1631290345703,2191
1631290345707,2214
1631290345711,2202
1631290345715,2155
1631290345719,2087
1631290345723,2023
1631290345727,1981
1631290345731,1969
1631290345735,1983
1631290345739,2006
1631290345743,2026
1631290345747,2037
1631290345751,2042
1631290345755,2044
1631290345759,2046
1631290345763,2048
1631290345767,2048
1631290345771,2048
1631290345775,2049
1631290345779,2050
1631290345783,2052
1631290345787,2054
1631290345791,2055
1631290345795,2056
1631290345799,2057
1631290345803,2057
1631290345807,2057
1631290345811,2058
1631290345815,2059
1631290345819,2060
1631290345823,2062
1631290345827,2064
1631290345831,2066
1631290345835,2067
1631290345839,2068
1631290345843,2069
1631290345847,2070
1631290345851,2072
1631290345855,2074
1631290345859,2076
1631290345863,2078
1631290345867,2079
1631290345871,2082
1631290345875,2084
1631290345879,2085
1631290345883,2088
1631290345887,2090
1631290345891,2092
1631290345895,2095
1631290345899,2098
1631290345903,2101
1631290345907,2104
1631290345911,2107
1631290345915,2111
1631290345919,2114
1631290345923,2117
1631290345927,2119
1631290345931,2122
1631290345935,2123
1631290345939,2125
1631290345943,2128
1631290345947,2130
1631290345951,2131
1631290345955,2132
1631290345959,2131
1631290345963,2130
1631290345967,2127
1631290345971,2124
1631290345975,2119
1631290345979,2113
1631290345983,2107
1631290345987,2099
1631290345991,2090
1631290345995,2080
1631290345999,2071
1631290346003,2062
1631290346007,2053
1631290346011,2046
1631290346015,2040
1631290346019,2034
1631290346023,2031
1631290346027,2027
1631290346031,2025
1631290346035,2023
1631290346039,2021
1631290346043,2020
1631290346047,2018
1631290346051,2017
1631290346055,2017
1631290346059,2017
1631290346063,2018
1631290346067,2018
1631290346071,2019
1631290346075,2020
1631290346079,2020
1631290346083,2020
1631290346087,2020
1631290346091,2020
1631290346095,2020
1631290346099,2021
1631290346103,2021
1631290346107,2021
1631290346111,2022
1631290346115,2021
1631290346119,2021
1631290346123,2022
1631290346127,2022
1631290346131,2021
1631290346135,2021
1631290346139,2021
1631290346143,2022
1631290346147,2022
1631290346151,2023
1631290346155,2023
1631290346159,2023
1631290346163,2023
1631290346167,2022
1631290346171,2022
1631290346175,2023
1631290346179,2023
1631290346183,2023
1631290346187,2024
1631290346191,2024
1631290346195,2024
1631290346199,2023
1631290346203,2023
1631290346207,2022
1631290346211,2022
1631290346215,2022
1631290346219,2023
1631290346223,2024
1631290346227,2024
1631290346231,2024
1631290346235,2024
1631290346239,2023
1631290346243,2023
1631290346247,2023
1631290346251,2024
1631290346255,2024
1631290346259,2025
1631290346263,2026
1631290346267,2026
1631290346271,2026
1631290346275,2026
1631290346279,2026
1631290346283,2028
1631290346287,2029
1631290346291,2033
1631290346295,2036
1631290346299,2039
1631290346303,2040
1631290346307,2040
1631290346311,2039
1631290346315,2038
1631290346319,2036
1631290346323,2035
1631290346327,2033
1631290346331,2032
1631290346335,2030
1631290346339,2029
1631290346343,2029
1631290346347,2029
1631290346351,2029
1631290346355,2030
1631290346359,2029
1631290346363,2029
1631290346367,2029
1631290346371,2029
1631290346375,2029
1631290346379,2029
1631290346383,2030
1631290346387,2030
1631290346391,2031
1631290346395,2031
1631290346399,2031
1631290346403,2031
1631290346407,2030
1631290346411,2031
1631290346415,2032
1631290346419,2033
1631290346423,2034
1631290346427,2033
1631290346431,2029
1631290346435,2027
1631290346439,2030
1631290346443,2043
1631290346447,2067
1631290346451,2107
1631290346455,2154
1631290346459,2196
1631290346463,2215
1631290346467,2198
1631290346471,2148
1631290346475,2078
1631290346479,2014
1631290346483,1975
1631290346487,1965
1631290346491,1980
1631290346495,2003
1631290346499,2022
1631290346503,2034
1631290346507,2040
1631290346511,2043
1631290346515,2046
1631290346519,2048
1631290346523,2048
1631290346527,2049
1631290346531,2050
1631290346535,2051
1631290346539,2053
1631290346543,2055
1631290346547,2056
1631290346551,2058
1631290346555,2059
1631290346559,2060
1631290346563,2060
1631290346567,2061
1631290346571,2062
1631290346575,2063
1631290346579,2065
1631290346583,2066
1631290346587,2067
1631290346591,2069
1631290346595,2071
1631290346599,2073
1631290346603,2074
1631290346607,2075
1631290346611,2077
1631290346615,2078
1631290346619,2080
1631290346623,2082
1631290346627,2084
1631290346631,2086
1631290346635,2089
1631290346639,2091
1631290346643,2093
1631290346647,2096
1631290346651,2099
1631290346655,2102
1631290346659,2105
1631290346663,2108
1631290346667,2111
1631290346671,2115
1631290346675,2118
1631290346679,2121
1631290346683,2123
1631290346687,2125
1631290346691,2127
1631290346695,2129
1631290346699,2131
1631290346703,2133
1631290346707,2134
1631290346711,2134
1631290346715,2133
1631290346719,2131
1631290346723,2129
1631290346727,2125
1631290346731,2119
1631290346735,2113
1631290346739,2105
1631290346743,2097
1631290346747,2088
1631290346751,2079
1631290346755,2071
1631290346759,2062
1631290346763,2055
1631290346767,2048
1631290346771,2043
1631290346775,2038
1631290346779,2035
1631290346783,2032
1631290346787,2029
1631290346791,2027
1631290346795,2026
1631290346799,2025
1631290346803,2024
1631290346807,2023
1631290346811,2023
1631290346815,2023
1631290346819,2023
1631290346823,2024
1631290346827,2025
1631290346831,2026
1631290346835,2026
1631290346839,2026
1631290346843,2026
1631290346847,2026
1631290346851,2027
1631290346855,2027
1631290346859,2028
1631290346863,2029
1631290346867,2029
1631290346871,2029
1631290346875,2030
1631290346879,2030
1631290346883,2030
1631290346887,2029
1631290346891,2029
1631290346895,2029
1631290346899,2029
1631290346903,2030
1631290346907,2030
1631290346911,2031
1631290346915,2031
1631290346919,2030
1631290346923,2030
1631290346927,2029
1631290346931,2029
1631290346935,2029
1631290346939,2030
1631290346943,2030
1631290346947,2031
1631290346951,2031
1631290346955,2031
1631290346959,2031
1631290346963,2031
1631290346967,2031
1631290346971,2031
1631290346975,2032
1631290346979,2032
1631290346983,2033
1631290346987,2033
1631290346991,2034
1631290346995,2034
1631290346999,2034
1631290347003,2033
1631290347007,2033
1631290347011,2033
1631290347015,2033
1631290347019,2034
1631290347023,2034
1631290347027,2035
1631290347031,2035
1631290347035,2035
1631290347039,2035
1631290347043,2035
1631290347047,2034
1631290347051,2034
1631290347055,2033
1631290347059,2033
1631290347063,2034
1631290347067,2035
1631290347071,2037
1631290347075,2038
1631290347079,2040
1631290347083,2042
1631290347087,2044
1631290347091,2045
1631290347095,2046
1631290347099,2047
1631290347103,2048
1631290347107,2048
1631290347111,2048
1631290347115,2048
1631290347119,2048
1631290347123,2048
1631290347127,2046
1631290347131,2043
1631290347135,2041
1631290347139,2040
1631290347143,2039
1631290347147,2040
1631290347151,2040
1631290347155,2041
1631290347159,2041
1631290347163,2040
1631290347167,2040
1631290347171,2039
1631290347175,2040
1631290347179,2039
1631290347183,2040
1631290347187,2040
1631290347191,2040
1631290347195,2040
1631290347199,2041
1631290347203,2041
1631290347207,2041
1631290347211,2041
1631290347215,2042
1631290347219,2043
1631290347223,2044
1631290347227,2043
1631290347231,2041
1631290347235,2039
1631290347239,2041
1631290347243,2049
1631290347247,2069
1631290347251,2103
1631290347255,2145
1631290347259,2188
1631290347263,2216
1631290347267,2212
1631290347271,2174
1631290347275,2111
1631290347279,2045
1631290347283,1998
1631290347287,1980
1631290347291,1990
1631290347295,2013
1631290347299,2035
1631290347303,2048
1631290347307,2052
1631290347311,2054
1631290347315,2054
1631290347319,2056
1631290347323,2056
1631290347327,2055
1631290347331,2056
1631290347335,2057
1631290347339,2058
1631290347343,2060
1631290347347,2061
1631290347351,2062
1631290347355,2063
1631290347359,2064
1631290347363,2064
1631290347367,2064
1631290347371,2065
1631290347375,2066
1631290347379,2068
1631290347383,2069
1631290347387,2071
1631290347391,2072
1631290347395,2074
1631290347399,2075
1631290347403,2076
1631290347407,2077
1631290347411,2078
1631290347415,2080
1631290347419,2082
1631290347423,2084
1631290347427,2086
1631290347431,2088
1631290347435,2091
1631290347439,2093
1631290347443,2095
1631290347447,2097
1631290347451,2100
1631290347455,2103
1631290347459,2105
1631290347463,2109
1631290347467,2112
1631290347471,2116
1631290347475,2119
1631290347479,2122
1631290347483,2125
1631290347487,2126
1631290347491,2128
1631290347495,2130
1631290347499,2132
1631290347503,2134
1631290347507,2135
1631290347511,2135
1631290347515,2135
1631290347519,2133
1631290347523,2132
1631290347527,2129
1631290347531,2125
1631290347535,2120
1631290347539,2113
1631290347543,2106
1631290347547,2098
1631290347551,2090
1631290347555,2081
1631290347559,2072
1631290347563,2064
1631290347567,2056
1631290347571,2049
1631290347575,2045
1631290347579,2041
1631290347583,2037
1631290347587,2035
1631290347591,2033
1631290347595,2031
1631290347599,2029
1631290347603,2028
1631290347607,2027
1631290347611,2027
1631290347615,2027
1631290347619,2027
1631290347623,2027
1631290347627,2028
1631290347631,2028
1631290347635,2029
1631290347639,2029
1631290347643,2029
1631290347647,2030
1631290347651,2030
1631290347655,2030
1631290347659,2031
1631290347663,2031
1631290347667,2032
1631290347671,2032
1631290347675,2032
1631290347679,2032
1631290347683,2032
1631290347687,2032
1631290347691,2032
1631290347695,2032
1631290347699,2033
1631290347703,2033
1631290347707,2033
1631290347711,2033
1631290347715,2033
1631290347719,2033
1631290347723,2033
1631290347727,2032
1631290347731,2032
1631290347735,2033
1631290347739,2033
1631290347743,2033
1631290347747,2033
1631290347751,2034
1631290347755,2033
1631290347759,2033
1631290347763,2033
1631290347767,2032
1631290347771,2032
1631290347775,2032
1631290347779,2033
1631290347783,2033
1631290347787,2034
1631290347791,2034
1631290347795,2034
1631290347799,2034
1631290347803,2033
1631290347807,2033
1631290347811,2033
1631290347815,2033
1631290347819,2034
1631290347823,2035
1631290347827,2035
1631290347831,2036
1631290347835,2035
1631290347839,2035
1631290347843,2034
1631290347847,2033
1631290347851,2033
1631290347855,2034
1631290347859,2035
1631290347863,2038
1631290347867,2040
1631290347871,2042
1631290347875,2044
1631290347879,2045
1631290347883,2046
1631290347887,2046
1631290347891,2046
1631290347895,2046
1631290347899,2046
1631290347903,2046
1631290347907,2047
1631290347911,2047
1631290347915,2046
1631290347919,2043
1631290347923,2041
1631290347927,2039
1631290347931,2038
1631290347935,2038
1631290347939,2038
1631290347943,2039
1631290347947,2039
1631290347951,2039
1631290347955,2039
1631290347959,2038
1631290347963,2038
1631290347967,2037
1631290347971,2037
1631290347975,2038
1631290347979,2038
1631290347983,2038
1631290347987,2039
1631290347991,2039
1631290347995,2039
1631290347999,2039
1631290348003,2040
1631290348007,2041
1631290348011,2042
1631290348015,2041
1631290348019,2038
1631290348023,2036
1631290348027,2037
1631290348031,2044
1631290348035,2059
1631290348039,2087
1631290348043,2126
1631290348047,2168
1631290348051,2203
1631290348055,2212
1631290348059,2188
1631290348063,2134
1631290348067,2066
1631290348071,2011
1631290348075,1982
1631290348079,1982
1631290348083,2003
1631290348087,2027
1631290348091,2043
1631290348095,2050
1631290348099,2051
1631290348103,2052
1631290348107,2053
1631290348111,2054
1631290348115,2054
1631290348119,2055
1631290348123,2056
1631290348127,2056
1631290348131,2057
1631290348135,2057
1631290348139,2058
1631290348143,2060
1631290348147,2061
1631290348151,2062
1631290348155,2063
1631290348159,2064
1631290348163,2064
1631290348167,2065
1631290348171,2066
1631290348175,2067
1631290348179,2069
1631290348183,2070
1631290348187,2072
1631290348191,2074
1631290348195,2075
1631290348199,2077
1631290348203,2078
1631290348207,2079
1631290348211,2081
1631290348215,2083
1631290348219,2085
1631290348223,2088
1631290348227,2091
1631290348231,2093
1631290348235,2096
1631290348239,2098
1631290348243,2101
1631290348247,2103
1631290348251,2106
1631290348255,2109
1631290348259,2112
1631290348263,2116
1631290348267,2119
1631290348271,2123
1631290348275,2125
1631290348279,2127
1631290348283,2129
1631290348287,2130
1631290348291,2132
1631290348295,2133
1631290348299,2134
1631290348303,2134
1631290348307,2134
1631290348311,2132
1631290348315,2130
1631290348319,2125
1631290348323,2120
1631290348327,2113
1631290348331,2105
1631290348335,2096
1631290348339,2088
1631290348343,2079
1631290348347,2071
1631290348351,2063
1631290348355,2056
1631290348359,2049
1631290348363,2044
1631290348367,2039
1631290348371,2035
1631290348375,2032
1631290348379,2031
1631290348383,2029
1631290348387,2029
1631290348391,2028
1631290348395,2028
1631290348399,2027
1631290348403,2026
1631290348407,2026
1631290348411,2026
1631290348415,2026
1631290348419,2027
1631290348423,2028
1631290348427,2029
1631290348431,2029
1631290348435,2030
1631290348439,2029
1631290348443,2029
1631290348447,2029
1631290348451,2030
1631290348455,2030
1631290348459,2031
1631290348463,2031
1631290348467,2032
1631290348471,2032
1631290348475,2033
1631290348479,2032
1631290348483,2032
1631290348487,2032
1631290348491,2032
1631290348495,2031
1631290348499,2032
1631290348503,2033
1631290348507,2033
1631290348511,2034
1631290348515,2033
1631290348519,2033
1631290348523,2032
1631290348527,2032
1631290348531,2031
1631290348535,2032
1631290348539,2032
1631290348543,2033
1631290348547,2033
1631290348551,2033
1631290348555,2034
1631290348559,2033
1631290348563,2033
1631290348567,2033
1631290348571,2033
1631290348575,2033
1631290348579,2033
1631290348583,2034
1631290348587,2034
1631290348591,2035
1631290348595,2034
1631290348599,2034
1631290348603,2034
1631290348607,2034
1631290348611,2034
1631290348615,2034
1631290348619,2034
1631290348623,2035
1631290348627,2035
1631290348631,2036
1631290348635,2036
1631290348639,2036
1631290348643,2036
1631290348647,2035
1631290348651,2034
1631290348655,2034
1631290348659,2034
1631290348663,2036
1631290348667,2037
1631290348671,2040
1631290348675,2042
1631290348679,2044
1631290348683,2046
1631290348687,2047
1631290348691,2047
1631290348695,2048
1631290348699,2048
1631290348703,2048
1631290348707,2048
1631290348711,2048
1631290348715,2047
1631290348719,2045
1631290348723,2043
1631290348727,2041
1631290348731,2039
1631290348735,2038
1631290348739,2037
1631290348743,2038
1631290348747,2038
1631290348751,2039
1631290348755,2039
1631290348759,2038
1631290348763,2038
1631290348767,2037
1631290348771,2037
1631290348775,2037
1631290348779,2038
1631290348783,2038
1631290348787,2038
1631290348791,2039
1631290348795,2039
1631290348799,2039
1631290348803,2039
1631290348807,2040
1631290348811,2041
1631290348815,2041
1631290348819,2041
1631290348823,2039
1631290348827,2037
1631290348831,2037
1631290348835,2042
1631290348839,2054
1631290348843,2080
1631290348847,2118
1631290348851,2162
1631290348855,2201
1631290348859,2217
1631290348863,2198
1631290348867,2146
1631290348871,2078
1631290348875,2019
1631290348879,1984
1631290348883,1980
1631290348887,1997
1631290348891,2021
1631290348895,2039
1631290348899,2048
1631290348903,2051
1631290348907,2052
1631290348911,2053
1631290348915,2054
1631290348919,2054
1631290348923,2054
1631290348927,2055
1631290348931,2055
1631290348935,2056
1631290348939,2057
1631290348943,2059
1631290348947,2060
1631290348951,2061
1631290348955,2062
1631290348959,2063
1631290348963,2064
1631290348967,2064
1631290348971,2066
1631290348975,2067
1631290348979,2068
1631290348983,2070
1631290348987,2072
1631290348991,2073
1631290348995,2075
1631290348999,2076
1631290349003,2077
1631290349007,2078
1631290349011,2080
1631290349015,2081
1631290349019,2083
1631290349023,2086
1631290349027,2089
1631290349031,2091
1631290349035,2093
1631290349039,2095
1631290349043,2097
1631290349047,2099
1631290349051,2102
1631290349055,2105
1631290349059,2108
1631290349063,2112
1631290349067,2116
1631290349071,2119
1631290349075,2123
1631290349079,2125
1631290349083,2128
1631290349087,2129
1631290349091,2131
1631290349095,2131
1631290349099,2132
1631290349103,2134
1631290349107,2134
1631290349111,2134
1631290349115,2132
1631290349119,2130
1631290349123,2126
1631290349127,2120
1631290349131,2114
1631290349135,2106
1631290349139,2097
1631290349143,2088
1631290349147,2080
1631290349151,2071
1631290349155,2064
1631290349159,2056
1631290349163,2049
1631290349167,2043
1631290349171,2038
1631290349175,2034
1631290349179,2031
1631290349183,2029
1631290349187,2027
1631290349191,2026
1631290349195,2025
1631290349199,2024
1631290349203,2024
1631290349207,2023
1631290349211,2023
1631290349215,2023
1631290349219,2022
1631290349223,2023
1631290349227,2024
1631290349231,2025
1631290349235,2026
1631290349239,2026
1631290349243,2026
1631290349247,2025
1631290349251,2025
1631290349255,2026
1631290349259,2026
1631290349263,2027
1631290349267,2028
1631290349271,2028
1631290349275,2028
1631290349279,2027
1631290349283,2027
1631290349287,2026
1631290349291,2026
1631290349295,2027
1631290349299,2027
1631290349303,2028
1631290349307,2028
1631290349311,2028
1631290349315,2028
1631290349319,2029
1631290349323,2028
1631290349327,2028
1631290349331,2027
1631290349335,2027
1631290349339,2028
1631290349343,2029
1631290349347,2029
1631290349351,2029
1631290349355,2029
1631290349359,2029
1631290349363,2028
1631290349367,2028
1631290349371,2028
1631290349375,2029
1631290349379,2029
1631290349383,2029
1631290349387,2029
1631290349391,2029
1631290349395,2029
1631290349399,2029
1631290349403,2030
1631290349407,2029
1631290349411,2029
1631290349415,2029
1631290349419,2028
1631290349423,2029
1631290349427,2030
1631290349431,2031
1631290349435,2031
1631290349439,2031
1631290349443,2030
1631290349447,2029
1631290349451,2028
1631290349455,2027
1631290349459,2028
1631290349463,2029
1631290349467,2032
1631290349471,2035
1631290349475,2038
1631290349479,2041
1631290349483,2042
1631290349487,2042
1631290349491,2041
1631290349495,2040
1631290349499,2040
1631290349503,2040
1631290349507,2041
1631290349511,2041
1631290349515,2040
1631290349519,2038
1631290349523,2036
1631290349527,2033
1631290349531,2032
1631290349535,2032
1631290349539,2032
1631290349543,2033
1631290349547,2034
1631290349551,2034
1631290349555,2034
1631290349559,2033
1631290349563,2032
1631290349567,2031
1631290349571,2030
1631290349575,2031
1631290349579,2031
1631290349583,2032
1631290349587,2033
1631290349591,2033
1631290349595,2034
1631290349599,2034
1631290349603,2034
1631290349607,2034
1631290349611,2034
1631290349615,2034
1631290349619,2033
1631290349623,2030
1631290349627,2029
1631290349631,2034
1631290349635,2046
1631290349639,2070
1631290349643,2107
1631290349647,2151
1631290349651,2190
1631290349655,2207
1631290349659,2190
1631290349663,2141
1631290349667,2072
1631290349671,2011
1631290349675,1972
1631290349679,1962
1631290349683,1976
1631290349687,1999
1631290349691,2018
1631290349695,2029
1631290349699,2035
1631290349703,2039
1631290349707,2041
1631290349711,2044
1631290349715,2045
1631290349719,2046
1631290349723,2047
1631290349727,2048
1631290349731,2048
1631290349735,2048
1631290349739,2049
1631290349743,2050
1631290349747,2050
1631290349751,2052
1631290349755,2054
1631290349759,2055
1631290349763,2057
1631290349767,2058
1631290349771,2059
1631290349775,2059
1631290349779,2060
1631290349783,2061
1631290349787,2063
1631290349791,2065
1631290349795,2067
1631290349799,2068
1631290349803,2069
1631290349807,2070
1631290349811,2072
1631290349815,2074
1631290349819,2076
1631290349823,2078
1631290349827,2080
1631290349831,2082
1631290349835,2084
1631290349839,2086
1631290349843,2089
1631290349847,2091
1631290349851,2094
1631290349855,2097
1631290349859,2100
1631290349863,2103
1631290349867,2106
1631290349871,2109
1631290349875,2112
1631290349879,2115
1631290349883,2118
1631290349887,2119
1631290349891,2120
1631290349895,2120
1631290349899,2121
1631290349903,2122
1631290349907,2122
1631290349911,2122
1631290349915,2119
1631290349919,2115
1631290349923,2109
1631290349927,2102
1631290349931,2094
1631290349935,2086
1631290349939,2077
1631290349943,2069
1631290349947,2060
1631290349951,2050
1631290349955,2042
1631290349959,2034
1631290349963,2028
1631290349967,2024
1631290349971,2021
1631290349975,2018
1631290349979,2015
1631290349983,2013
1631290349987,2011
1631290349991,2009
1631290349995,2009
1631290349999,2009
1631290350003,2009
1631290350007,2009
1631290350011,2008
1631290350015,2008
1631290350019,2008
1631290350023,2009
1631290350027,2009
1631290350031,2010
1631290350035,2010
1631290350039,2010
1631290350043,2010
1631290350047,2010
1631290350051,2010
1631290350055,2010
1631290350059,2010
1631290350063,2011
1631290350067,2012
1631290350071,2012
1631290350075,2012
1631290350079,2012
1631290350083,2011
1631290350087,2010
1631290350091,2010
1631290350095,2010
1631290350099,2010
1631290350103,2011
1631290350107,2012
1631290350111,2013
1631290350115,2013
1631290350119,2014
1631290350123,2013
1631290350127,2012
1631290350131,2011
1631290350135,2010
1631290350139,2010
1631290350143,2010
1631290350147,2011
1631290350151,2012
1631290350155,2012
1631290350159,2012
1631290350163,2011
1631290350167,2011
1631290350171,2010
1631290350175,2011
1631290350179,2011
1631290350183,2012
1631290350187,2013
1631290350191,2013
1631290350195,2013
1631290350199,2013
1631290350203,2013
1631290350207,2013
1631290350211,2013
1631290350215,2013
1631290350219,2013
1631290350223,2014
1631290350227,2015
1631290350231,2016
1631290350235,2016
1631290350239,2015
1631290350243,2015
1631290350247,2013
1631290350251,2013
1631290350255,2014
1631290350259,2016
1631290350263,2019
1631290350267,2022
1631290350271,2024
1631290350275,2026
1631290350279,2026
1631290350283,2026
1631290350287,2026
1631290350291,2026
1631290350295,2027
1631290350299,2028
1631290350303,2029
1631290350307,2028
1631290350311,2027
1631290350315,2024
1631290350319,2021
1631290350323,2019
1631290350327,2018
1631290350331,2018
1631290350335,2019
1631290350339,2021
1631290350343,2022
1631290350347,2022
1631290350351,2022
1631290350355,2022
1631290350359,2022
1631290350363,2021
1631290350367,2021
1631290350371,2020
1631290350375,2019
1631290350379,2019
1631290350383,2019
1631290350387,2020
1631290350391,2021
1631290350395,2022
1631290350399,2023
1631290350403,2024
1631290350407,2023
1631290350411,2023
1631290350415,2023
1631290350419,2021
1631290350423,2020
1631290350427,2024
1631290350431,2034
1631290350435,2054
1631290350439,2088
1631290350443,2130
1631290350447,2170
1631290350451,2193
1631290350455,2186
1631290350459,2146
1631290350463,2084
1631290350467,2021
1631290350471,1976
1631290350475,1958
1631290350479,1963
1631290350483,1983
1631290350487,2002
1631290350491,2014
1631290350495,2022
1631290350499,2027
1631290350503,2032
1631290350507,2036
1631290350511,2039
1631290350515,2041
1631290350519,2042
1631290350523,2042
1631290350527,2043
1631290350531,2044
1631290350535,2045
1631290350539,2046
1631290350543,2048
1631290350547,2050
1631290350551,2052
1631290350555,2052
1631290350559,2052
1631290350563,2052
1631290350567,2053
1631290350571,2054
1631290350575,2056
1631290350579,2059
1631290350583,2061
1631290350587,2062
1631290350591,2063
1631290350595,2064
1631290350599,2066
1631290350603,2068
1631290350607,2070
1631290350611,2071
1631290350615,2073
1631290350619,2074
1631290350623,2077
1631290350627,2079
1631290350631,2082
1631290350635,2085
1631290350639,2088
1631290350643,2090
1631290350647,2092
1631290350651,2095
1631290350655,2098
1631290350659,2101
1631290350663,2105
1631290350667,2109
1631290350671,2112
1631290350675,2115
1631290350679,2117
1631290350683,2119
1631290350687,2120
1631290350691,2121
1631290350695,2122
1631290350699,2122
1631290350703,2122
1631290350707,2120
1631290350711,2118
1631290350715,2115
1631290350719,2110
1631290350723,2104
1631290350727,2097
1631290350731,2089
1631290350735,2079
1631290350739,2070
1631290350743,2061
1631290350747,2052
1631290350751,2046
1631290350755,2039
1631290350759,2033
1631290350763,2028
1631290350767,2024
1631290350771,2021
1631290350775,2018
1631290350779,2015
1631290350783,2014
1631290350787,2013
1631290350791,2012
1631290350795,2012
1631290350799,2012
1631290350803,2012
1631290350807,2012
1631290350811,2012
1631290350815,2013
1631290350819,2014
1631290350823,2015
1631290350827,2015
1631290350831,2015
1631290350835,2016
1631290350839,2016
1631290350843,2017
1631290350847,2017
1631290350851,2017
1631290350855,2017
1631290350859,2017
1631290350863,2017
1631290350867,2018
1631290350871,2019
1631290350875,2020
1631290350879,2021
1631290350883,2021
1631290350887,2020
1631290350891,2020
1631290350895,2020
1631290350899,2020
1631290350903,2021
1631290350907,2021
1631290350911,2021
1631290350915,2020
1631290350919,2020
1631290350923,2020
1631290350927,2020
1631290350931,2020
1631290350935,2020
1631290350939,2020
1631290350943,2021
1631290350947,2021
1631290350951,2021
1631290350955,2022
1631290350959,2021
1631290350963,2021
1631290350967,2021
1631290350971,2021
1631290350975,2021
1631290350979,2022
1631290350983,2023
1631290350987,2023
1631290350991,2023
1631290350995,2023
1631290350999,2023
1631290351003,2023
1631290351007,2023
1631290351011,2023
1631290351015,2023
1631290351019,2023
1631290351023,2023
1631290351027,2024
1631290351031,2024
1631290351035,2024
1631290351039,2023
1631290351043,2023
1631290351047,2023
1631290351051,2024
1631290351055,2026
1631290351059,2029
1631290351063,2031
1631290351067,2033
1631290351071,2035
1631290351075,2036
1631290351079,2036
1631290351083,2036
1631290351087,2035
1631290351091,2035
1631290351095,2035
1631290351099,2036
1631290351103,2036
1631290351107,2035
1631290351111,2034
1631290351115,2033
1631290351119,2031
1631290351123,2030
1631290351127,2029
1631290351131,2029
1631290351135,2029
1631290351139,2030
1631290351143,2031
1631290351147,2031
1631290351151,2032
1631290351155,2032
1631290351159,2032
1631290351163,2031
1631290351167,2031
1631290351171,2030
1631290351175,2031
1631290351179,2031
1631290351183,2032
1631290351187,2033
1631290351191,2033
1631290351195,2034
1631290351199,2035
1631290351203,2036
1631290351207,2036
1631290351211,2034
1631290351215,2031
1631290351219,2031
1631290351223,2038
1631290351227,2052
1631290351231,2080
1631290351235,2121
1631290351239,2169
1631290351243,2209
1631290351247,2226
1631290351251,2206
1631290351255,2153
1631290351259,2082
1631290351263,2019
1631290351267,1982
1631290351271,1975
1631290351275,1992
1631290351279,2016
1631290351283,2033
1631290351287,2042
1631290351291,2045
1631290351295,2047
1631290351299,2049
1631290351303,2052
1631290351307,2053
1631290351311,2055
1631290351315,2055
1631290351319,2056
1631290351323,2057
1631290351327,2058
1631290351331,2059
1631290351335,2061
1631290351339,2062
1631290351343,2064
1631290351347,2066
1631290351351,2067
1631290351355,2069
1631290351359,2070
1631290351363,2071
1631290351367,2072
1631290351371,2074
1631290351375,2075
1631290351379,2077
1631290351383,2079
1631290351387,2080
1631290351391,2082
1631290351395,2084
1631290351399,2086
1631290351403,2088
1631290351407,2090
1631290351411,2093
1631290351415,2095
1631290351419,2098
1631290351423,2101
1631290351427,2104
1631290351431,2107
1631290351435,2109
1631290351439,2112
1631290351443,2115
1631290351447,2118
1631290351451,2122
1631290351455,2125
1631290351459,2128
1631290351463,2132
1631290351467,2136
1631290351471,2139
1631290351475,2142
1631290351479,2144
1631290351483,2145
1631290351487,2145
1631290351491,2145
1631290351495,2145
1631290351499,2145
1631290351503,2145
1631290351507,2143
1631290351511,2139
1631290351515,2133
1631290351519,2126
1631290351523,2117
1631290351527,2108
1631290351531,2099
1631290351535,2090
1631290351539,2081
1631290351543,2073
1631290351547,2066
1631290351551,2060
1631290351555,2054
1631290351559,2049
1631290351563,2046
1631290351567,2043
1631290351571,2040
1631290351575,2038
1631290351579,2037
1631290351583,2036
1631290351587,2035
1631290351591,2035
1631290351595,2035
1631290351599,2035
1631290351603,2035
1631290351607,2035
1631290351611,2035
1631290351615,2036
1631290351619,2036
1631290351623,2037
1631290351627,2037
1631290351631,2038
1631290351635,2038
1631290351639,2038
1631290351643,2039
1631290351647,2039
1631290351651,2039
1631290351655,2040
1631290351659,2040
1631290351663,2041
1631290351667,2041
1631290351671,2042
1631290351675,2042
1631290351679,2042
1631290351683,2042
1631290351687,2042
1631290351691,2042
1631290351695,2042
1631290351699,2041
1631290351703,2041
1631290351707,2041
1631290351711,2042
1631290351715,2042
1631290351719,2042
1631290351723,2042
1631290351727,2042
1631290351731,2042
1631290351735,2041
1631290351739,2041
1631290351743,2042
1631290351747,2042
1631290351751,2043
1631290351755,2043
1631290351759,2043
1631290351763,2044
1631290351767,2043
1631290351771,2043
1631290351775,2043
1631290351779,2043
1631290351783,2043
1631290351787,2044
1631290351791,2045
1631290351795,2045
1631290351799,2046
1631290351803,2045
1631290351807,2045
1631290351811,2044
1631290351815,2045
1631290351819,2045
1631290351823,2046
1631290351827,2047
1631290351831,2047
1631290351835,2048
1631290351839,2048
1631290351843,2048
1631290351847,2048
1631290351851,2048
1631290351855,2047
1631290351859,2047
1631290351863,2047
1631290351867,2047
1631290351871,2047
1631290351875,2048
1631290351879,2048
1631290351883,2050
1631290351887,2053
1631290351891,2055
1631290351895,2057
1631290351899,2059
1631290351903,2060
1631290351907,2060
1631290351911,2061
1631290351915,2061
1631290351919,2062
1631290351923,2061
1631290351927,2061
1631290351931,2060
1631290351935,2059
1631290351939,2057
1631290351943,2056
1631290351947,2054
1631290351951,2054
1631290351955,2053
1631290351959,2053
1631290351963,2052
1631290351967,2052
1631290351971,2051
1631290351975,2051
1631290351979,2052
1631290351983,2052
1631290351987,2053
1631290351991,2053
1631290351995,2053
1631290351999,2052
1631290352003,2052
1631290352007,2051
1631290352011,2051
1631290352015,2051
1631290352019,2051
1631290352023,2053
1631290352027,2054
1631290352031,2054
1631290352035,2053
1631290352039,2050
1631290352043,2048
1631290352047,2051
1631290352051,2060
1631290352055,2080
1631290352059,2112
1631290352063,2152
1631290352067,2194
1631290352071,2225
1631290352075,2227
1631290352079,2195
1631290352083,2137
1631290352087,2069
1631290352091,2018
1631290352095,1994
1631290352099,2000
1631290352103,2022
1631290352107,2045
1631290352111,2059
1631290352115,2064
1631290352119,2064
1631290352123,2063
1631290352127,2063
1631290352131,2063
1631290352135,2063
1631290352139,2065
1631290352143,2066
1631290352147,2068
1631290352151,2069
1631290352155,2069
1631290352159,2070
1631290352163,2071
1631290352167,2072
1631290352171,2073
1631290352175,2074
1631290352179,2074
1631290352183,2075
1631290352187,2077
1631290352191,2078
1631290352195,2079
1631290352199,2081
1631290352203,2082
1631290352207,2083
1631290352211,2084
1631290352215,2085
1631290352219,2087
1631290352223,2089
1631290352227,2091
1631290352231,2093
1631290352235,2095
1631290352239,2096
1631290352243,2098
1631290352247,2100
1631290352251,2102
1631290352255,2104
1631290352259,2107
1631290352263,2110
1631290352267,2114
1631290352271,2118
1631290352275,2122
1631290352279,2125
1631290352283,2129
1631290352287,2132
1631290352291,2135
1631290352295,2138
1631290352299,2141
1631290352303,2144
1631290352307,2146
1631290352311,2148
1631290352315,2149
1631290352319,2149
1631290352323,2149
1631290352327,2148
1631290352331,2146
1631290352335,2143
1631290352339,2139
1631290352343,2134
1631290352347,2127
1631290352351,2119
1631290352355,2110
1631290352359,2100
1631290352363,2090
1631290352367,2081
1631290352371,2073
1631290352375,2065
1631290352379,2059
1631290352383,2054
1631290352387,2049
1631290352391,2046
1631290352395,2043
1631290352399,2040
1631290352403,2038
1631290352407,2037
1631290352411,2035
1631290352415,2035
1631290352419,2035
1631290352423,2035
1631290352427,2036
1631290352431,2037
1631290352435,2037
1631290352439,2037
1631290352443,2037
1631290352447,2037
1631290352451,2037
1631290352455,2038
1631290352459,2038
1631290352463,2039
1631290352467,2039
1631290352471,2040
1631290352475,2040
1631290352479,2040
1631290352483,2041
1631290352487,2041
1631290352491,2041
1631290352495,2041
1631290352499,2041
1631290352503,2041
1631290352507,2041
1631290352511,2041
1631290352515,2041
1631290352519,2041
1631290352523,2041
1631290352527,2041
1631290352531,2041
1631290352535,2041
1631290352539,2041
1631290352543,2041
1631290352547,2041
1631290352551,2041
1631290352555,2041
1631290352559,2040
1631290352563,2040
1631290352567,2039
1631290352571,2039
1631290352575,2039
1631290352579,2040
1631290352583,2040
1631290352587,2041
1631290352591,2041
1631290352595,2041
1631290352599,2041
1631290352603,2040
1631290352607,2040
1631290352611,2040
1631290352615,2041
1631290352619,2042
1631290352623,2042
1631290352627,2043
1631290352631,2043
1631290352635,2043
1631290352639,2043
1631290352643,2043
1631290352647,2043
1631290352651,2043
1631290352655,2043
1631290352659,2043
1631290352663,2043
1631290352667,2043
1631290352671,2044
1631290352675,2044
1631290352679,2044
1631290352683,2044
1631290352687,2044
1631290352691,2044
1631290352695,2043
1631290352699,2043
1631290352703,2043
1631290352707,2043
1631290352711,2043
1631290352715,2044
1631290352719,2046
1631290352723,2048
1631290352727,2049
1631290352731,2050
1631290352735,2052
1631290352739,2053
1631290352743,2054
1631290352747,2054
1631290352751,2054
1631290352755,2054
1631290352759,2053
1631290352763,2053
1631290352767,2052
1631290352771,2052
1631290352775,2050
1631290352779,2048
1631290352783,2048
1631290352787,2046
1631290352791,2046
1631290352795,2046
1631290352799,2046
1631290352803,2046
1631290352807,2046
1631290352811,2045
1631290352815,2045
1631290352819,2044
1631290352823,2045
1631290352827,2045
1631290352831,2046
1631290352835,2046
1631290352839,2045
1631290352843,2045
1631290352847,2044
1631290352851,2044
1631290352855,2044
1631290352859,2044
1631290352863,2046
1631290352867,2047
1631290352871,2047
1631290352875,2046
1631290352879,2043
1631290352883,2042
1631290352887,2045
1631290352891,2056
1631290352895,2079
1631290352899,2113
1631290352903,2155
1631290352907,2196
1631290352911,2221
1631290352915,2216
1631290352919,2177
1631290352923,2114
1631290352927,2049
1631290352931,2004
1631290352935,1988
1631290352939,1999
1631290352943,2022
1631290352947,2043
1631290352951,2054
1631290352955,2058
1631290352959,2057
1631290352963,2056
1631290352967,2057
1631290352971,2057
1631290352975,2057
1631290352979,2058
1631290352983,2060
1631290352987,2061
1631290352991,2062
1631290352995,2062
1631290352999,2063
1631290353003,2064
1631290353007,2065
1631290353011,2066
1631290353015,2066
1631290353019,2067
1631290353023,2068
1631290353027,2069
1631290353031,2071
1631290353035,2072
1631290353039,2073
1631290353043,2074
1631290353047,2075
1631290353051,2076
1631290353055,2078
1631290353059,2079
1631290353063,2082
1631290353067,2084
1631290353071,2086
1631290353075,2088
1631290353079,2090
1631290353083,2092
1631290353087,2094
1631290353091,2096
1631290353095,2099
1631290353099,2102
1631290353103,2105
1631290353107,2109
1631290353111,2113
1631290353115,2117
1631290353119,2120
1631290353123,2123
1631290353127,2126
1631290353131,2128
1631290353135,2131
1631290353139,2134
1631290353143,2137
1631290353147,2140
1631290353151,2142
1631290353155,2143
1631290353159,2144
1631290353163,2144
1631290353167,2142
1631290353171,2140
1631290353175,2136
1631290353179,2131
1631290353183,2126
1631290353187,2119
1631290353191,2110
1631290353195,2101
1631290353199,2091
1631290353203,2082
1631290353207,2073
1631290353211,2064
1631290353215,2057
1631290353219,2051
1631290353223,2047
1631290353227,2042
1631290353231,2039
1631290353235,2036
1631290353239,2034
1631290353243,2032
1631290353247,2030
1631290353251,2029
1631290353255,2028
1631290353259,2028
1631290353263,2029
1631290353267,2029
1631290353271,2029
1631290353275,2029
1631290353279,2029
1631290353283,2029
1631290353287,2029
1631290353291,2029
1631290353295,2029
1631290353299,2030
1631290353303,2030
1631290353307,2031
1631290353311,2032
1631290353315,2032
1631290353319,2032
1631290353323,2032
1631290353327,2032
1631290353331,2032
1631290353335,2033
1631290353339,2033
1631290353343,2034
1631290353347,2034
1631290353351,2035
1631290353355,2035
1631290353359,2035
1631290353363,2035
1631290353367,2034
1631290353371,2034
1631290353375,2035
1631290353379,2035
1631290353383,2036
1631290353387,2037
1631290353391,2037
1631290353395,2037
1631290353399,2037
1631290353403,2036
1631290353407,2036
1631290353411,2035
1631290353415,2035
1631290353419,2035
1631290353423,2036
1631290353427,2036
1631290353431,2037
1631290353435,2037
1631290353439,2037
1631290353443,2036
1631290353447,2036
1631290353451,2036
1631290353455,2036
1631290353459,2036
1631290353463,2037
1631290353467,2037
1631290353471,2038
1631290353475,2038
1631290353479,2039
1631290353483,2039
1631290353487,2038
1631290353491,2038
1631290353495,2038
1631290353499,2038
1631290353503,2038
1631290353507,2039
1631290353511,2039
1631290353515,2040
1631290353519,2039
1631290353523,2039
1631290353527,2039
1631290353531,2039
1631290353535,2040
1631290353539,2040
1631290353543,2041
1631290353547,2041
1631290353551,2042
1631290353555,2042
1631290353559,2042
1631290353563,2042
1631290353567,2041
1631290353571,2041
1631290353575,2040
1631290353579,2040
1631290353583,2041
1631290353587,2042
1631290353591,2043
1631290353595,2045
1631290353599,2047
1631290353603,2048
1631290353607,2049
1631290353611,2051
1631290353615,2052
1631290353619,2053
1631290353623,2054
1631290353627,2054
1631290353631,2054
1631290353635,2054
1631290353639,2054
1631290353643,2053
1631290353647,2052
1631290353651,2051
1631290353655,2049
1631290353659,2048
1631290353663,2047
1631290353667,2046
1631290353671,2046
1631290353675,2046
1631290353679,2046
1631290353683,2046
1631290353687,2045
1631290353691,2045
1631290353695,2044
1631290353699,2045
1631290353703,2045
1631290353707,2046
1631290353711,2046
1631290353715,2046
1631290353719,2046
1631290353723,2046
1631290353727,2046
1631290353731,2046
1631290353735,2046
1631290353739,2047
1631290353743,2048
1631290353747,2048
1631290353751,2048
1631290353755,2046
1631290353759,2044
1631290353763,2045
1631290353767,2053
1631290353771,2071
1631290353775,2102
1631290353779,2142
1631290353783,2185
1631290353787,2217
1631290353791,2222
1631290353795,2193
1631290353799,2135
1631290353803,2068
1631290353807,2015
1631290353811,1990
1631290353815,1994
1631290353819,2016
1631290353823,2040
1631290353827,2054
1631290353831,2060
1631290353835,2059
1631290353839,2058
1631290353843,2059
1631290353847,2058
1631290353851,2059
1631290353855,2059
1631290353859,2060
1631290353863,2062
1631290353867,2063
1631290353871,2064
1631290353875,2065
1631290353879,2065
1631290353883,2066
1631290353887,2066
1631290353891,2067
1631290353895,2068
1631290353899,2069
1631290353903,2071
1631290353907,2072
1631290353911,2073
1631290353915,2074
1631290353919,2075
1631290353923,2076
1631290353927,2077
1631290353931,2079
1631290353935,2080
1631290353939,2082
1631290353943,2084
1631290353947,2086
1631290353951,2088
1631290353955,2090
1631290353959,2092
1631290353963,2094
1631290353967,2096
1631290353971,2098
1631290353975,2101
1631290353979,2104
1631290353983,2107
1631290353987,2110
1631290353991,2114
1631290353995,2117
1631290353999,2120
1631290354003,2123
1631290354007,2126
1631290354011,2129
1631290354015,2132
1631290354019,2134
1631290354023,2137
1631290354027,2139
1631290354031,2141
1631290354035,2141
1631290354039,2141
1631290354043,2140
1631290354047,2138
1631290354051,2135
1631290354055,2131
1631290354059,2126
1631290354063,2120
1631290354067,2112
1631290354071,2104
1631290354075,2095
1631290354079,2085
1631290354083,2076
1631290354087,2067
1631290354091,2059
1631290354095,2052
1631290354099,2047
1631290354103,2042
1631290354107,2038
1631290354111,2035
1631290354115,2032
1631290354119,2030
1631290354123,2028
1631290354127,2027
1631290354131,2026
1631290354135,2025
1631290354139,2025
1631290354143,2026
1631290354147,2026
1631290354151,2027
1631290354155,2028
1631290354159,2027
1631290354163,2027
1631290354167,2027
1631290354171,2027
1631290354175,2027
1631290354179,2027
1631290354183,2028
1631290354187,2028
1631290354191,2029
1631290354195,2029
1631290354199,2029
1631290354203,2030
1631290354207,2029
1631290354211,2029
1631290354215,2030
1631290354219,2030
1631290354223,2030
1631290354227,2030
1631290354231,2031
1631290354235,2031
1631290354239,2030
1631290354243,2030
1631290354247,2030
1631290354251,2030
1631290354255,2030
1631290354259,2030
1631290354263,2030
1631290354267,2030
1631290354271,2031
1631290354275,2031
1631290354279,2030
1631290354283,2030
1631290354287,2029
1631290354291,2029
1631290354295,2029
1631290354299,2030
1631290354303,2030
1631290354307,2030
1631290354311,2031
1631290354315,2031
1631290354319,2031
1631290354323,2031
1631290354327,2030
1631290354331,2030
1631290354335,2030
1631290354339,2030
1631290354343,2031
1631290354347,2031
1631290354351,2031
1631290354355,2032
1631290354359,2032
1631290354363,2031
1631290354367,2031
1631290354371,2031
1631290354375,2031
1631290354379,2032
1631290354383,2032
1631290354387,2033
1631290354391,2033
1631290354395,2033
1631290354399,2033
1631290354403,2033
1631290354407,2032
1631290354411,2033
1631290354415,2033
1631290354419,2033
1631290354423,2033
1631290354427,2033
1631290354431,2033
1631290354435,2034
1631290354439,2034
1631290354443,2035
1631290354447,2035
1631290354451,2035
1631290354455,2035
1631290354459,2035
1631290354463,2035
1631290354467,2035
1631290354471,2035
1631290354475,2035
1631290354479,2034
1631290354483,2033
1631290354487,2033
1631290354491,2034
1631290354495,2035
1631290354499,2037
1631290354503,2040
1631290354507,2042
1631290354511,2044
1631290354515,2046
1631290354519,2046
1631290354523,2046
1631290354527,2045
1631290354531,2045
1631290354535,2045
1631290354539,2045
1631290354543,2046
1631290354547,2046
1631290354551,2045
1631290354555,2043
1631290354559,2041
1631290354563,2039
1631290354567,2037
1631290354571,2037
1631290354575,2037
1631290354579,2037
1631290354583,2038
1631290354587,2038
1631290354591,2038
1631290354595,2037
1631290354599,2037
1631290354603,2037
1631290354607,2036
1631290354611,2036
1631290354615,2036
1631290354619,2036
1631290354623,2037
1631290354627,2037
1631290354631,2038
1631290354635,2038
1631290354639,2038
1631290354643,2039
1631290354647,2039
1631290354651,2039
1631290354655,2037
1631290354659,2034
1631290354663,2033
1631290354667,2038
1631290354671,2049
1631290354675,2074
1631290354679,2110
1631290354683,2153
1631290354687,2193
1631290354691,2213
1631290354695,2200
1631290354699,2154
1631290354703,2089
1631290354707,2027
1631290354711,1987
1631290354715,1979
1631290354719,1994
1631290354723,2018
1631290354727,2036
1631290354731,2045
1631290354735,2047
1631290354739,2046
1631290354743,2046
1631290354747,2047
1631290354751,2047
1631290354755,2048
1631290354759,2048
1631290354763,2049
1631290354767,2050
1631290354771,2050
1631290354775,2051
1631290354779,2052
1631290354783,2053
1631290354787,2054
1631290354791,2055
1631290354795,2056
1631290354799,2057
1631290354803,2058
1631290354807,2059
1631290354811,2060
1631290354815,2061
1631290354819,2062
1631290354823,2064
1631290354827,2065
1631290354831,2067
1631290354835,2069
1631290354839,2070
1631290354843,2072
1631290354847,2073
1631290354851,2075
1631290354855,2077
1631290354859,2079
1631290354863,2082
1631290354867,2085
1631290354871,2087
1631290354875,2090
1631290354879,2092
1631290354883,2095
1631290354887,2097
1631290354891,2100
1631290354895,2103
1631290354899,2107
1631290354903,2110
1631290354907,2114
1631290354911,2117
1631290354915,2120
1631290354919,2122
1631290354923,2124
1631290354927,2125
1631290354931,2126
1631290354935,2128
1631290354939,2128
1631290354943,2129
1631290354947,2128
1631290354951,2127
1631290354955,2124
1631290354959,2120
1631290354963,2114
1631290354967,2107
1631290354971,2098
1631290354975,2089
1631290354979,2080
1631290354983,2071
1631290354987,2062
1631290354991,2054
1631290354995,2048
1631290354999,2040
1631290355003,2034
1631290355007,2029
1631290355011,2025
1631290355015,2022
1631290355019,2020
1631290355023,2019
1631290355027,2017
1631290355031,2016
1631290355035,2015
1631290355039,2014
1631290355043,2014
1631290355047,2013
1631290355051,2013
1631290355055,2014
1631290355059,2014
1631290355063,2015
1631290355067,2016
1631290355071,2016
1631290355075,2016
1631290355079,2017
1631290355083,2017
1631290355087,2017
1631290355091,2018
1631290355095,2018
1631290355099,2018
1631290355103,2019
1631290355107,2019
1631290355111,2020
1631290355115,2021
1631290355119,2021
1631290355123,2020
1631290355127,2019
1631290355131,2018
1631290355135,2019
1631290355139,2019
1631290355143,2020
1631290355147,2021
1631290355151,2021
1631290355155,2021
1631290355159,2021
1631290355163,2021
1631290355167,2021
1631290355171,2021
1631290355175,2020
1631290355179,2020
1631290355183,2020
1631290355187,2020
1631290355191,2021
1631290355195,2022
1631290355199,2021
1631290355203,2021
1631290355207,2020
1631290355211,2019
1631290355215,2019
1631290355219,2019
1631290355223,2020
1631290355227,2020
1631290355231,2021
1631290355235,2021
1631290355239,2020
1631290355243,2020
1631290355247,2019
1631290355251,2019
1631290355255,2019
1631290355259,2019
1631290355263,2020
1631290355267,2020
1631290355271,2020
1631290355275,2020
1631290355279,2020
1631290355283,2020
1631290355287,2019
1631290355291,2020
1631290355295,2020
1631290355299,2020
1631290355303,2021
1631290355307,2022
1631290355311,2023
1631290355315,2023
1631290355319,2023
1631290355323,2023
1631290355327,2022
1631290355331,2022
1631290355335,2022
1631290355339,2023
1631290355343,2024
1631290355347,2025
1631290355351,2025
1631290355355,2025
1631290355359,2025
1631290355363,2024
1631290355367,2023
1631290355371,2022
1631290355375,2022
1631290355379,2022
1631290355383,2024
1631290355387,2026
1631290355391,2029
1631290355395,2032
1631290355399,2034
1631290355403,2035
1631290355407,2035
1631290355411,2035
1631290355415,2035
1631290355419,2035
1631290355423,2035
1631290355427,2036
1631290355431,2036
1631290355435,2036
1631290355439,2034
1631290355443,2033
1631290355447,2030
1631290355451,2028
1631290355455,2027
1631290355459,2026
1631290355463,2026
1631290355467,2027
1631290355471,2028
1631290355475,2028
1631290355479,2029
1631290355483,2028
1631290355487,2027
1631290355491,2027
1631290355495,2026
1631290355499,2026
1631290355503,2027
1631290355507,2027
1631290355511,2028
1631290355515,2028
1631290355519,2028
1631290355523,2029
1631290355527,2030
1631290355531,2031
1631290355535,2032
1631290355539,2032
1631290355543,2031
1631290355547,2028
1631290355551,2027
1631290355555,2032
1631290355559,2044
1631290355563,2065
1631290355567,2101
1631290355571,2144
1631290355575,2184
1631290355579,2207
1631290355583,2197
1631290355587,2152
1631290355591,2086
1631290355595,2021
1631290355599,1977
1631290355603,1963
1631290355607,1973
1631290355611,1996
1631290355615,2016
1631290355619,2028
1631290355623,2034
1631290355627,2037
1631290355631,2040
1631290355635,2043
1631290355639,2044
1631290355643,2044
1631290355647,2044
1631290355651,2045
1631290355655,2046
1631290355659,2047
1631290355663,2048
1631290355667,2050
1631290355671,2051
1631290355675,2053
1631290355679,2053
1631290355683,2054
1631290355687,2055
1631290355691,2055
1631290355695,2057
1631290355699,2059
1631290355703,2061
1631290355707,2063
1631290355711,2064
1631290355715,2066
1631290355719,2067
1631290355723,2068
1631290355727,2069
1631290355731,2071
1631290355735,2073
1631290355739,2076
1631290355743,2078
1631290355747,2081
1631290355751,2083
1631290355755,2084
1631290355759,2086
1631290355763,2088
1631290355767,2090
1631290355771,2093
1631290355775,2096
1631290355779,2099
1631290355783,2103
1631290355787,2106
1631290355791,2110
1631290355795,2113
1631290355799,2115
1631290355803,2118
1631290355807,2120
1631290355811,2122
1631290355815,2124
1631290355819,2127
1631290355823,2128
1631290355827,2129
1631290355831,2129
1631290355835,2128
1631290355839,2126
1631290355843,2124
1631290355847,2120
1631290355851,2115
1631290355855,2109
1631290355859,2101
1631290355863,2092
1631290355867,2082
1631290355871,2072
1631290355875,2062
1631290355879,2052
1631290355883,2045
1631290355887,2038
1631290355891,2032
1631290355895,2027
1631290355899,2022
1631290355903,2019
1631290355907,2016
1631290355911,2015
1631290355915,2014
1631290355919,2013
1631290355923,2011
1631290355927,2010
1631290355931,2009
1631290355935,2009
1631290355939,2010
1631290355943,2011
1631290355947,2012
1631290355951,2013
1631290355955,2013
1631290355959,2013
1631290355963,2012
1631290355967,2012
1631290355971,2012
1631290355975,2013
1631290355979,2015
1631290355983,2016
1631290355987,2016
1631290355991,2016
1631290355995,2016
1631290355999,2016
1631290356003,2016
1631290356007,2017
1631290356011,2017
1631290356015,2017
1631290356019,2017
1631290356023,2018
1631290356027,2018
1631290356031,2018
1631290356035,2019
1631290356039,2019
1631290356043,2018
1631290356047,2017
1631290356051,2017
1631290356055,2017
1631290356059,2017
1631290356063,2018
1631290356067,2019
1631290356071,2020
1631290356075,2019
1631290356079,2018
1631290356083,2018
1631290356087,2017
1631290356091,2017
1631290356095,2018
1631290356099,2019
1631290356103,2019
1631290356107,2019
1631290356111,2020
1631290356115,2020
1631290356119,2020
1631290356123,2019
1631290356127,2019
1631290356131,2018
1631290356135,2018
1631290356139,2019
1631290356143,2020
1631290356147,2022
1631290356151,2023
1631290356155,2023
1631290356159,2023
1631290356163,2022
1631290356167,2022
1631290356171,2022
1631290356175,2022
1631290356179,2022
1631290356183,2022
1631290356187,2022
1631290356191,2022
1631290356195,2023
1631290356199,2024
1631290356203,2024
1631290356207,2024
1631290356211,2023
1631290356215,2023
1631290356219,2023
1631290356223,2024
1631290356227,2025
1631290356231,2026
1631290356235,2027
1631290356239,2028
1631290356243,2029
1631290356247,2029
1631290356251,2031
1631290356255,2034
1631290356259,2036
1631290356263,2037
1631290356267,2038
1631290356271,2038
1631290356275,2037
1631290356279,2037
1631290356283,2037
1631290356287,2037
1631290356291,2036
1631290356295,2035
1631290356299,2033
1631290356303,2032
1631290356307,2030
1631290356311,2030
1631290356315,2030
1631290356319,2030
1631290356323,2030
1631290356327,2030
1631290356331,2030
1631290356335,2030
1631290356339,2030
1631290356343,2031
1631290356347,2031
1631290356351,2031
1631290356355,2031
1631290356359,2030
1631290356363,2030
1631290356367,2029
1631290356371,2030
1631290356375,2031
1631290356379,2032
1631290356383,2034
1631290356387,2035
1631290356391,2036
1631290356395,2036
1631290356399,2033
1631290356403,2030
1631290356407,2033
1631290356411,2043
1631290356415,2063
1631290356419,2098
1631290356423,2142
1631290356427,2184
1631290356431,2210
1631290356435,2204
1631290356439,2164
1631290356443,2100
1631290356447,2034
1631290356451,1986
1631290356455,1967
1631290356459,1974
1631290356463,1996
1631290356467,2017
1631290356471,2030
1631290356475,2038
1631290356479,2042
1631290356483,2044
1631290356487,2047
1631290356491,2048
1631290356495,2048
1631290356499,2049
1631290356503,2051
1631290356507,2052
1631290356511,2054
1631290356515,2055
1631290356519,2056
1631290356523,2057
1631290356527,2058
1631290356531,2059
1631290356535,2060
1631290356539,2061
1631290356543,2063
1631290356547,2065
1631290356551,2067
1631290356555,2068
1631290356559,2069
1631290356563,2070
1631290356567,2070
1631290356571,2072
1631290356575,2074
1631290356579,2076
1631290356583,2079
1631290356587,2081
1631290356591,2083
1631290356595,2084
1631290356599,2085
1631290356603,2087
1631290356607,2089
1631290356611,2091
1631290356615,2094
1631290356619,2097
1631290356623,2100
1631290356627,2104
1631290356631,2107
1631290356635,2110
1631290356639,2112
1631290356643,2115
1631290356647,2118
1631290356651,2121
1631290356655,2124
1631290356659,2127
1631290356663,2129
1631290356667,2131
1631290356671,2133
1631290356675,2134
1631290356679,2135
1631290356683,2134
1631290356687,2133
1631290356691,2131
1631290356695,2129
1631290356699,2125
1631290356703,2120
1631290356707,2113
1631290356711,2106
1631290356715,2097
1631290356719,2087
1631290356723,2078
1631290356727,2068
1631290356731,2060
1631290356735,2052
1631290356739,2046
1631290356743,2041
1631290356747,2036
1631290356751,2033
1631290356755,2030
1631290356759,2028
1631290356763,2025
1631290356767,2023
1631290356771,2022
1631290356775,2021
1631290356779,2021
1631290356783,2022
1631290356787,2023
1631290356791,2023
1631290356795,2024
1631290356799,2024
1631290356803,2024
1631290356807,2025
1631290356811,2025
1631290356815,2026
1631290356819,2027
1631290356823,2028
1631290356827,2029
1631290356831,2030
1631290356835,2031
1631290356839,2031
1631290356843,2031
1631290356847,2032
1631290356851,2033
1631290356855,2034
1631290356859,2034
1631290356863,2035
1631290356867,2035
1631290356871,2035
1631290356875,2035
1631290356879,2034
1631290356883,2034
1631290356887,2033
1631290356891,2033
1631290356895,2033
1631290356899,2033
1631290356903,2034
1631290356907,2034
1631290356911,2035
1631290356915,2035
1631290356919,2035
1631290356923,2034
1631290356927,2033
1631290356931,2033
1631290356935,2033
1631290356939,2033
1631290356943,2034
1631290356947,2034
1631290356951,2035
1631290356955,2035
1631290356959,2034
1631290356963,2034
1631290356967,2033
1631290356971,2033
1631290356975,2034
1631290356979,2034
1631290356983,2035
1631290356987,2036
1631290356991,2037
1631290356995,2037
1631290356999,2036
1631290357003,2036
1631290357007,2036
1631290357011,2036
1631290357015,2036
1631290357019,2036
1631290357023,2037
1631290357027,2038
1631290357031,2039
1631290357035,2039
1631290357039,2039
1631290357043,2039
1631290357047,2038
1631290357051,2038
1631290357055,2039
1631290357059,2040
1631290357063,2040
1631290357067,2041
1631290357071,2042
1631290357075,2042
1631290357079,2042
1631290357083,2042
1631290357087,2041
1631290357091,2040
1631290357095,2040
1631290357099,2041
1631290357103,2043
1631290357107,2045
1631290357111,2047
1631290357115,2048
1631290357119,2050
1631290357123,2051
1631290357127,2052
1631290357131,2052
1631290357135,2052
1631290357139,2052
1631290357143,2053
1631290357147,2054
1631290357151,2055
1631290357155,2055
1631290357159,2054
1631290357163,2053
1631290357167,2050
1631290357171,2048
1631290357175,2046
1631290357179,2045
1631290357183,2046
1631290357187,2047
1631290357191,2048
1631290357195,2048
1631290357199,2048
1631290357203,2048
1631290357207,2047
1631290357211,2047
1631290357215,2046
1631290357219,2047
1631290357223,2047
1631290357227,2048
1631290357231,2048
1631290357235,2048
1631290357239,2048
1631290357243,2049
1631290357247,2049
1631290357251,2051
1631290357255,2052
1631290357259,2052
1631290357263,2051
1631290357267,2048
1631290357271,2049
1631290357275,2055
1631290357279,2070
1631290357283,2097
1631290357287,2134
1631290357291,2177
1631290357295,2214
1631290357299,2228
1631290357303,2209
1631290357307,2159
1631290357311,2093
1631290357315,2033
1631290357319,1998
1631290357323,1993
1631290357327,2010
1631290357331,2035
1631290357335,2052
1631290357339,2062
1631290357343,2064
1631290357347,2064
1631290357351,2064
1631290357355,2065
1631290357359,2065
1631290357363,2065
1631290357367,2065
1631290357371,2065
1631290357375,2066
1631290357379,2068
1631290357383,2070
1631290357387,2072
1631290357391,2074
1631290357395,2075
1631290357399,2075
1631290357403,2076
1631290357407,2077
1631290357411,2077
1631290357415,2079
1631290357419,2080
1631290357423,2082
1631290357427,2084
1631290357431,2085
1631290357435,2086
1631290357439,2087
1631290357443,2088
1631290357447,2089
1631290357451,2091
1631290357455,2093
1631290357459,2095
1631290357463,2097
1631290357467,2099
1631290357471,2101
1631290357475,2103
1631290357479,2106
1631290357483,2108
1631290357487,2110
1631290357491,2113
1631290357495,2116
1631290357499,2119
1631290357503,2122
1631290357507,2126
1631290357511,2129
1631290357515,2132
1631290357519,2135
1631290357523,2137
1631290357527,2140
1631290357531,2142
1631290357535,2144
1631290357539,2145
1631290357543,2147
1631290357547,2147
1631290357551,2147
1631290357555,2146
1631290357559,2144
1631290357563,2141
1631290357567,2136
1631290357571,2131
1631290357575,2124
1631290357579,2116
1631290357583,2108
1631290357587,2099
1631290357591,2089
1631290357595,2081
1631290357599,2072
1631290357603,2064
1631290357607,2057
1631290357611,2050
1631290357615,2046
1631290357619,2042
1631290357623,2039
1631290357627,2037
1631290357631,2035
1631290357635,2034
1631290357639,2032
1631290357643,2031
1631290357647,2030
1631290357651,2030
1631290357655,2030
1631290357659,2030
1631290357663,2031
1631290357667,2031
1631290357671,2032
1631290357675,2032
1631290357679,2032
1631290357683,2032
1631290357687,2032
1631290357691,2032
1631290357695,2032
1631290357699,2033
1631290357703,2033
1631290357707,2034
1631290357711,2034
1631290357715,2034
1631290357719,2034
1631290357723,2034
1631290357727,2034
1631290357731,2034
1631290357735,2034
1631290357739,2035
1631290357743,2035
1631290357747,2036
1631290357751,2036
1631290357755,2036
1631290357759,2035
1631290357763,2035
1631290357767,2035
1631290357771,2035
1631290357775,2035
1631290357779,2035
1631290357783,2036
1631290357787,2036
1631290357791,2036
1631290357795,2036
1631290357799,2035
1631290357803,2035
1631290357807,2035
1631290357811,2035
1631290357815,2035
1631290357819,2035
1631290357823,2036
1631290357827,2036
1631290357831,2036
1631290357835,2037
1631290357839,2036
1631290357843,2036
1631290357847,2036
1631290357851,2036
1631290357855,2036
1631290357859,2037
1631290357863,2037
1631290357867,2038
1631290357871,2038
1631290357875,2038
1631290357879,2038
1631290357883,2038
1631290357887,2037
1631290357891,2037
1631290357895,2038
1631290357899,2038
1631290357903,2039
1631290357907,2040
1631290357911,2040
1631290357915,2040
1631290357919,2040
1631290357923,2040
1631290357927,2039
1631290357931,2039
1631290357935,2040
1631290357939,2040
1631290357943,2041
1631290357947,2041
1631290357951,2041
1631290357955,2041
1631290357959,2040
1631290357963,2039
1631290357967,2039
1631290357971,2040
1631290357975,2041
1631290357979,2043
1631290357983,2045
1631290357987,2048
1631290357991,2049
1631290357995,2051
1631290357999,2052
1631290358003,2052
1631290358007,2052
1631290358011,2051
1631290358015,2051
1631290358019,2051
1631290358023,2052
1631290358027,2052
1631290358031,2052
1631290358035,2050
1631290358039,2048
1631290358043,2047
1631290358047,2045
1631290358051,2044
1631290358055,2044
1631290358059,2045
1631290358063,2046
1631290358067,2046
1631290358071,2046
1631290358075,2046
1631290358079,2045
1631290358083,2045
1631290358087,2044
1631290358091,2044
1631290358095,2044
1631290358099,2044
1631290358103,2045
1631290358107,2046
1631290358111,2046
1631290358115,2047
1631290358119,2047
1631290358123,2047
1631290358127,2047
1631290358131,2046
1631290358135,2044
1631290358139,2042
1631290358143,2045
1631290358147,2052
1631290358151,2069
1631290358155,2097
1631290358159,2134
1631290358163,2176
1631290358167,2208
1631290358171,2216
1631290358175,2191
1631290358179,2136
1631290358183,2070
1631290358187,2016
1631290358191,1989
1631290358195,1991
1631290358199,2012
1631290358203,2035
1631290358207,2050
1631290358211,2056
1631290358215,2057
1631290358219,2056
1631290358223,2057
1631290358227,2058
1631290358231,2059
1631290358235,2060
1631290358239,2060
1631290358243,2061
1631290358247,2061
1631290358251,2061
1631290358255,2062
1631290358259,2063
1631290358263,2064
1631290358267,2066
1631290358271,2067
1631290358275,2068
1631290358279,2069
1631290358283,2070
1631290358287,2070
1631290358291,2071
1631290358295,2072
1631290358299,2073
1631290358303,2075
1631290358307,2077
1631290358311,2079
1631290358315,2080
1631290358319,2081
1631290358323,2082
1631290358327,2083
1631290358331,2085
1631290358335,2087
1631290358339,2090
1631290358343,2092
1631290358347,2095
1631290358351,2098
1631290358355,2100
1631290358359,2103
1631290358363,2106
1631290358367,2109
1631290358371,2112
1631290358375,2115
1631290358379,2119
1631290358383,2123
1631290358387,2126
1631290358391,2129
1631290358395,2132
1631290358399,2134
1631290358403,2136
1631290358407,2138
1631290358411,2139
1631290358415,2140
1631290358419,2140
1631290358423,2140
1631290358427,2140
1631290358431,2138
1631290358435,2135
1631290358439,2130
1631290358443,2124
1631290358447,2116
1631290358451,2108
1631290358455,2099
1631290358459,2089
1631290358463,2081
1631290358467,2072
1631290358471,2065
1631290358475,2058
1631290358479,2052
1631290358483,2047
1631290358487,2042
1631290358491,2037
1631290358495,2034
1631290358499,2032
1631290358503,2031
1631290358507,2030
1631290358511,2029
1631290358515,2029
1631290358519,2029
1631290358523,2028
1631290358527,2028
1631290358531,2028
1631290358535,2028
1631290358539,2028
1631290358543,2029
1631290358547,2029
1631290358551,2030
1631290358555,2030
1631290358559,2030
1631290358563,2030
1631290358567,2030
1631290358571,2031
1631290358575,2031
1631290358579,2032
1631290358583,2033
1631290358587,2033
1631290358591,2034
1631290358595,2034
1631290358599,2034
1631290358603,2034
1631290358607,2033
1631290358611,2033
1631290358615,2034
1631290358619,2034
1631290358623,2035
1631290358627,2035
1631290358631,2035
1631290358635,2035
1631290358639,2035
1631290358643,2035
1631290358647,2034
1631290358651,2034
1631290358655,2034
1631290358659,2034
1631290358663,2035
1631290358667,2035
1631290358671,2035
1631290358675,2035
1631290358679,2035
1631290358683,2034
1631290358687,2034
1631290358691,2034
1631290358695,2034
1631290358699,2034
1631290358703,2035
1631290358707,2035
1631290358711,2035
1631290358715,2035
1631290358719,2035
1631290358723,2035
1631290358727,2035
1631290358731,2036
1631290358735,2036
1631290358739,2036
1631290358743,2037
1631290358747,2037
1631290358751,2037
1631290358755,2037
1631290358759,2037
1631290358763,2037
1631290358767,2036
1631290358771,2036
1631290358775,2036
1631290358779,2036
1631290358783,2037
1631290358787,2037
1631290358791,2038
1631290358795,2038
1631290358799,2038
1631290358803,2038
1631290358807,2038
1631290358811,2038
1631290358815,2038
1631290358819,2038
1631290358823,2039
1631290358827,2039
1631290358831,2039
1631290358835,2039
1631290358839,2038
1631290358843,2037
1631290358847,2037
1631290358851,2038
1631290358855,2039
1631290358859,2041
1631290358863,2044
1631290358867,2047
1631290358871,2048
1631290358875,2050
1631290358879,2050
1631290358883,2050
1631290358887,2050
1631290358891,2049
1631290358895,2049
1631290358899,2049
1631290358903,2049
1631290358907,2049
1631290358911,2048
1631290358915,2047
1631290358919,2045
1631290358923,2043
1631290358927,2042
1631290358931,2041
1631290358935,2041
1631290358939,2041
1631290358943,2042
1631290358947,2042
1631290358951,2042
1631290358955,2042
1631290358959,2041
1631290358963,2041
1631290358967,2040
1631290358971,2040
1631290358975,2040
1631290358979,2040
1631290358983,2041
1631290358987,2042
1631290358991,2042
1631290358995,2043
1631290358999,2043
1631290359003,2044
1631290359007,2044
1631290359011,2042
1631290359015,2039
1631290359019,2038
1631290359023,2041
1631290359027,2049
1631290359031,2069
1631290359035,2100
1631290359039,2140
1631290359043,2182
1631290359047,2210
1631290359051,2209
1631290359055,2175
1631290359059,2114
1631290359063,2049
1631290359067,2001
1631290359071,1982
1631290359075,1990
1631290359079,2014
1631290359083,2036
1631290359087,2048
1631290359091,2054
1631290359095,2054
1631290359099,2054
1631290359103,2055
1631290359107,2056
1631290359111,2057
1631290359115,2058
1631290359119,2058
1631290359123,2059
1631290359127,2059
1631290359131,2060
1631290359135,2061
1631290359139,2062
1631290359143,2063
1631290359147,2065
1631290359151,2066
1631290359155,2067
1631290359159,2068
1631290359163,2068
1631290359167,2069
1631290359171,2070
1631290359175,2071
1631290359179,2073
1631290359183,2074
1631290359187,2076
1631290359191,2078
1631290359195,2079
1631290359199,2081
1631290359203,2082
1631290359207,2083
1631290359211,2085
1631290359215,2087
1631290359219,2089
1631290359223,2092
1631290359227,2095
1631290359231,2098
1631290359235,2100
1631290359239,2103
1631290359243,2106
1631290359247,2108
1631290359251,2111
1631290359255,2114
1631290359259,2118
1631290359263,2121
1631290359267,2125
1631290359271,2128
1631290359275,2130
1631290359279,2132
1631290359283,2134
1631290359287,2135
1631290359291,2136
1631290359295,2137
1631290359299,2137
1631290359303,2137
1631290359307,2136
1631290359311,2134
1631290359315,2130
1631290359319,2125
1631290359323,2119
1631290359327,2111
1631290359331,2102
1631290359335,2093
1631290359339,2084
1631290359343,2076
1631290359347,2068
1631290359351,2060
1631290359355,2053
1631290359359,2048
1631290359363,2043
1631290359367,2038
1631290359371,2034
1631290359375,2031
1631290359379,2029
1631290359383,2028
1631290359387,2027
1631290359391,2027
1631290359395,2027
1631290359399,2026
1631290359403,2026
1631290359407,2025
1631290359411,2025
1631290359415,2025
1631290359419,2026
1631290359423,2027
1631290359427,2028
1631290359431,2029
1631290359435,2029
1631290359439,2029
1631290359443,2029
1631290359447,2029
1631290359451,2029
1631290359455,2029
1631290359459,2029
1631290359463,2029
1631290359467,2030
1631290359471,2030
1631290359475,2030
1631290359479,2030
1631290359483,2030
1631290359487,2030
1631290359491,2030
1631290359495,2030
1631290359499,2030
1631290359503,2030
1631290359507,2031
1631290359511,2031
1631290359515,2031
1631290359519,2031
1631290359523,2031
1631290359527,2030
1631290359531,2030
1631290359535,2030
1631290359539,2030
1631290359543,2031
1631290359547,2031
1631290359551,2032
1631290359555,2032
1631290359559,2031
1631290359563,2031
1631290359567,2030
1631290359571,2030
1631290359575,2030
1631290359579,2031
1631290359583,2031
1631290359587,2032
1631290359591,2032
1631290359595,2032
1631290359599,2032
1631290359603,2032
1631290359607,2032
1631290359611,2032
1631290359615,2032
1631290359619,2033
1631290359623,2033
1631290359627,2034
1631290359631,2034
1631290359635,2033
1631290359639,2033
1631290359643,2032
1631290359647,2032
1631290359651,2032
1631290359655,2033
1631290359659,2033
1631290359663,2034
1631290359667,2035
1631290359671,2035
1631290359675,2035
1631290359679,2035
1631290359683,2035
1631290359687,2035
1631290359691,2035
1631290359695,2035
1631290359699,2035
1631290359703,2036
1631290359707,2036
1631290359711,2037
1631290359715,2036
1631290359719,2036
1631290359723,2035
1631290359727,2034
1631290359731,2034
1631290359735,2035
1631290359739,2036
1631290359743,2038
1631290359747,2040
1631290359751,2042
1631290359755,2044
1631290359759,2046
1631290359763,2047
1631290359767,2048
1631290359771,2048
1631290359775,2048
1631290359779,2048
1631290359783,2048
1631290359787,2048
1631290359791,2048
1631290359795,2048
1631290359799,2048
1631290359803,2046
1631290359807,2043
1631290359811,2040
1631290359815,2039
1631290359819,2038
1631290359823,2038
1631290359827,2039
1631290359831,2039
1631290359835,2039
1631290359839,2039
1631290359843,2039
1631290359847,2038
1631290359851,2038
1631290359855,2038
1631290359859,2038
1631290359863,2038
1631290359867,2038
1631290359871,2039
1631290359875,2039
1631290359879,2039
1631290359883,2039
1631290359887,2039
1631290359891,2040
1631290359895,2041
1631290359899,2040
1631290359903,2039
1631290359907,2037
1631290359911,2038
1631290359915,2044
1631290359919,2059
1631290359923,2086
1631290359927,2125
1631290359931,2168
1631290359935,2202
1631290359939,2210
1631290359943,2183
1631290359947,2127
1631290359951,2059
1631290359955,2005
1631290359959,1977
1631290359963,1979
1631290359967,1999
1631290359971,2023
1631290359975,2038
1631290359979,2046
1631290359983,2048
1631290359987,2048
1631290359991,2048
1631290359995,2049
1631290359999,2049
1631290360003,2050
1631290360007,2052
1631290360011,2053
1631290360015,2054
1631290360019,2054
1631290360023,2055
1631290360027,2055
1631290360031,2056
1631290360035,2057
1631290360039,2058
1631290360043,2059
1631290360047,2060
1631290360051,2061
1631290360055,2062
1631290360059,2063
1631290360063,2065
1631290360067,2067
1631290360071,2068
1631290360075,2069
1631290360079,2070
1631290360083,2071
1631290360087,2072
1631290360091,2074
1631290360095,2076
1631290360099,2079
1631290360103,2081
1631290360107,2083
1631290360111,2086
1631290360115,2087
1631290360119,2089
1631290360123,2091
1631290360127,2093
1631290360131,2096
1631290360135,2099
1631290360139,2102
1631290360143,2106
1631290360147,2110
1631290360151,2114
1631290360155,2117
1631290360159,2119
1631290360163,2121
1631290360167,2123
1631290360171,2125
1631290360175,2127
1631290360179,2129
1631290360183,2130
1631290360187,2131
1631290360191,2130
1631290360195,2129
1631290360199,2127
1631290360203,2123
1631290360207,2119
1631290360211,2113
1631290360215,2106
1631290360219,2098
1631290360223,2090
1631290360227,2081
1631290360231,2072
1631290360235,2063
1631290360239,2055
1631290360243,2048
1631290360247,2041
1631290360251,2036
1631290360255,2031
1631290360259,2027
1631290360263,2024
1631290360267,2022
1631290360271,2021
1631290360275,2019
1631290360279,2018
1631290360283,2017
1631290360287,2016
1631290360291,2016
1631290360295,2016
1631290360299,2017
1631290360303,2018
1631290360307,2018
1631290360311,2019
1631290360315,2020
1631290360319,2020
1631290360323,2020
1631290360327,2020
1631290360331,2020
1631290360335,2020
1631290360339,2021
1631290360343,2022
1631290360347,2023
1631290360351,2023
1631290360355,2024
1631290360359,2023
1631290360363,2022
1631290360367,2022
1631290360371,2021
1631290360375,2021
1631290360379,2022
1631290360383,2022
1631290360387,2023
1631290360391,2023
1631290360395,2023
1631290360399,2023
1631290360403,2023
1631290360407,2023
1631290360411,2023
1631290360415,2023
1631290360419,2024
1631290360423,2024
1631290360427,2024
1631290360431,2024
1631290360435,2023
1631290360439,2023
1631290360443,2022
1631290360447,2022
1631290360451,2022
1631290360455,2023
1631290360459,2023
1631290360463,2023
1631290360467,2023
1631290360471,2023
1631290360475,2023
1631290360479,2023
1631290360483,2023
1631290360487,2022
1631290360491,2021
1631290360495,2021
1631290360499,2022
1631290360503,2023
1631290360507,2024
1631290360511,2025
1631290360515,2024
1631290360519,2024
1631290360523,2023
1631290360527,2022
1631290360531,2022
1631290360535,2023
1631290360539,2023
1631290360543,2024
1631290360547,2025
1631290360551,2026
1631290360555,2026
1631290360559,2026
1631290360563,2025
1631290360567,2025
1631290360571,2025
1631290360575,2025
1631290360579,2026
1631290360583,2027
1631290360587,2027
1631290360591,2027
1631290360595,2026
1631290360599,2025
1631290360603,2025
1631290360607,2026
1631290360611,2027
1631290360615,2029
1631290360619,2031
1631290360623,2034
1631290360627,2036
1631290360631,2038
1631290360635,2039
1631290360639,2040
1631290360643,2040
1631290360647,2039
1631290360651,2039
1631290360655,2040
1631290360659,2040
1631290360663,2039
1631290360667,2038
1631290360671,2036
1631290360675,2034
1631290360679,2032
1631290360683,2031
1631290360687,2030
1631290360691,2031
1631290360695,2031
1631290360699,2032
1631290360703,2032
1631290360707,2033
1631290360711,2032
1631290360715,2032
1631290360719,2031
1631290360723,2031
1631290360727,2030
1631290360731,2031
1631290360735,2031
1631290360739,2032
1631290360743,2033
1631290360747,2034
1631290360751,2034
1631290360755,2035
1631290360759,2036
1631290360763,2036
1631290360767,2035
1631290360771,2033
1631290360775,2031
1631290360779,2033
1631290360783,2043
1631290360787,2062
1631290360791,2095
1631290360795,2137
1631290360799,2178
1631290360803,2205
1631290360807,2202
1631290360811,2164
1631290360815,2102
1631290360819,2036
1631290360823,1987
1631290360827,1968
1631290360831,1975
1631290360835,1996
1631290360839,2018
1631290360843,2031
1631290360847,2038
1631290360851,2041
1631290360855,2044
1631290360859,2047
1631290360863,2049
1631290360867,2050
1631290360871,2052
1631290360875,2053
1631290360879,2054
1631290360883,2054
1631290360887,2055
1631290360891,2056
1631290360895,2057
1631290360899,2058
1631290360903,2060
1631290360907,2062
1631290360911,2063
1631290360915,2064
1631290360919,2064
1631290360923,2065
1631290360927,2066
1631290360931,2068
1631290360935,2069
1631290360939,2071
1631290360943,2073
1631290360947,2075
1631290360951,2077
1631290360955,2079
1631290360959,2080
1631290360963,2082
1631290360967,2083
1631290360971,2085
1631290360975,2087
1631290360979,2089
1631290360983,2092
1631290360987,2096
1631290360991,2099
1631290360995,2103
1631290360999,2105
1631290361003,2108
1631290361007,2110
1631290361011,2113
1631290361015,2116
1631290361019,2120
1631290361023,2124
1631290361027,2127
1631290361031,2130
1631290361035,2132
1631290361039,2134
1631290361043,2136
1631290361047,2137
1631290361051,2137
1631290361055,2137
1631290361059,2137
1631290361063,2136
1631290361067,2133
1631290361071,2130
1631290361075,2125
1631290361079,2119
1631290361083,2111
1631290361087,2102
1631290361091,2093
1631290361095,2083
1631290361099,2075
1631290361103,2066
1631290361107,2059
1631290361111,2052
1631290361115,2047
1631290361119,2042
1631290361123,2038
1631290361127,2034
1631290361131,2031
1631290361135,2029
1631290361139,2027
1631290361143,2026
1631290361147,2026
1631290361151,2026
1631290361155,2026
1631290361159,2026
1631290361163,2026
1631290361167,2026
1631290361171,2027
1631290361175,2027
1631290361179,2028
1631290361183,2028
1631290361187,2029
1631290361191,2029
1631290361195,2030
1631290361199,2030
1631290361203,2030
1631290361207,2030
1631290361211,2030
1631290361215,2031
1631290361219,2031
1631290361223,2032
1631290361227,2032
1631290361231,2033
1631290361235,2033
1631290361239,2033
1631290361243,2032
1631290361247,2032
1631290361251,2032
1631290361255,2032
1631290361259,2032
1631290361263,2033
1631290361267,2033
1631290361271,2034
1631290361275,2034
1631290361279,2033
1631290361283,2033
1631290361287,2033
1631290361291,2033
1631290361295,2033
1631290361299,2034
1631290361303,2034
1631290361307,2034
1631290361311,2034
1631290361315,2034
1631290361319,2034
1631290361323,2034
1631290361327,2034
1631290361331,2034
1631290361335,2034
1631290361339,2035
1631290361343,2035
1631290361347,2036
1631290361351,2037
1631290361355,2037
1631290361359,2037
1631290361363,2037
1631290361367,2037
1631290361371,2037
1631290361375,2038
1631290361379,2038
1631290361383,2039
1631290361387,2039
1631290361391,2040
1631290361395,2040
1631290361399,2040
1631290361403,2040
1631290361407,2040
1631290361411,2040
1631290361415,2040
1631290361419,2040
1631290361423,2041
1631290361427,2041
1631290361431,2042
1631290361435,2042
1631290361439,2041
1631290361443,2041
1631290361447,2041
1631290361451,2041
1631290361455,2041
1631290361459,2042
1631290361463,2042
1631290361467,2041
1631290361471,2041
1631290361475,2041
1631290361479,2041
1631290361483,2042
1631290361487,2044
1631290361491,2047
1631290361495,2048
1631290361499,2051
1631290361503,2052
1631290361507,2053
1631290361511,2054
1631290361515,2054
1631290361519,2053
1631290361523,2053
1631290361527,2053
1631290361531,2052
1631290361535,2052
1631290361539,2052
1631290361543,2051
1631290361547,2050
1631290361551,2048
1631290361555,2048
1631290361559,2048
1631290361563,2048
1631290361567,2047
1631290361571,2047
1631290361575,2047
1631290361579,2047
1631290361583,2047
1631290361587,2047
1631290361591,2048
1631290361595,2047
1631290361599,2047
1631290361603,2047
1631290361607,2046
1631290361611,2046
1631290361615,2047
1631290361619,2047
1631290361623,2048
1631290361627,2048
1631290361631,2049
1631290361635,2050
1631290361639,2048
1631290361643,2046
1631290361647,2044
1631290361651,2046
1631290361655,2055
1631290361659,2077
1631290361663,2111
1631290361667,2154
1631290361671,2196
1631290361675,2222
1631290361679,2215
1631290361683,2175
1631290361687,2111
1631290361691,2046
1631290361695,2000
1631290361699,1984
1631290361703,1995
1631290361707,2019
1631290361711,2041
1631290361715,2052
1631290361719,2058
1631290361723,2058
1631290361727,2058
1631290361731,2059
1631290361735,2060
1631290361739,2060
1631290361743,2062
1631290361747,2063
1631290361751,2064
1631290361755,2065
1631290361759,2066
1631290361763,2066
1631290361767,2067
1631290361771,2067
1631290361775,2068
1631290361779,2069
1631290361783,2071
1631290361787,2073
1631290361791,2074
1631290361795,2075
1631290361799,2076
1631290361803,2077
1631290361807,2078
1631290361811,2079
1631290361815,2080
1631290361819,2082
1631290361823,2084
1631290361827,2086
1631290361831,2088
1631290361835,2090
1631290361839,2091
1631290361843,2093
1631290361847,2094
1631290361851,2096
1631290361855,2098
1631290361859,2101
1631290361863,2104
1631290361867,2107
1631290361871,2111
1631290361875,2114
1631290361879,2117
1631290361883,2120
1631290361887,2123
1631290361891,2126
1631290361895,2129
1631290361899,2132
1631290361903,2135
1631290361907,2137
1631290361911,2139
1631290361915,2141
1631290361919,2141
1631290361923,2142
1631290361927,2141
1631290361931,2141
1631290361935,2139
1631290361939,2137
1631290361943,2133
1631290361947,2128
1631290361951,2122
1631290361955,2114
1631290361959,2105
1631290361963,2096
1631290361967,2086
1631290361971,2077
1631290361975,2068
1631290361979,2061
1631290361983,2054
1631290361987,2048
1631290361991,2044
1631290361995,2040
1631290361999,2036
1631290362003,2033
1631290362007,2031
1631290362011,2029
1631290362015,2028
1631290362019,2027
1631290362023,2027
1631290362027,2027
1631290362031,2027
1631290362035,2027
1631290362039,2027
1631290362043,2027
1631290362047,2027
1631290362051,2028
1631290362055,2028
1631290362059,2029
1631290362063,2030
1631290362067,2030
1631290362071,2031
1631290362075,2031
1631290362079,2031
1631290362083,2031
1631290362087,2031
1631290362091,2031
1631290362095,2032
1631290362099,2032
1631290362103,2033
1631290362107,2033
1631290362111,2033
1631290362115,2033
1631290362119,2033
1631290362123,2033
1631290362127,2033
1631290362131,2032
1631290362135,2032
1631290362139,2032
1631290362143,2033
1631290362147,2033
1631290362151,2034
1631290362155,2034
1631290362159,2034
1631290362163,2033
1631290362167,2033
1631290362171,2032
1631290362175,2033
1631290362179,2033
1631290362183,2034
1631290362187,2034
1631290362191,2034
1631290362195,2034
1631290362199,2034
1631290362203,2034
1631290362207,2033
1631290362211,2033
1631290362215,2033
1631290362219,2033
1631290362223,2033
1631290362227,2034
1631290362231,2035
1631290362235,2035
1631290362239,2035
1631290362243,2035
1631290362247,2034
1631290362251,2034
1631290362255,2034
1631290362259,2035
1631290362263,2035
1631290362267,2036
1631290362271,2036
1631290362275,2036
1631290362279,2036
1631290362283,2036
1631290362287,2035
1631290362291,2035
1631290362295,2036
1631290362299,2036
1631290362303,2037
1631290362307,2037
1631290362311,2038
1631290362315,2038
1631290362319,2038
1631290362323,2038
1631290362327,2037
1631290362331,2037
1631290362335,2037
1631290362339,2036
1631290362343,2036
1631290362347,2036
1631290362351,2036
1631290362355,2037
1631290362359,2038
1631290362363,2040
1631290362367,2041
1631290362371,2043
1631290362375,2046
1631290362379,2048
1631290362383,2048
1631290362387,2049
1631290362391,2049
1631290362395,2048
1631290362399,2048
1631290362403,2048
1631290362407,2048
1631290362411,2048
1631290362415,2048
1631290362419,2046
1631290362423,2045
1631290362427,2043
