timestamp,ecg_waveform
1630937420086,2021
1630937420090,2020
1630937420094,2020
1630937420098,2020
1630937420102,2020
1630937420106,2020
1630937420110,2020
1630937420114,2019
1630937420118,2018
1630937420122,2017
1630937420126,2018
1630937420130,2018
1630937420134,2019
1630937420138,2021
1630937420142,2021
1630937420146,2022
1630937420150,2022
1630937420154,2021
1630937420158,2021
1630937420162,2020
1630937420166,2019
1630937420170,2018
1630937420174,2019
1630937420178,2019
1630937420182,2020
1630937420186,2020
1630937420190,2020
1630937420194,2019
1630937420198,2018
1630937420202,2018
1630937420206,2018
1630937420210,2018
1630937420214,2019
1630937420218,2019
1630937420222,2020
1630937420226,2019
1630937420230,2018
1630937420234,2017
1630937420238,2017
1630937420242,2016
1630937420246,2016
1630937420250,2017
1630937420254,2018
1630937420258,2018
1630937420262,2018
1630937420266,2018
1630937420270,2018
1630937420274,2018
1630937420278,2017
1630937420282,2017
1630937420286,2017
1630937420290,2017
1630937420294,2017
1630937420298,2017
1630937420302,2017
1630937420306,2017
1630937420310,2016
1630937420314,2015
1630937420318,2015
1630937420322,2016
1630937420326,2018
1630937420330,2020
1630937420334,2021
1630937420338,2020
1630937420342,2020
1630937420346,2019
1630937420350,2019
1630937420354,2018
1630937420358,2018
1630937420362,2018
1630937420366,2019
1630937420370,2019
1630937420374,2019
1630937420378,2020
1630937420382,2020
1630937420386,2020
1630937420390,2020
1630937420394,2020
1630937420398,2020
1630937420402,2020
1630937420406,2020
1630937420410,2020
1630937420414,2019
1630937420418,2018
1630937420422,2017
1630937420426,2016
1630937420430,2016
1630937420434,2017
1630937420438,2018
1630937420442,2020
1630937420446,2021
1630937420450,2023
1630937420454,2025
1630937420458,2026
1630937420462,2026
1630937420466,2025
1630937420470,2024
1630937420474,2023
1630937420478,2021
1630937420482,2020
1630937420486,2020
1630937420490,2019
1630937420494,2019
1630937420498,2020
1630937420502,2021
1630937420506,2024
1630937420510,2026
1630937420514,2025
1630937420518,2018
1630937420522,2006
1630937420526,1990
1630937420530,1976
1630937420534,1973
1630937420538,1985
1630937420542,2014
1630937420546,2056
1630937420550,2104
1630937420554,2146
1630937420558,2169
1630937420562,2170
1630937420566,2152
1630937420570,2124
1630937420574,2095
1630937420578,2072
1630937420582,2055
1630937420586,2043
1630937420590,2033
1630937420594,2024
1630937420598,2018
1630937420602,2016
1630937420606,2017
1630937420610,2017
1630937420614,2017
1630937420618,2017
1630937420622,2017
1630937420626,2017
1630937420630,2017
1630937420634,2017
1630937420638,2016
1630937420642,2016
1630937420646,2016
1630937420650,2016
1630937420654,2018
1630937420658,2019
1630937420662,2019
1630937420666,2018
1630937420670,2017
1630937420674,2017
1630937420678,2018
1630937420682,2020
1630937420686,2022
1630937420690,2024
1630937420694,2026
1630937420698,2028
1630937420702,2030
1630937420706,2032
1630937420710,2033
1630937420714,2035
1630937420718,2037
1630937420722,2038
1630937420726,2040
1630937420730,2042
1630937420734,2044
1630937420738,2046
1630937420742,2048
1630937420746,2049
1630937420750,2051
1630937420754,2053
1630937420758,2055
1630937420762,2056
1630937420766,2057
1630937420770,2058
1630937420774,2060
1630937420778,2061
1630937420782,2062
1630937420786,2062
1630937420790,2061
1630937420794,2058
1630937420798,2055
1630937420802,2051
1630937420806,2048
1630937420810,2045
1630937420814,2043
1630937420818,2041
1630937420822,2038
1630937420826,2036
1630937420830,2033
1630937420834,2031
1630937420838,2029
1630937420842,2027
1630937420846,2027
1630937420850,2027
1630937420854,2028
1630937420858,2028
1630937420862,2029
1630937420866,2029
1630937420870,2028
1630937420874,2028
1630937420878,2027
1630937420882,2027
1630937420886,2027
1630937420890,2028
1630937420894,2028
1630937420898,2029
1630937420902,2029
1630937420906,2029
1630937420910,2028
1630937420914,2028
1630937420918,2027
1630937420922,2026
1630937420926,2026
1630937420930,2026
1630937420934,2027
1630937420938,2028
1630937420942,2029
1630937420946,2030
1630937420950,2030
1630937420954,2029
1630937420958,2029
1630937420962,2029
1630937420966,2030
1630937420970,2031
1630937420974,2033
1630937420978,2035
1630937420982,2035
1630937420986,2036
1630937420990,2035
1630937420994,2035
1630937420998,2035
1630937421002,2035
1630937421006,2035
1630937421010,2035
1630937421014,2036
1630937421018,2037
1630937421022,2037
1630937421026,2037
1630937421030,2037
1630937421034,2036
1630937421038,2035
1630937421042,2035
1630937421046,2036
1630937421050,2036
1630937421054,2037
1630937421058,2037
1630937421062,2037
1630937421066,2036
1630937421070,2035
1630937421074,2035
1630937421078,2035
1630937421082,2035
1630937421086,2036
1630937421090,2037
1630937421094,2037
1630937421098,2037
1630937421102,2037
1630937421106,2037
1630937421110,2037
1630937421114,2037
1630937421118,2037
1630937421122,2037
1630937421126,2037
1630937421130,2037
1630937421134,2038
1630937421138,2038
1630937421142,2039
1630937421146,2039
1630937421150,2039
1630937421154,2039
1630937421158,2038
1630937421162,2038
1630937421166,2038
1630937421170,2038
1630937421174,2039
1630937421178,2039
1630937421182,2040
1630937421186,2039
1630937421190,2039
1630937421194,2039
1630937421198,2039
1630937421202,2040
1630937421206,2041
1630937421210,2042
1630937421214,2043
1630937421218,2043
1630937421222,2044
1630937421226,2044
1630937421230,2043
1630937421234,2043
1630937421238,2042
1630937421242,2042
1630937421246,2042
1630937421250,2043
1630937421254,2044
1630937421258,2045
1630937421262,2046
1630937421266,2046
1630937421270,2046
1630937421274,2046
1630937421278,2046
1630937421282,2046
1630937421286,2046
1630937421290,2046
1630937421294,2045
1630937421298,2045
1630937421302,2044
1630937421306,2045
1630937421310,2045
1630937421314,2046
1630937421318,2047
1630937421322,2048
1630937421326,2050
1630937421330,2052
1630937421334,2053
1630937421338,2054
1630937421342,2055
1630937421346,2055
1630937421350,2054
1630937421354,2053
1630937421358,2051
1630937421362,2050
1630937421366,2049
1630937421370,2049
1630937421374,2050
1630937421378,2051
1630937421382,2053
1630937421386,2054
1630937421390,2052
1630937421394,2047
1630937421398,2035
1630937421402,2021
1630937421406,2009
1630937421410,2004
1630937421414,2014
1630937421418,2039
1630937421422,2079
1630937421426,2127
1630937421430,2168
1630937421434,2192
1630937421438,2190
1630937421442,2169
1630937421446,2139
1630937421450,2110
1630937421454,2090
1630937421458,2078
1630937421462,2071
1630937421466,2064
1630937421470,2057
1630937421474,2051
1630937421478,2048
1630937421482,2047
1630937421486,2047
1630937421490,2047
1630937421494,2047
1630937421498,2047
1630937421502,2048
1630937421506,2048
1630937421510,2048
1630937421514,2048
1630937421518,2048
1630937421522,2048
1630937421526,2048
1630937421530,2048
1630937421534,2050
1630937421538,2051
1630937421542,2052
1630937421546,2053
1630937421550,2053
1630937421554,2052
1630937421558,2052
1630937421562,2052
1630937421566,2053
1630937421570,2054
1630937421574,2055
1630937421578,2057
1630937421582,2058
1630937421586,2059
1630937421590,2060
1630937421594,2061
1630937421598,2062
1630937421602,2063
1630937421606,2064
1630937421610,2066
1630937421614,2068
1630937421618,2070
1630937421622,2072
1630937421626,2074
1630937421630,2075
1630937421634,2077
1630937421638,2078
1630937421642,2080
1630937421646,2082
1630937421650,2083
1630937421654,2085
1630937421658,2085
1630937421662,2085
1630937421666,2084
1630937421670,2082
1630937421674,2080
1630937421678,2076
1630937421682,2072
1630937421686,2069
1630937421690,2065
1630937421694,2061
1630937421698,2059
1630937421702,2056
1630937421706,2054
1630937421710,2052
1630937421714,2051
1630937421718,2049
1630937421722,2048
1630937421726,2048
1630937421730,2047
1630937421734,2048
1630937421738,2048
1630937421742,2048
1630937421746,2048
1630937421750,2048
1630937421754,2048
1630937421758,2047
1630937421762,2047
1630937421766,2047
1630937421770,2047
1630937421774,2048
1630937421778,2048
1630937421782,2048
1630937421786,2048
1630937421790,2047
1630937421794,2047
1630937421798,2047
1630937421802,2047
1630937421806,2047
1630937421810,2046
1630937421814,2047
1630937421818,2047
1630937421822,2047
1630937421826,2048
1630937421830,2048
1630937421834,2048
1630937421838,2048
1630937421842,2048
1630937421846,2048
1630937421850,2048
1630937421854,2048
1630937421858,2048
1630937421862,2048
1630937421866,2049
1630937421870,2049
1630937421874,2049
1630937421878,2049
1630937421882,2049
1630937421886,2049
1630937421890,2049
1630937421894,2050
1630937421898,2050
1630937421902,2050
1630937421906,2050
1630937421910,2050
1630937421914,2050
1630937421918,2049
1630937421922,2049
1630937421926,2050
1630937421930,2050
1630937421934,2051
1630937421938,2051
1630937421942,2052
1630937421946,2052
1630937421950,2052
1630937421954,2052
1630937421958,2052
1630937421962,2051
1630937421966,2051
1630937421970,2051
1630937421974,2051
1630937421978,2051
1630937421982,2051
1630937421986,2051
1630937421990,2051
1630937421994,2051
1630937421998,2051
1630937422002,2051
1630937422006,2051
1630937422010,2051
1630937422014,2051
1630937422018,2052
1630937422022,2052
1630937422026,2052
1630937422030,2052
1630937422034,2052
1630937422038,2051
1630937422042,2051
1630937422046,2051
1630937422050,2051
1630937422054,2051
1630937422058,2051
1630937422062,2051
1630937422066,2051
1630937422070,2051
1630937422074,2051
1630937422078,2051
1630937422082,2051
1630937422086,2051
1630937422090,2051
1630937422094,2051
1630937422098,2051
1630937422102,2051
1630937422106,2051
1630937422110,2051
1630937422114,2051
1630937422118,2051
1630937422122,2050
1630937422126,2049
1630937422130,2048
1630937422134,2048
1630937422138,2047
1630937422142,2047
1630937422146,2048
1630937422150,2049
1630937422154,2050
1630937422158,2052
1630937422162,2053
1630937422166,2054
1630937422170,2055
1630937422174,2056
1630937422178,2056
1630937422182,2056
1630937422186,2055
1630937422190,2054
1630937422194,2052
1630937422198,2051
1630937422202,2050
1630937422206,2049
1630937422210,2049
1630937422214,2050
1630937422218,2053
1630937422222,2055
1630937422226,2052
1630937422230,2045
1630937422234,2031
1630937422238,2013
1630937422242,2000
1630937422246,1999
1630937422250,2014
1630937422254,2048
1630937422258,2098
1630937422262,2150
1630937422266,2192
1630937422270,2213
1630937422274,2208
1630937422278,2184
1630937422282,2151
1630937422286,2120
1630937422290,2096
1630937422294,2080
1630937422298,2069
1630937422302,2060
1630937422306,2052
1630937422310,2047
1630937422314,2045
1630937422318,2044
1630937422322,2042
1630937422326,2041
1630937422330,2041
1630937422334,2040
1630937422338,2040
1630937422342,2040
1630937422346,2040
1630937422350,2040
1630937422354,2040
1630937422358,2039
1630937422362,2039
1630937422366,2039
1630937422370,2040
1630937422374,2040
1630937422378,2041
1630937422382,2041
1630937422386,2041
1630937422390,2042
1630937422394,2042
1630937422398,2042
1630937422402,2042
1630937422406,2042
1630937422410,2043
1630937422414,2045
1630937422418,2046
1630937422422,2047
1630937422426,2047
1630937422430,2048
1630937422434,2048
1630937422438,2048
1630937422442,2049
1630937422446,2050
1630937422450,2052
1630937422454,2054
1630937422458,2056
1630937422462,2058
1630937422466,2060
1630937422470,2061
1630937422474,2062
1630937422478,2062
1630937422482,2063
1630937422486,2064
1630937422490,2064
1630937422494,2065
1630937422498,2066
1630937422502,2065
1630937422506,2063
1630937422510,2060
1630937422514,2056
1630937422518,2052
1630937422522,2048
1630937422526,2046
1630937422530,2042
1630937422534,2040
1630937422538,2037
1630937422542,2035
1630937422546,2033
1630937422550,2031
1630937422554,2030
1630937422558,2029
1630937422562,2028
1630937422566,2027
1630937422570,2027
1630937422574,2027
1630937422578,2026
1630937422582,2026
1630937422586,2025
1630937422590,2025
1630937422594,2024
1630937422598,2024
1630937422602,2024
1630937422606,2024
1630937422610,2024
1630937422614,2024
1630937422618,2024
1630937422622,2024
1630937422626,2024
1630937422630,2023
1630937422634,2023
1630937422638,2022
1630937422642,2021
1630937422646,2021
1630937422650,2021
1630937422654,2021
1630937422658,2022
1630937422662,2022
1630937422666,2022
1630937422670,2022
1630937422674,2022
1630937422678,2022
1630937422682,2021
1630937422686,2021
1630937422690,2021
1630937422694,2022
1630937422698,2022
1630937422702,2022
1630937422706,2023
1630937422710,2023
1630937422714,2023
1630937422718,2023
1630937422722,2023
1630937422726,2022
1630937422730,2022
1630937422734,2022
1630937422738,2023
1630937422742,2023
1630937422746,2024
1630937422750,2023
1630937422754,2023
1630937422758,2022
1630937422762,2022
1630937422766,2023
1630937422770,2023
1630937422774,2024
1630937422778,2024
1630937422782,2024
1630937422786,2024
1630937422790,2024
1630937422794,2025
1630937422798,2025
1630937422802,2026
1630937422806,2026
1630937422810,2026
1630937422814,2026
1630937422818,2026
1630937422822,2027
1630937422826,2027
1630937422830,2027
1630937422834,2027
1630937422838,2027
1630937422842,2026
1630937422846,2026
1630937422850,2026
1630937422854,2027
1630937422858,2027
1630937422862,2028
1630937422866,2028
1630937422870,2027
1630937422874,2026
1630937422878,2025
1630937422882,2025
1630937422886,2025
1630937422890,2026
1630937422894,2027
1630937422898,2028
1630937422902,2029
1630937422906,2029
1630937422910,2028
1630937422914,2028
1630937422918,2027
1630937422922,2027
1630937422926,2028
1630937422930,2028
1630937422934,2029
1630937422938,2029
1630937422942,2029
1630937422946,2029
1630937422950,2028
1630937422954,2028
1630937422958,2027
1630937422962,2027
1630937422966,2028
1630937422970,2028
1630937422974,2029
1630937422978,2030
1630937422982,2029
1630937422986,2028
1630937422990,2027
1630937422994,2025
1630937422998,2024
1630937423002,2025
1630937423006,2027
1630937423010,2029
1630937423014,2031
1630937423018,2033
1630937423022,2034
1630937423026,2034
1630937423030,2034
1630937423034,2034
1630937423038,2033
1630937423042,2032
1630937423046,2032
1630937423050,2031
1630937423054,2031
1630937423058,2030
1630937423062,2030
1630937423066,2028
1630937423070,2028
1630937423074,2029
1630937423078,2030
1630937423082,2031
1630937423086,2027
1630937423090,2019
1630937423094,2005
1630937423098,1990
1630937423102,1981
1630937423106,1985
1630937423110,2006
1630937423114,2043
1630937423118,2090
1630937423122,2137
1630937423126,2171
1630937423130,2185
1630937423134,2177
1630937423138,2153
1630937423142,2123
1630937423146,2096
1630937423150,2074
1630937423154,2058
1630937423158,2048
1630937423162,2039
1630937423166,2032
1630937423170,2028
1630937423174,2027
1630937423178,2027
1630937423182,2027
1630937423186,2027
1630937423190,2027
1630937423194,2026
1630937423198,2026
1630937423202,2026
1630937423206,2026
1630937423210,2026
1630937423214,2027
1630937423218,2028
1630937423222,2028
1630937423226,2028
1630937423230,2028
1630937423234,2028
1630937423238,2028
1630937423242,2028
1630937423246,2029
1630937423250,2030
1630937423254,2031
1630937423258,2032
1630937423262,2033
1630937423266,2033
1630937423270,2034
1630937423274,2034
1630937423278,2035
1630937423282,2036
1630937423286,2037
1630937423290,2039
1630937423294,2040
1630937423298,2042
1630937423302,2044
1630937423306,2046
1630937423310,2047
1630937423314,2048
1630937423318,2050
1630937423322,2052
1630937423326,2054
1630937423330,2057
1630937423334,2059
1630937423338,2061
1630937423342,2063
1630937423346,2064
1630937423350,2064
1630937423354,2064
1630937423358,2063
1630937423362,2062
1630937423366,2060
1630937423370,2058
1630937423374,2056
1630937423378,2053
1630937423382,2050
1630937423386,2047
1630937423390,2044
1630937423394,2042
1630937423398,2039
1630937423402,2037
1630937423406,2035
1630937423410,2034
1630937423414,2033
1630937423418,2033
1630937423422,2033
1630937423426,2033
1630937423430,2032
1630937423434,2032
1630937423438,2032
1630937423442,2032
1630937423446,2033
1630937423450,2033
1630937423454,2034
1630937423458,2034
1630937423462,2034
1630937423466,2035
1630937423470,2035
1630937423474,2034
1630937423478,2034
1630937423482,2034
1630937423486,2034
1630937423490,2035
1630937423494,2036
1630937423498,2036
1630937423502,2036
1630937423506,2036
1630937423510,2036
1630937423514,2036
1630937423518,2036
1630937423522,2037
1630937423526,2037
1630937423530,2038
1630937423534,2038
1630937423538,2039
1630937423542,2039
1630937423546,2040
1630937423550,2040
1630937423554,2040
1630937423558,2040
1630937423562,2040
1630937423566,2040
1630937423570,2041
1630937423574,2042
1630937423578,2042
1630937423582,2043
1630937423586,2043
1630937423590,2043
1630937423594,2043
1630937423598,2043
1630937423602,2044
1630937423606,2044
1630937423610,2044
1630937423614,2045
1630937423618,2046
1630937423622,2046
1630937423626,2046
1630937423630,2046
1630937423634,2046
1630937423638,2046
1630937423642,2046
1630937423646,2046
1630937423650,2046
1630937423654,2047
1630937423658,2048
1630937423662,2048
1630937423666,2049
1630937423670,2049
1630937423674,2048
1630937423678,2048
1630937423682,2048
1630937423686,2048
1630937423690,2048
1630937423694,2049
1630937423698,2049
1630937423702,2050
1630937423706,2050
1630937423710,2050
1630937423714,2051
1630937423718,2051
1630937423722,2051
1630937423726,2051
1630937423730,2051
1630937423734,2051
1630937423738,2052
1630937423742,2052
1630937423746,2053
1630937423750,2053
1630937423754,2054
1630937423758,2054
1630937423762,2053
1630937423766,2053
1630937423770,2053
1630937423774,2053
1630937423778,2054
1630937423782,2054
1630937423786,2054
1630937423790,2055
1630937423794,2055
1630937423798,2055
1630937423802,2055
1630937423806,2055
1630937423810,2055
1630937423814,2056
1630937423818,2056
1630937423822,2057
1630937423826,2057
1630937423830,2057
1630937423834,2057
1630937423838,2056
1630937423842,2056
1630937423846,2056
1630937423850,2056
1630937423854,2056
1630937423858,2056
1630937423862,2056
1630937423866,2055
1630937423870,2056
1630937423874,2057
1630937423878,2058
1630937423882,2060
1630937423886,2061
1630937423890,2063
1630937423894,2064
1630937423898,2065
1630937423902,2065
1630937423906,2066
1630937423910,2065
1630937423914,2064
1630937423918,2063
1630937423922,2062
1630937423926,2061
1630937423930,2061
1630937423934,2060
1630937423938,2060
1630937423942,2060
1630937423946,2062
1630937423950,2065
1630937423954,2065
1630937423958,2060
1630937423962,2049
1630937423966,2037
1630937423970,2025
1630937423974,2020
1630937423978,2030
1630937423982,2053
1630937423986,2092
1630937423990,2138
1630937423994,2178
1630937423998,2201
1630937424002,2203
1630937424006,2186
1630937424010,2157
1630937424014,2129
1630937424018,2108
1630937424022,2095
1630937424026,2086
1630937424030,2078
1630937424034,2070
1630937424038,2064
1630937424042,2061
1630937424046,2060
1630937424050,2060
1630937424054,2060
1630937424058,2060
1630937424062,2059
1630937424066,2058
1630937424070,2058
1630937424074,2057
1630937424078,2057
1630937424082,2057
1630937424086,2057
1630937424090,2058
1630937424094,2058
1630937424098,2059
1630937424102,2059
1630937424106,2060
1630937424110,2061
1630937424114,2062
1630937424118,2062
1630937424122,2062
1630937424126,2063
1630937424130,2063
1630937424134,2064
1630937424138,2065
1630937424142,2066
1630937424146,2068
1630937424150,2069
1630937424154,2070
1630937424158,2070
1630937424162,2071
1630937424166,2071
1630937424170,2073
1630937424174,2075
1630937424178,2076
1630937424182,2078
1630937424186,2080
1630937424190,2081
1630937424194,2083
1630937424198,2083
1630937424202,2085
1630937424206,2086
1630937424210,2087
1630937424214,2089
1630937424218,2089
1630937424222,2090
1630937424226,2089
1630937424230,2088
1630937424234,2086
1630937424238,2083
1630937424242,2080
1630937424246,2077
1630937424250,2073
1630937424254,2069
1630937424258,2066
1630937424262,2063
1630937424266,2060
1630937424270,2058
1630937424274,2056
1630937424278,2054
1630937424282,2052
1630937424286,2050
1630937424290,2050
1630937424294,2050
1630937424298,2050
1630937424302,2051
1630937424306,2051
1630937424310,2051
1630937424314,2050
1630937424318,2049
1630937424322,2048
1630937424326,2048
1630937424330,2048
1630937424334,2048
1630937424338,2048
1630937424342,2048
1630937424346,2048
1630937424350,2048
1630937424354,2047
1630937424358,2046
1630937424362,2045
1630937424366,2045
1630937424370,2045
1630937424374,2045
1630937424378,2046
1630937424382,2046
1630937424386,2046
1630937424390,2046
1630937424394,2046
1630937424398,2046
1630937424402,2046
1630937424406,2046
1630937424410,2045
1630937424414,2046
1630937424418,2046
1630937424422,2046
1630937424426,2046
1630937424430,2046
1630937424434,2046
1630937424438,2045
1630937424442,2045
1630937424446,2045
1630937424450,2045
1630937424454,2045
1630937424458,2045
1630937424462,2045
1630937424466,2045
1630937424470,2044
1630937424474,2044
1630937424478,2043
1630937424482,2043
1630937424486,2043
1630937424490,2043
1630937424494,2044
1630937424498,2043
1630937424502,2043
1630937424506,2043
1630937424510,2042
1630937424514,2042
1630937424518,2041
1630937424522,2041
1630937424526,2041
1630937424530,2041
1630937424534,2041
1630937424538,2041
1630937424542,2041
1630937424546,2041
1630937424550,2040
1630937424554,2040
1630937424558,2039
1630937424562,2039
1630937424566,2040
1630937424570,2040
1630937424574,2040
1630937424578,2040
1630937424582,2040
1630937424586,2040
1630937424590,2040
1630937424594,2040
1630937424598,2039
1630937424602,2038
1630937424606,2038
1630937424610,2037
1630937424614,2037
1630937424618,2037
1630937424622,2038
1630937424626,2037
1630937424630,2037
1630937424634,2036
1630937424638,2036
1630937424642,2036
1630937424646,2036
1630937424650,2036
1630937424654,2035
1630937424658,2034
1630937424662,2033
1630937424666,2033
1630937424670,2033
1630937424674,2035
1630937424678,2036
1630937424682,2038
1630937424686,2039
1630937424690,2041
1630937424694,2042
1630937424698,2042
1630937424702,2041
1630937424706,2040
1630937424710,2039
1630937424714,2038
1630937424718,2036
1630937424722,2035
1630937424726,2034
1630937424730,2033
1630937424734,2033
1630937424738,2034
1630937424742,2037
1630937424746,2037
1630937424750,2032
1630937424754,2022
1630937424758,2008
1630937424762,1994
1630937424766,1986
1630937424770,1991
1630937424774,2013
1630937424778,2050
1630937424782,2099
1630937424786,2143
1630937424790,2171
1630937424794,2175
1630937424798,2156
1630937424802,2124
1630937424806,2093
1630937424810,2071
1630937424814,2058
1630937424818,2051
1630937424822,2047
1630937424826,2040
1630937424830,2034
1630937424834,2029
1630937424838,2028
1630937424842,2027
1630937424846,2027
1630937424850,2026
1630937424854,2026
1630937424858,2026
1630937424862,2026
1630937424866,2026
1630937424870,2026
1630937424874,2026
1630937424878,2025
1630937424882,2025
1630937424886,2025
1630937424890,2026
1630937424894,2026
1630937424898,2027
1630937424902,2028
1630937424906,2029
1630937424910,2029
1630937424914,2029
1630937424918,2030
1630937424922,2031
1630937424926,2031
1630937424930,2032
1630937424934,2033
1630937424938,2035
1630937424942,2036
1630937424946,2037
1630937424950,2038
1630937424954,2039
1630937424958,2040
1630937424962,2042
1630937424966,2044
1630937424970,2046
1630937424974,2048
1630937424978,2050
1630937424982,2052
1630937424986,2053
1630937424990,2054
1630937424994,2055
1630937424998,2056
1630937425002,2057
1630937425006,2059
1630937425010,2060
1630937425014,2061
1630937425018,2061
1630937425022,2061
1630937425026,2059
1630937425030,2056
1630937425034,2052
1630937425038,2048
1630937425042,2045
1630937425046,2041
1630937425050,2038
1630937425054,2035
1630937425058,2033
1630937425062,2031
1630937425066,2029
1630937425070,2028
1630937425074,2027
1630937425078,2026
1630937425082,2025
1630937425086,2025
1630937425090,2025
1630937425094,2026
1630937425098,2026
1630937425102,2027
1630937425106,2027
1630937425110,2028
1630937425114,2028
1630937425118,2028
1630937425122,2028
1630937425126,2027
1630937425130,2028
1630937425134,2028
1630937425138,2029
1630937425142,2030
1630937425146,2030
1630937425150,2030
1630937425154,2030
1630937425158,2030
1630937425162,2030
1630937425166,2030
1630937425170,2030
1630937425174,2030
1630937425178,2031
1630937425182,2032
1630937425186,2032
1630937425190,2032
1630937425194,2032
1630937425198,2032
1630937425202,2033
1630937425206,2034
1630937425210,2035
1630937425214,2037
1630937425218,2037
1630937425222,2038
1630937425226,2038
1630937425230,2038
1630937425234,2038
1630937425238,2038
1630937425242,2038
1630937425246,2038
1630937425250,2039
1630937425254,2040
1630937425258,2041
1630937425262,2042
1630937425266,2042
1630937425270,2042
1630937425274,2042
1630937425278,2042
1630937425282,2041
1630937425286,2041
1630937425290,2042
1630937425294,2043
1630937425298,2044
1630937425302,2045
1630937425306,2045
1630937425310,2046
1630937425314,2045
1630937425318,2045
1630937425322,2045
1630937425326,2045
1630937425330,2046
1630937425334,2046
1630937425338,2047
1630937425342,2048
1630937425346,2048
1630937425350,2048
1630937425354,2048
1630937425358,2048
1630937425362,2048
1630937425366,2048
1630937425370,2049
1630937425374,2050
1630937425378,2051
1630937425382,2052
1630937425386,2052
1630937425390,2052
1630937425394,2052
1630937425398,2052
1630937425402,2052
1630937425406,2053
1630937425410,2053
1630937425414,2054
1630937425418,2055
1630937425422,2055
1630937425426,2056
1630937425430,2055
1630937425434,2056
1630937425438,2055
1630937425442,2055
1630937425446,2055
1630937425450,2054
1630937425454,2054
1630937425458,2053
1630937425462,2054
1630937425466,2055
1630937425470,2057
1630937425474,2058
1630937425478,2060
1630937425482,2062
1630937425486,2063
1630937425490,2064
1630937425494,2065
1630937425498,2065
1630937425502,2065
1630937425506,2065
1630937425510,2064
1630937425514,2064
1630937425518,2063
1630937425522,2062
1630937425526,2061
1630937425530,2061
1630937425534,2062
1630937425538,2064
1630937425542,2066
1630937425546,2067
1630937425550,2062
1630937425554,2051
1630937425558,2036
1630937425562,2021
1630937425566,2014
1630937425570,2021
1630937425574,2046
1630937425578,2086
1630937425582,2136
1630937425586,2182
1630937425590,2211
1630937425594,2218
1630937425598,2202
1630937425602,2174
1630937425606,2144
1630937425610,2119
1630937425614,2102
1630937425618,2090
1630937425622,2080
1630937425626,2072
1630937425630,2065
1630937425634,2062
1630937425638,2060
1630937425642,2060
1630937425646,2059
1630937425650,2059
1630937425654,2059
1630937425658,2059
1630937425662,2060
1630937425666,2060
1630937425670,2060
1630937425674,2060
1630937425678,2061
1630937425682,2061
1630937425686,2062
1630937425690,2063
1630937425694,2064
1630937425698,2064
1630937425702,2065
1630937425706,2065
1630937425710,2065
1630937425714,2066
1630937425718,2067
1630937425722,2069
1630937425726,2069
1630937425730,2070
1630937425734,2071
1630937425738,2071
1630937425742,2073
1630937425746,2074
1630937425750,2074
1630937425754,2075
1630937425758,2076
1630937425762,2078
1630937425766,2079
1630937425770,2082
1630937425774,2084
1630937425778,2086
1630937425782,2089
1630937425786,2091
1630937425790,2092
1630937425794,2093
1630937425798,2093
1630937425802,2093
1630937425806,2094
1630937425810,2096
1630937425814,2097
1630937425818,2098
1630937425822,2097
1630937425826,2096
1630937425830,2092
1630937425834,2089
1630937425838,2085
1630937425842,2082
1630937425846,2079
1630937425850,2076
1630937425854,2074
1630937425858,2072
1630937425862,2071
1630937425866,2069
1630937425870,2068
1630937425874,2066
1630937425878,2065
1630937425882,2064
1630937425886,2064
1630937425890,2064
1630937425894,2064
1630937425898,2065
1630937425902,2066
1630937425906,2065
1630937425910,2065
1630937425914,2064
1630937425918,2064
1630937425922,2064
1630937425926,2064
1630937425930,2064
1630937425934,2065
1630937425938,2065
1630937425942,2066
1630937425946,2066
1630937425950,2065
1630937425954,2065
1630937425958,2064
1630937425962,2063
1630937425966,2063
1630937425970,2063
1630937425974,2065
1630937425978,2066
1630937425982,2067
1630937425986,2068
1630937425990,2068
1630937425994,2068
1630937425998,2067
1630937426002,2066
1630937426006,2066
1630937426010,2067
1630937426014,2068
1630937426018,2069
1630937426022,2069
1630937426026,2069
1630937426030,2067
1630937426034,2066
1630937426038,2065
1630937426042,2065
1630937426046,2067
1630937426050,2067
1630937426054,2068
1630937426058,2069
1630937426062,2069
1630937426066,2069
1630937426070,2069
1630937426074,2069
1630937426078,2068
1630937426082,2068
1630937426086,2067
1630937426090,2067
1630937426094,2067
1630937426098,2067
1630937426102,2068
1630937426106,2068
1630937426110,2068
1630937426114,2067
1630937426118,2067
1630937426122,2067
1630937426126,2067
1630937426130,2067
1630937426134,2068
1630937426138,2068
1630937426142,2069
1630937426146,2069
1630937426150,2069
1630937426154,2069
1630937426158,2068
1630937426162,2068
1630937426166,2068
1630937426170,2068
1630937426174,2068
1630937426178,2068
1630937426182,2069
1630937426186,2069
1630937426190,2068
1630937426194,2069
1630937426198,2069
1630937426202,2069
1630937426206,2069
1630937426210,2068
1630937426214,2069
1630937426218,2069
1630937426222,2070
1630937426226,2071
1630937426230,2071
1630937426234,2071
1630937426238,2070
1630937426242,2070
1630937426246,2070
1630937426250,2070
1630937426254,2071
1630937426258,2070
1630937426262,2070
1630937426266,2069
1630937426270,2069
1630937426274,2070
1630937426278,2071
1630937426282,2071
1630937426286,2072
1630937426290,2072
1630937426294,2073
1630937426298,2074
1630937426302,2076
1630937426306,2077
1630937426310,2078
1630937426314,2076
1630937426318,2074
1630937426322,2072
1630937426326,2070
1630937426330,2070
1630937426334,2070
1630937426338,2070
1630937426342,2070
1630937426346,2071
1630937426350,2072
1630937426354,2073
1630937426358,2071
1630937426362,2066
1630937426366,2055
1630937426370,2041
1630937426374,2028
1630937426378,2025
1630937426382,2035
1630937426386,2062
1630937426390,2104
1630937426394,2151
1630937426398,2190
1630937426402,2212
1630937426406,2212
1630937426410,2193
1630937426414,2165
1630937426418,2137
1630937426422,2115
1630937426426,2099
1630937426430,2088
1630937426434,2079
1630937426438,2072
1630937426442,2067
1630937426446,2065
1630937426450,2063
1630937426454,2062
1630937426458,2061
1630937426462,2061
1630937426466,2061
1630937426470,2061
1630937426474,2060
1630937426478,2059
1630937426482,2059
1630937426486,2059
1630937426490,2060
1630937426494,2062
1630937426498,2063
1630937426502,2063
1630937426506,2063
1630937426510,2062
1630937426514,2062
1630937426518,2063
1630937426522,2064
1630937426526,2065
1630937426530,2065
1630937426534,2065
1630937426538,2066
1630937426542,2066
1630937426546,2067
1630937426550,2068
1630937426554,2069
1630937426558,2069
1630937426562,2069
1630937426566,2070
1630937426570,2071
1630937426574,2072
1630937426578,2074
1630937426582,2076
1630937426586,2077
1630937426590,2078
1630937426594,2079
1630937426598,2080
1630937426602,2081
1630937426606,2082
1630937426610,2083
1630937426614,2084
1630937426618,2086
1630937426622,2087
1630937426626,2087
1630937426630,2087
1630937426634,2085
1630937426638,2083
1630937426642,2080
1630937426646,2077
1630937426650,2074
1630937426654,2070
1630937426658,2066
1630937426662,2063
1630937426666,2060
1630937426670,2058
1630937426674,2057
1630937426678,2055
1630937426682,2054
1630937426686,2053
1630937426690,2051
1630937426694,2051
1630937426698,2051
1630937426702,2051
1630937426706,2052
1630937426710,2052
1630937426714,2052
1630937426718,2051
1630937426722,2051
1630937426726,2051
1630937426730,2051
1630937426734,2051
1630937426738,2051
1630937426742,2052
1630937426746,2052
1630937426750,2052
1630937426754,2052
1630937426758,2052
1630937426762,2051
1630937426766,2051
1630937426770,2051
1630937426774,2052
1630937426778,2052
1630937426782,2053
1630937426786,2053
1630937426790,2052
1630937426794,2052
1630937426798,2052
1630937426802,2052
1630937426806,2052
1630937426810,2052
1630937426814,2052
1630937426818,2052
1630937426822,2052
1630937426826,2052
1630937426830,2052
1630937426834,2052
1630937426838,2052
1630937426842,2052
1630937426846,2053
1630937426850,2053
1630937426854,2054
1630937426858,2054
1630937426862,2054
1630937426866,2054
1630937426870,2054
1630937426874,2054
1630937426878,2053
1630937426882,2053
1630937426886,2053
1630937426890,2054
1630937426894,2054
1630937426898,2054
1630937426902,2055
1630937426906,2055
1630937426910,2055
1630937426914,2054
1630937426918,2054
1630937426922,2053
1630937426926,2053
1630937426930,2053
1630937426934,2054
1630937426938,2054
1630937426942,2055
1630937426946,2055
1630937426950,2054
1630937426954,2054
1630937426958,2053
1630937426962,2053
1630937426966,2054
1630937426970,2054
1630937426974,2055
1630937426978,2055
1630937426982,2056
1630937426986,2056
1630937426990,2055
1630937426994,2055
1630937426998,2055
1630937427002,2055
1630937427006,2055
1630937427010,2055
1630937427014,2055
1630937427018,2055
1630937427022,2056
1630937427026,2056
1630937427030,2056
1630937427034,2056
1630937427038,2056
1630937427042,2056
1630937427046,2055
1630937427050,2055
1630937427054,2056
1630937427058,2056
1630937427062,2057
1630937427066,2057
1630937427070,2057
1630937427074,2057
1630937427078,2057
1630937427082,2057
1630937427086,2056
1630937427090,2055
1630937427094,2055
1630937427098,2054
1630937427102,2054
1630937427106,2055
1630937427110,2056
1630937427114,2057
1630937427118,2058
1630937427122,2059
1630937427126,2060
1630937427130,2061
1630937427134,2062
1630937427138,2063
1630937427142,2063
1630937427146,2063
1630937427150,2062
1630937427154,2060
1630937427158,2058
1630937427162,2057
1630937427166,2056
1630937427170,2055
1630937427174,2055
1630937427178,2056
1630937427182,2058
1630937427186,2061
1630937427190,2060
1630937427194,2055
1630937427198,2045
1630937427202,2031
1630937427206,2019
1630937427210,2014
1630937427214,2023
1630937427218,2047
1630937427222,2084
1630937427226,2129
1630937427230,2169
1630937427234,2193
1630937427238,2198
1630937427242,2184
1630937427246,2159
1630937427250,2132
1630937427254,2110
1630937427258,2093
1630937427262,2081
1630937427266,2071
1630937427270,2064
1630937427274,2057
1630937427278,2054
1630937427282,2053
1630937427286,2053
1630937427290,2052
1630937427294,2052
1630937427298,2052
1630937427302,2052
1630937427306,2052
1630937427310,2052
1630937427314,2052
1630937427318,2052
1630937427322,2052
1630937427326,2052
1630937427330,2053
1630937427334,2053
1630937427338,2054
1630937427342,2054
1630937427346,2055
1630937427350,2055
1630937427354,2055
1630937427358,2056
1630937427362,2057
1630937427366,2057
1630937427370,2058
1630937427374,2058
1630937427378,2059
1630937427382,2061
1630937427386,2063
1630937427390,2064
1630937427394,2065
1630937427398,2065
1630937427402,2065
1630937427406,2065
1630937427410,2067
1630937427414,2069
1630937427418,2071
1630937427422,2074
1630937427426,2076
1630937427430,2077
1630937427434,2079
1630937427438,2080
1630937427442,2082
1630937427446,2083
1630937427450,2083
1630937427454,2084
1630937427458,2084
1630937427462,2084
1630937427466,2084
1630937427470,2083
1630937427474,2080
1630937427478,2076
1630937427482,2072
1630937427486,2067
1630937427490,2064
1630937427494,2061
1630937427498,2059
1630937427502,2056
1630937427506,2055
1630937427510,2053
1630937427514,2051
1630937427518,2050
1630937427522,2049
1630937427526,2049
1630937427530,2048
1630937427534,2048
1630937427538,2048
1630937427542,2048
1630937427546,2048
1630937427550,2048
1630937427554,2048
1630937427558,2047
1630937427562,2047
1630937427566,2046
1630937427570,2046
1630937427574,2047
1630937427578,2048
1630937427582,2048
1630937427586,2048
1630937427590,2049
1630937427594,2048
1630937427598,2048
1630937427602,2048
1630937427606,2048
1630937427610,2048
1630937427614,2048
1630937427618,2048
1630937427622,2049
1630937427626,2049
1630937427630,2049
1630937427634,2049
1630937427638,2048
1630937427642,2048
1630937427646,2049
1630937427650,2049
1630937427654,2050
1630937427658,2049
1630937427662,2049
1630937427666,2049
1630937427670,2049
1630937427674,2049
1630937427678,2050
1630937427682,2051
1630937427686,2051
1630937427690,2051
1630937427694,2052
1630937427698,2052
1630937427702,2052
1630937427706,2053
1630937427710,2053
1630937427714,2053
1630937427718,2052
1630937427722,2052
1630937427726,2051
1630937427730,2051
1630937427734,2051
1630937427738,2052
1630937427742,2053
1630937427746,2052
1630937427750,2052
1630937427754,2051
1630937427758,2051
1630937427762,2051
1630937427766,2051
1630937427770,2052
1630937427774,2052
1630937427778,2053
1630937427782,2053
1630937427786,2053
1630937427790,2052
1630937427794,2052
1630937427798,2052
1630937427802,2052
1630937427806,2053
1630937427810,2054
1630937427814,2055
1630937427818,2055
1630937427822,2055
1630937427826,2055
1630937427830,2055
1630937427834,2055
1630937427838,2054
1630937427842,2054
1630937427846,2055
1630937427850,2055
1630937427854,2055
1630937427858,2055
1630937427862,2055
1630937427866,2055
1630937427870,2056
1630937427874,2056
1630937427878,2056
1630937427882,2056
1630937427886,2055
1630937427890,2054
1630937427894,2054
1630937427898,2054
1630937427902,2054
1630937427906,2054
1630937427910,2053
1630937427914,2054
1630937427918,2054
1630937427922,2055
1630937427926,2056
1630937427930,2058
1630937427934,2060
1630937427938,2061
1630937427942,2063
1630937427946,2063
1630937427950,2063
1630937427954,2062
1630937427958,2061
1630937427962,2060
1630937427966,2058
1630937427970,2057
1630937427974,2057
1630937427978,2056
1630937427982,2056
1630937427986,2056
1630937427990,2057
1630937427994,2058
1630937427998,2058
1630937428002,2052
1630937428006,2043
1630937428010,2029
1630937428014,2018
1630937428018,2014
1630937428022,2024
1630937428026,2049
1630937428030,2089
1630937428034,2135
1630937428038,2172
1630937428042,2190
1630937428046,2183
1630937428050,2158
1630937428054,2125
1630937428058,2097
1630937428062,2081
1630937428066,2073
1630937428070,2069
1630937428074,2065
1630937428078,2059
1630937428082,2055
1630937428086,2053
1630937428090,2054
1630937428094,2054
1630937428098,2054
1630937428102,2053
1630937428106,2053
1630937428110,2053
1630937428114,2053
1630937428118,2052
1630937428122,2052
1630937428126,2052
1630937428130,2052
1630937428134,2053
1630937428138,2053
1630937428142,2054
1630937428146,2054
1630937428150,2055
1630937428154,2055
1630937428158,2055
1630937428162,2056
1630937428166,2056
1630937428170,2056
1630937428174,2058
1630937428178,2059
1630937428182,2061
1630937428186,2062
1630937428190,2063
1630937428194,2063
1630937428198,2064
1630937428202,2065
1630937428206,2067
1630937428210,2069
1630937428214,2071
1630937428218,2072
1630937428222,2075
1630937428226,2077
1630937428230,2079
1630937428234,2080
1630937428238,2081
1630937428242,2083
1630937428246,2084
1630937428250,2086
1630937428254,2088
1630937428258,2089
1630937428262,2090
1630937428266,2090
1630937428270,2089
1630937428274,2087
1630937428278,2085
1630937428282,2081
1630937428286,2077
1630937428290,2074
1630937428294,2070
1630937428298,2066
1630937428302,2063
1630937428306,2060
1630937428310,2057
1630937428314,2054
1630937428318,2052
1630937428322,2051
1630937428326,2050
1630937428330,2049
1630937428334,2049
1630937428338,2049
1630937428342,2049
1630937428346,2049
1630937428350,2048
1630937428354,2048
1630937428358,2048
1630937428362,2048
1630937428366,2048
1630937428370,2048
1630937428374,2048
1630937428378,2048
1630937428382,2048
1630937428386,2049
1630937428390,2049
1630937428394,2049
1630937428398,2048
1630937428402,2048
1630937428406,2048
1630937428410,2048
1630937428414,2049
1630937428418,2049
1630937428422,2050
1630937428426,2050
1630937428430,2050
1630937428434,2050
1630937428438,2050
1630937428442,2050
1630937428446,2050
1630937428450,2051
1630937428454,2051
1630937428458,2052
1630937428462,2052
1630937428466,2052
1630937428470,2052
1630937428474,2052
1630937428478,2052
1630937428482,2051
1630937428486,2051
1630937428490,2052
1630937428494,2053
1630937428498,2054
1630937428502,2055
1630937428506,2055
1630937428510,2055
1630937428514,2054
1630937428518,2054
1630937428522,2053
1630937428526,2054
1630937428530,2054
1630937428534,2055
1630937428538,2055
1630937428542,2055
1630937428546,2055
1630937428550,2055
1630937428554,2054
1630937428558,2054
1630937428562,2054
1630937428566,2054
1630937428570,2054
1630937428574,2054
1630937428578,2054
1630937428582,2055
1630937428586,2055
1630937428590,2055
1630937428594,2055
1630937428598,2055
1630937428602,2055
1630937428606,2055
1630937428610,2055
1630937428614,2056
1630937428618,2056
1630937428622,2056
1630937428626,2056
1630937428630,2056
1630937428634,2056
1630937428638,2055
1630937428642,2055
1630937428646,2055
1630937428650,2056
1630937428654,2056
1630937428658,2057
1630937428662,2057
1630937428666,2057
1630937428670,2056
1630937428674,2056
1630937428678,2056
1630937428682,2056
1630937428686,2056
1630937428690,2056
1630937428694,2056
1630937428698,2056
1630937428702,2056
1630937428706,2055
1630937428710,2054
1630937428714,2053
1630937428718,2054
1630937428722,2056
1630937428726,2058
1630937428730,2060
1630937428734,2062
1630937428738,2063
1630937428742,2064
1630937428746,2065
1630937428750,2066
1630937428754,2065
1630937428758,2064
1630937428762,2062
1630937428766,2061
1630937428770,2060
1630937428774,2060
1630937428778,2060
1630937428782,2060
1630937428786,2060
1630937428790,2061
1630937428794,2062
1630937428798,2062
1630937428802,2056
1630937428806,2047
1630937428810,2032
1630937428814,2019
1630937428818,2013
1630937428822,2020
1630937428826,2043
1630937428830,2081
1630937428834,2127
1630937428838,2171
1630937428842,2200
1630937428846,2209
1630937428850,2196
1630937428854,2171
1630937428858,2142
1630937428862,2117
1630937428866,2098
1630937428870,2084
1630937428874,2073
1630937428878,2064
1630937428882,2057
1630937428886,2054
1630937428890,2053
1630937428894,2053
1630937428898,2053
1630937428902,2052
1630937428906,2052
1630937428910,2052
1630937428914,2052
1630937428918,2051
1630937428922,2051
1630937428926,2051
1630937428930,2051
1630937428934,2052
1630937428938,2052
1630937428942,2053
1630937428946,2053
1630937428950,2053
1630937428954,2053
1630937428958,2054
1630937428962,2054
1630937428966,2055
1630937428970,2055
1630937428974,2057
1630937428978,2058
1630937428982,2059
1630937428986,2060
1630937428990,2060
1630937428994,2061
1630937428998,2061
1630937429002,2062
1630937429006,2064
1630937429010,2066
1630937429014,2068
1630937429018,2070
1630937429022,2072
1630937429026,2073
1630937429030,2075
1630937429034,2076
1630937429038,2077
1630937429042,2079
1630937429046,2080
1630937429050,2082
1630937429054,2084
1630937429058,2085
1630937429062,2086
1630937429066,2086
1630937429070,2085
1630937429074,2084
1630937429078,2082
1630937429082,2080
1630937429086,2077
1630937429090,2073
1630937429094,2070
1630937429098,2067
1630937429102,2065
1630937429106,2062
1630937429110,2059
1630937429114,2057
1630937429118,2055
1630937429122,2053
1630937429126,2052
1630937429130,2051
1630937429134,2051
1630937429138,2051
1630937429142,2051
1630937429146,2051
1630937429150,2051
1630937429154,2051
1630937429158,2050
1630937429162,2050
1630937429166,2050
1630937429170,2050
1630937429174,2051
1630937429178,2052
1630937429182,2052
1630937429186,2053
1630937429190,2053
1630937429194,2052
1630937429198,2052
1630937429202,2052
1630937429206,2052
1630937429210,2053
1630937429214,2053
1630937429218,2053
1630937429222,2054
1630937429226,2054
1630937429230,2054
1630937429234,2054
1630937429238,2054
1630937429242,2054
1630937429246,2053
1630937429250,2053
1630937429254,2054
1630937429258,2054
1630937429262,2055
1630937429266,2055
1630937429270,2055
1630937429274,2055
1630937429278,2054
1630937429282,2054
1630937429286,2054
1630937429290,2055
1630937429294,2055
1630937429298,2056
1630937429302,2056
1630937429306,2056
1630937429310,2056
1630937429314,2055
1630937429318,2054
1630937429322,2054
1630937429326,2054
1630937429330,2054
1630937429334,2055
1630937429338,2055
1630937429342,2056
1630937429346,2056
1630937429350,2055
1630937429354,2055
1630937429358,2054
1630937429362,2054
1630937429366,2055
1630937429370,2056
1630937429374,2056
1630937429378,2056
1630937429382,2056
1630937429386,2056
1630937429390,2056
1630937429394,2056
1630937429398,2055
1630937429402,2055
1630937429406,2055
1630937429410,2055
1630937429414,2055
1630937429418,2056
1630937429422,2056
1630937429426,2057
1630937429430,2057
1630937429434,2056
1630937429438,2056
1630937429442,2055
1630937429446,2055
1630937429450,2056
1630937429454,2056
1630937429458,2057
1630937429462,2057
1630937429466,2057
1630937429470,2057
1630937429474,2056
1630937429478,2055
1630937429482,2055
1630937429486,2055
1630937429490,2055
1630937429494,2056
1630937429498,2056
1630937429502,2057
1630937429506,2057
1630937429510,2057
1630937429514,2056
1630937429518,2056
1630937429522,2056
1630937429526,2056
1630937429530,2056
1630937429534,2056
1630937429538,2055
1630937429542,2055
1630937429546,2054
1630937429550,2054
1630937429554,2054
1630937429558,2055
1630937429562,2057
1630937429566,2058
1630937429570,2060
1630937429574,2061
1630937429578,2062
1630937429582,2062
1630937429586,2062
1630937429590,2061
1630937429594,2060
1630937429598,2059
1630937429602,2058
1630937429606,2057
1630937429610,2056
1630937429614,2056
1630937429618,2055
1630937429622,2056
1630937429626,2057
1630937429630,2059
1630937429634,2058
1630937429638,2053
1630937429642,2044
1630937429646,2030
1630937429650,2017
1630937429654,2011
1630937429658,2017
1630937429662,2038
1630937429666,2074
1630937429670,2119
1630937429674,2161
1630937429678,2189
1630937429682,2198
1630937429686,2188
1630937429690,2164
1630937429694,2137
1630937429698,2112
1630937429702,2093
1630937429706,2079
1630937429710,2068
1630937429714,2059
1630937429718,2052
1630937429722,2048
1630937429726,2048
1630937429730,2048
1630937429734,2047
1630937429738,2047
1630937429742,2047
1630937429746,2047
1630937429750,2046
1630937429754,2046
1630937429758,2045
1630937429762,2045
1630937429766,2045
1630937429770,2045
1630937429774,2046
1630937429778,2047
1630937429782,2048
1630937429786,2048
1630937429790,2048
1630937429794,2048
1630937429798,2048
1630937429802,2048
1630937429806,2048
1630937429810,2049
1630937429814,2050
1630937429818,2051
1630937429822,2053
1630937429826,2053
1630937429830,2054
1630937429834,2054
1630937429838,2054
1630937429842,2055
1630937429846,2056
1630937429850,2058
1630937429854,2059
1630937429858,2061
1630937429862,2063
1630937429866,2065
1630937429870,2067
1630937429874,2068
1630937429878,2069
1630937429882,2071
1630937429886,2072
1630937429890,2072
1630937429894,2073
1630937429898,2074
1630937429902,2075
1630937429906,2075
1630937429910,2074
1630937429914,2072
1630937429918,2069
1630937429922,2066
1630937429926,2063
1630937429930,2060
1630937429934,2057
1630937429938,2054
1630937429942,2051
1630937429946,2049
1630937429950,2048
1630937429954,2046
1630937429958,2044
1630937429962,2042
1630937429966,2041
1630937429970,2041
1630937429974,2041
1630937429978,2041
1630937429982,2041
1630937429986,2040
1630937429990,2040
1630937429994,2040
1630937429998,2039
1630937430002,2039
1630937430006,2040
1630937430010,2040
1630937430014,2040
1630937430018,2041
1630937430022,2041
1630937430026,2042
1630937430030,2042
1630937430034,2042
1630937430038,2041
1630937430042,2040
1630937430046,2039
1630937430050,2039
1630937430054,2040
1630937430058,2040
1630937430062,2041
1630937430066,2041
1630937430070,2040
1630937430074,2040
1630937430078,2039
1630937430082,2039
1630937430086,2040
1630937430090,2040
1630937430094,2041
1630937430098,2041
1630937430102,2042
1630937430106,2042
1630937430110,2041
1630937430114,2041
1630937430118,2040
1630937430122,2040
1630937430126,2040
1630937430130,2041
1630937430134,2042
1630937430138,2042
1630937430142,2043
1630937430146,2043
1630937430150,2042
1630937430154,2041
1630937430158,2041
1630937430162,2040
1630937430166,2040
1630937430170,2041
1630937430174,2041
1630937430178,2041
1630937430182,2041
1630937430186,2041
1630937430190,2041
1630937430194,2041
1630937430198,2041
1630937430202,2041
1630937430206,2041
1630937430210,2041
1630937430214,2041
1630937430218,2041
1630937430222,2042
1630937430226,2042
1630937430230,2042
1630937430234,2041
1630937430238,2040
1630937430242,2040
1630937430246,2039
1630937430250,2040
1630937430254,2041
1630937430258,2042
1630937430262,2043
1630937430266,2043
1630937430270,2043
1630937430274,2042
1630937430278,2042
1630937430282,2041
1630937430286,2041
1630937430290,2041
1630937430294,2041
1630937430298,2041
1630937430302,2042
1630937430306,2042
1630937430310,2042
1630937430314,2041
1630937430318,2040
1630937430322,2039
1630937430326,2039
1630937430330,2039
1630937430334,2040
1630937430338,2040
1630937430342,2040
1630937430346,2040
1630937430350,2040
1630937430354,2040
1630937430358,2039
1630937430362,2038
1630937430366,2037
1630937430370,2037
1630937430374,2038
1630937430378,2039
1630937430382,2040
1630937430386,2042
1630937430390,2042
1630937430394,2043
1630937430398,2044
1630937430402,2044
1630937430406,2045
1630937430410,2046
1630937430414,2046
1630937430418,2046
1630937430422,2045
1630937430426,2044
1630937430430,2043
1630937430434,2042
1630937430438,2041
1630937430442,2040
1630937430446,2040
1630937430450,2042
1630937430454,2044
1630937430458,2044
1630937430462,2041
1630937430466,2033
1630937430470,2020
1630937430474,2007
1630937430478,1999
1630937430482,2002
1630937430486,2021
1630937430490,2055
1630937430494,2099
1630937430498,2143
1630937430502,2171
1630937430506,2178
1630937430510,2162
1630937430514,2132
1630937430518,2101
1630937430522,2077
1630937430526,2064
1630937430530,2057
1630937430534,2052
1630937430538,2047
1630937430542,2041
1630937430546,2038
1630937430550,2038
1630937430554,2039
1630937430558,2039
1630937430562,2038
1630937430566,2038
1630937430570,2038
1630937430574,2038
1630937430578,2038
1630937430582,2039
1630937430586,2039
1630937430590,2039
1630937430594,2039
1630937430598,2038
1630937430602,2038
1630937430606,2038
1630937430610,2039
1630937430614,2040
1630937430618,2041
1630937430622,2042
1630937430626,2043
1630937430630,2043
1630937430634,2043
1630937430638,2043
1630937430642,2044
1630937430646,2046
1630937430650,2047
1630937430654,2049
1630937430658,2050
1630937430662,2052
1630937430666,2053
1630937430670,2053
1630937430674,2054
1630937430678,2055
1630937430682,2056
1630937430686,2058
1630937430690,2060
1630937430694,2063
1630937430698,2066
1630937430702,2068
1630937430706,2070
1630937430710,2070
1630937430714,2071
1630937430718,2070
1630937430722,2071
1630937430726,2071
1630937430730,2071
1630937430734,2071
1630937430738,2070
1630937430742,2068
1630937430746,2064
1630937430750,2061
1630937430754,2056
1630937430758,2052
1630937430762,2048
1630937430766,2045
1630937430770,2043
1630937430774,2041
1630937430778,2040
1630937430782,2039
1630937430786,2038
1630937430790,2037
1630937430794,2036
1630937430798,2035
1630937430802,2035
1630937430806,2035
1630937430810,2035
1630937430814,2036
1630937430818,2036
1630937430822,2037
1630937430826,2037
1630937430830,2037
1630937430834,2036
1630937430838,2035
1630937430842,2035
1630937430846,2035
1630937430850,2035
1630937430854,2036
1630937430858,2036
1630937430862,2037
1630937430866,2037
1630937430870,2037
1630937430874,2037
1630937430878,2038
1630937430882,2038
1630937430886,2038
1630937430890,2039
1630937430894,2040
1630937430898,2040
1630937430902,2041
1630937430906,2041
1630937430910,2041
1630937430914,2041
1630937430918,2040
1630937430922,2041
1630937430926,2041
1630937430930,2042
1630937430934,2043
1630937430938,2043
1630937430942,2043
1630937430946,2043
1630937430950,2043
1630937430954,2043
1630937430958,2043
1630937430962,2043
1630937430966,2043
1630937430970,2044
1630937430974,2044
1630937430978,2044
1630937430982,2045
1630937430986,2045
1630937430990,2044
1630937430994,2044
1630937430998,2043
1630937431002,2043
1630937431006,2043
1630937431010,2044
1630937431014,2044
1630937431018,2045
1630937431022,2045
1630937431026,2045
1630937431030,2045
1630937431034,2045
1630937431038,2045
1630937431042,2045
1630937431046,2044
1630937431050,2045
1630937431054,2046
1630937431058,2046
1630937431062,2047
1630937431066,2047
1630937431070,2047
1630937431074,2047
1630937431078,2046
1630937431082,2046
1630937431086,2046
1630937431090,2047
1630937431094,2048
1630937431098,2048
1630937431102,2048
1630937431106,2048
1630937431110,2048
1630937431114,2048
1630937431118,2048
1630937431122,2048
1630937431126,2048
1630937431130,2048
1630937431134,2049
1630937431138,2050
1630937431142,2050
1630937431146,2050
1630937431150,2049
1630937431154,2048
1630937431158,2047
1630937431162,2047
1630937431166,2047
1630937431170,2048
1630937431174,2049
1630937431178,2051
1630937431182,2053
1630937431186,2055
1630937431190,2056
1630937431194,2056
1630937431198,2056
1630937431202,2056
1630937431206,2055
1630937431210,2054
1630937431214,2054
1630937431218,2053
1630937431222,2053
1630937431226,2053
1630937431230,2052
1630937431234,2051
1630937431238,2051
1630937431242,2053
1630937431246,2054
1630937431250,2053
1630937431254,2047
1630937431258,2034
1630937431262,2019
1630937431266,2007
1630937431270,2006
1630937431274,2021
1630937431278,2051
1630937431282,2096
1630937431286,2145
1630937431290,2183
1630937431294,2202
1630937431298,2198
1630937431302,2176
1630937431306,2145
1630937431310,2117
1630937431314,2097
1630937431318,2083
1630937431322,2072
1630937431326,2063
1630937431330,2056
1630937431334,2051
1630937431338,2049
1630937431342,2049
1630937431346,2049
1630937431350,2048
1630937431354,2048
1630937431358,2047
1630937431362,2047
1630937431366,2047
1630937431370,2048
1630937431374,2048
1630937431378,2048
1630937431382,2049
1630937431386,2049
1630937431390,2050
1630937431394,2050
1630937431398,2050
1630937431402,2050
1630937431406,2050
1630937431410,2050
1630937431414,2051
1630937431418,2052
1630937431422,2054
1630937431426,2055
1630937431430,2056
1630937431434,2056
1630937431438,2056
1630937431442,2057
1630937431446,2058
1630937431450,2060
1630937431454,2061
1630937431458,2063
1630937431462,2065
1630937431466,2067
1630937431470,2068
1630937431474,2069
1630937431478,2071
1630937431482,2072
1630937431486,2074
1630937431490,2076
1630937431494,2078
1630937431498,2080
1630937431502,2082
1630937431506,2083
1630937431510,2084
1630937431514,2085
1630937431518,2085
1630937431522,2084
1630937431526,2082
1630937431530,2080
1630937431534,2078
1630937431538,2075
1630937431542,2072
1630937431546,2069
1630937431550,2065
1630937431554,2062
1630937431558,2059
1630937431562,2057
1630937431566,2055
1630937431570,2053
1630937431574,2053
1630937431578,2052
1630937431582,2052
1630937431586,2052
1630937431590,2052
1630937431594,2051
1630937431598,2050
1630937431602,2050
1630937431606,2050
1630937431610,2050
1630937431614,2051
1630937431618,2051
1630937431622,2052
1630937431626,2052
1630937431630,2052
1630937431634,2051
1630937431638,2051
1630937431642,2051
1630937431646,2051
1630937431650,2051
1630937431654,2052
1630937431658,2052
1630937431662,2052
1630937431666,2052
1630937431670,2052
1630937431674,2052
1630937431678,2051
1630937431682,2051
1630937431686,2051
1630937431690,2051
1630937431694,2051
1630937431698,2052
1630937431702,2052
1630937431706,2053
1630937431710,2053
1630937431714,2053
1630937431718,2052
1630937431722,2052
1630937431726,2052
1630937431730,2052
1630937431734,2053
1630937431738,2053
1630937431742,2053
1630937431746,2054
1630937431750,2053
1630937431754,2053
1630937431758,2053
1630937431762,2053
1630937431766,2053
1630937431770,2053
1630937431774,2054
1630937431778,2054
1630937431782,2055
1630937431786,2055
1630937431790,2055
1630937431794,2054
1630937431798,2054
1630937431802,2054
1630937431806,2054
1630937431810,2054
1630937431814,2054
1630937431818,2055
1630937431822,2055
1630937431826,2056
1630937431830,2056
1630937431834,2056
1630937431838,2055
1630937431842,2055
1630937431846,2055
1630937431850,2055
1630937431854,2055
1630937431858,2056
1630937431862,2057
1630937431866,2057
1630937431870,2057
1630937431874,2057
1630937431878,2056
1630937431882,2056
1630937431886,2056
1630937431890,2056
1630937431894,2056
1630937431898,2056
1630937431902,2057
1630937431906,2057
1630937431910,2057
1630937431914,2057
1630937431918,2057
1630937431922,2057
1630937431926,2057
1630937431930,2057
1630937431934,2057
1630937431938,2058
1630937431942,2058
1630937431946,2058
1630937431950,2058
1630937431954,2058
1630937431958,2057
1630937431962,2057
1630937431966,2057
1630937431970,2057
1630937431974,2057
1630937431978,2058
1630937431982,2058
1630937431986,2059
1630937431990,2059
1630937431994,2059
1630937431998,2058
1630937432002,2058
1630937432006,2057
1630937432010,2056
1630937432014,2055
1630937432018,2055
1630937432022,2056
1630937432026,2056
1630937432030,2057
1630937432034,2059
1630937432038,2060
1630937432042,2061
1630937432046,2062
1630937432050,2063
1630937432054,2064
1630937432058,2065
1630937432062,2065
1630937432066,2064
1630937432070,2063
1630937432074,2062
1630937432078,2061
1630937432082,2060
1630937432086,2059
1630937432090,2059
1630937432094,2059
1630937432098,2061
1630937432102,2063
1630937432106,2064
1630937432110,2060
1630937432114,2050
1630937432118,2036
1630937432122,2021
1630937432126,2013
1630937432130,2017
1630937432134,2038
1630937432138,2073
1630937432142,2120
1630937432146,2165
1630937432150,2197
1630937432154,2209
1630937432158,2199
1630937432162,2175
1630937432166,2146
1630937432170,2120
1630937432174,2102
1630937432178,2088
1630937432182,2077
1630937432186,2068
1630937432190,2061
1630937432194,2056
1630937432198,2055
1630937432202,2055
1630937432206,2054
1630937432210,2054
1630937432214,2054
1630937432218,2053
1630937432222,2054
1630937432226,2053
1630937432230,2053
1630937432234,2053
1630937432238,2053
1630937432242,2054
1630937432246,2054
1630937432250,2054
1630937432254,2055
1630937432258,2055
1630937432262,2056
1630937432266,2057
1630937432270,2057
1630937432274,2058
1630937432278,2058
1630937432282,2058
1630937432286,2059
1630937432290,2060
1630937432294,2061
1630937432298,2062
1630937432302,2063
1630937432306,2064
1630937432310,2066
1630937432314,2067
1630937432318,2068
1630937432322,2069
1630937432326,2070
1630937432330,2072
1630937432334,2074
1630937432338,2076
1630937432342,2078
1630937432346,2080
1630937432350,2081
1630937432354,2082
1630937432358,2084
1630937432362,2085
1630937432366,2086
1630937432370,2087
1630937432374,2088
1630937432378,2088
1630937432382,2088
1630937432386,2086
1630937432390,2084
1630937432394,2081
1630937432398,2077
1630937432402,2074
1630937432406,2070
1630937432410,2067
1630937432414,2065
1630937432418,2063
1630937432422,2061
1630937432426,2060
1630937432430,2058
1630937432434,2057
1630937432438,2055
1630937432442,2054
1630937432446,2054
1630937432450,2054
1630937432454,2055
1630937432458,2055
1630937432462,2056
1630937432466,2056
1630937432470,2055
1630937432474,2055
1630937432478,2054
1630937432482,2054
1630937432486,2055
1630937432490,2055
1630937432494,2056
1630937432498,2056
1630937432502,2057
1630937432506,2057
1630937432510,2057
1630937432514,2057
1630937432518,2057
1630937432522,2057
1630937432526,2056
1630937432530,2056
1630937432534,2057
1630937432538,2057
1630937432542,2057
1630937432546,2058
1630937432550,2057
1630937432554,2057
1630937432558,2057
1630937432562,2057
1630937432566,2057
1630937432570,2057
1630937432574,2058
1630937432578,2058
1630937432582,2058
1630937432586,2058
1630937432590,2058
1630937432594,2058
1630937432598,2058
1630937432602,2058
1630937432606,2058
1630937432610,2058
1630937432614,2059
1630937432618,2059
1630937432622,2060
1630937432626,2060
1630937432630,2060
1630937432634,2059
1630937432638,2059
1630937432642,2058
1630937432646,2058
1630937432650,2059
1630937432654,2059
1630937432658,2060
1630937432662,2060
1630937432666,2059
1630937432670,2059
1630937432674,2059
1630937432678,2059
1630937432682,2060
1630937432686,2059
1630937432690,2059
1630937432694,2060
1630937432698,2060
1630937432702,2060
1630937432706,2060
1630937432710,2060
1630937432714,2060
1630937432718,2060
1630937432722,2060
1630937432726,2060
1630937432730,2060
1630937432734,2061
1630937432738,2061
1630937432742,2062
1630937432746,2062
1630937432750,2061
1630937432754,2061
1630937432758,2060
1630937432762,2060
1630937432766,2060
1630937432770,2060
1630937432774,2061
1630937432778,2061
1630937432782,2061
1630937432786,2061
1630937432790,2061
1630937432794,2061
1630937432798,2061
1630937432802,2061
1630937432806,2061
1630937432810,2062
1630937432814,2062
1630937432818,2062
1630937432822,2063
1630937432826,2063
1630937432830,2063
1630937432834,2062
1630937432838,2062
1630937432842,2062
1630937432846,2062
1630937432850,2062
1630937432854,2062
1630937432858,2062
1630937432862,2062
1630937432866,2062
1630937432870,2062
1630937432874,2062
1630937432878,2061
1630937432882,2061
1630937432886,2061
1630937432890,2061
1630937432894,2061
1630937432898,2061
1630937432902,2062
1630937432906,2062
1630937432910,2061
1630937432914,2061
1630937432918,2060
1630937432922,2060
1630937432926,2060
1630937432930,2061
1630937432934,2061
1630937432938,2061
1630937432942,2060
1630937432946,2059
1630937432950,2058
1630937432954,2057
1630937432958,2057
1630937432962,2058
1630937432966,2060
1630937432970,2061
1630937432974,2063
1630937432978,2065
1630937432982,2066
1630937432986,2067
1630937432990,2067
1630937432994,2067
1630937432998,2066
1630937433002,2064
1630937433006,2063
1630937433010,2062
1630937433014,2062
1630937433018,2061
1630937433022,2061
1630937433026,2060
1630937433030,2061
1630937433034,2062
1630937433038,2063
1630937433042,2062
1630937433046,2055
1630937433050,2044
1630937433054,2031
1630937433058,2020
1630937433062,2019
1630937433066,2033
1630937433070,2061
1630937433074,2103
1630937433078,2147
1630937433082,2184
1630937433086,2204
1630937433090,2204
1630937433094,2187
1630937433098,2160
1630937433102,2134
1630937433106,2111
1630937433110,2094
1630937433114,2081
1630937433118,2071
1630937433122,2063
1630937433126,2058
1630937433130,2057
1630937433134,2058
1630937433138,2057
1630937433142,2057
1630937433146,2056
1630937433150,2055
1630937433154,2054
1630937433158,2053
1630937433162,2053
1630937433166,2053
1630937433170,2054
1630937433174,2054
1630937433178,2055
1630937433182,2056
1630937433186,2056
1630937433190,2056
1630937433194,2056
1630937433198,2056
1630937433202,2056
1630937433206,2057
1630937433210,2058
1630937433214,2059
1630937433218,2060
1630937433222,2061
1630937433226,2061
1630937433230,2062
1630937433234,2062
1630937433238,2063
1630937433242,2064
1630937433246,2065
1630937433250,2066
1630937433254,2068
1630937433258,2069
1630937433262,2071
1630937433266,2072
1630937433270,2073
1630937433274,2075
1630937433278,2076
1630937433282,2078
1630937433286,2079
1630937433290,2081
1630937433294,2082
1630937433298,2083
1630937433302,2084
1630937433306,2084
1630937433310,2085
1630937433314,2084
1630937433318,2084
1630937433322,2082
1630937433326,2080
1630937433330,2078
1630937433334,2075
1630937433338,2072
1630937433342,2069
1630937433346,2066
1630937433350,2063
1630937433354,2060
1630937433358,2057
1630937433362,2055
1630937433366,2054
1630937433370,2054
1630937433374,2054
1630937433378,2053
1630937433382,2053
1630937433386,2052
1630937433390,2052
1630937433394,2051
1630937433398,2051
1630937433402,2051
1630937433406,2052
1630937433410,2052
1630937433414,2052
1630937433418,2052
1630937433422,2053
1630937433426,2053
1630937433430,2053
1630937433434,2053
1630937433438,2052
1630937433442,2052
1630937433446,2051
1630937433450,2052
1630937433454,2052
1630937433458,2053
1630937433462,2053
1630937433466,2053
1630937433470,2053
1630937433474,2053
1630937433478,2052
1630937433482,2053
1630937433486,2053
1630937433490,2054
1630937433494,2054
1630937433498,2055
1630937433502,2055
1630937433506,2055
1630937433510,2055
1630937433514,2055
1630937433518,2054
1630937433522,2054
1630937433526,2054
1630937433530,2055
1630937433534,2055
1630937433538,2056
1630937433542,2056
1630937433546,2056
1630937433550,2056
1630937433554,2055
1630937433558,2055
1630937433562,2054
1630937433566,2054
1630937433570,2055
1630937433574,2055
1630937433578,2056
1630937433582,2056
1630937433586,2056
1630937433590,2056
1630937433594,2056
1630937433598,2056
1630937433602,2055
1630937433606,2055
1630937433610,2056
1630937433614,2057
1630937433618,2057
1630937433622,2058
1630937433626,2058
1630937433630,2057
1630937433634,2056
1630937433638,2056
1630937433642,2055
1630937433646,2055
1630937433650,2055
1630937433654,2056
1630937433658,2057
1630937433662,2057
1630937433666,2057
1630937433670,2057
1630937433674,2056
1630937433678,2056
1630937433682,2056
1630937433686,2056
1630937433690,2057
1630937433694,2058
1630937433698,2058
1630937433702,2058
1630937433706,2058
1630937433710,2058
1630937433714,2058
1630937433718,2057
1630937433722,2056
1630937433726,2055
1630937433730,2055
1630937433734,2056
1630937433738,2056
1630937433742,2057
1630937433746,2058
1630937433750,2058
1630937433754,2058
1630937433758,2058
1630937433762,2058
1630937433766,2058
1630937433770,2058
1630937433774,2058
1630937433778,2058
1630937433782,2059
1630937433786,2059
1630937433790,2059
1630937433794,2059
1630937433798,2058
1630937433802,2057
1630937433806,2057
1630937433810,2057
1630937433814,2057
1630937433818,2058
1630937433822,2058
1630937433826,2059
1630937433830,2059
1630937433834,2058
1630937433838,2058
1630937433842,2057
1630937433846,2057
1630937433850,2057
1630937433854,2058
1630937433858,2058
1630937433862,2058
1630937433866,2058
1630937433870,2058
1630937433874,2058
1630937433878,2057
1630937433882,2057
1630937433886,2057
1630937433890,2057
1630937433894,2058
1630937433898,2057
1630937433902,2057
1630937433906,2055
1630937433910,2054
1630937433914,2054
1630937433918,2055
1630937433922,2056
1630937433926,2058
1630937433930,2059
1630937433934,2061
1630937433938,2062
1630937433942,2063
1630937433946,2064
1630937433950,2064
1630937433954,2064
1630937433958,2062
1630937433962,2061
1630937433966,2060
1630937433970,2060
1630937433974,2059
1630937433978,2059
1630937433982,2058
1630937433986,2058
1630937433990,2059
1630937433994,2061
1630937433998,2060
1630937434002,2054
1630937434006,2045
1630937434010,2031
1630937434014,2020
1630937434018,2017
1630937434022,2027
1630937434026,2052
1630937434030,2092
1630937434034,2137
1630937434038,2174
1630937434042,2194
1630937434046,2192
1630937434050,2172
1630937434054,2144
1630937434058,2117
1630937434062,2098
1630937434066,2086
1630937434070,2077
1630937434074,2069
1630937434078,2062
1630937434082,2057
1630937434086,2054
1630937434090,2054
1630937434094,2055
1630937434098,2055
1630937434102,2055
1630937434106,2054
1630937434110,2054
1630937434114,2053
1630937434118,2052
1630937434122,2052
1630937434126,2052
1630937434130,2053
1630937434134,2054
1630937434138,2055
1630937434142,2056
1630937434146,2056
1630937434150,2056
1630937434154,2056
1630937434158,2056
1630937434162,2056
1630937434166,2057
1630937434170,2058
1630937434174,2058
1630937434178,2059
1630937434182,2060
1630937434186,2061
1630937434190,2061
1630937434194,2062
1630937434198,2063
1630937434202,2064
1630937434206,2065
1630937434210,2066
1630937434214,2068
1630937434218,2069
1630937434222,2071
1630937434226,2073
1630937434230,2075
1630937434234,2077
1630937434238,2077
1630937434242,2078
1630937434246,2080
1630937434250,2081
1630937434254,2083
1630937434258,2084
1630937434262,2085
1630937434266,2085
1630937434270,2085
1630937434274,2084
1630937434278,2082
1630937434282,2080
1630937434286,2076
1630937434290,2073
1630937434294,2070
1630937434298,2067
1630937434302,2064
1630937434306,2061
1630937434310,2059
1630937434314,2056
1630937434318,2053
1630937434322,2051
1630937434326,2049
1630937434330,2048
1630937434334,2048
1630937434338,2048
1630937434342,2048
1630937434346,2048
1630937434350,2048
1630937434354,2048
1630937434358,2048
1630937434362,2048
1630937434366,2047
1630937434370,2048
1630937434374,2048
1630937434378,2048
1630937434382,2048
1630937434386,2048
1630937434390,2048
1630937434394,2048
1630937434398,2048
1630937434402,2047
1630937434406,2047
1630937434410,2048
1630937434414,2048
1630937434418,2048
1630937434422,2049
1630937434426,2049
1630937434430,2049
1630937434434,2049
1630937434438,2049
1630937434442,2049
1630937434446,2049
1630937434450,2050
1630937434454,2050
1630937434458,2051
1630937434462,2051
1630937434466,2051
1630937434470,2051
1630937434474,2050
1630937434478,2050
1630937434482,2049
1630937434486,2049
1630937434490,2049
1630937434494,2050
1630937434498,2051
1630937434502,2051
1630937434506,2051
1630937434510,2051
1630937434514,2051
1630937434518,2050
1630937434522,2050
1630937434526,2050
1630937434530,2050
1630937434534,2050
1630937434538,2050
1630937434542,2051
1630937434546,2051
1630937434550,2051
1630937434554,2051
1630937434558,2050
1630937434562,2050
1630937434566,2050
1630937434570,2050
1630937434574,2051
1630937434578,2051
1630937434582,2051
1630937434586,2051
1630937434590,2051
1630937434594,2051
1630937434598,2051
1630937434602,2051
1630937434606,2051
1630937434610,2051
1630937434614,2051
1630937434618,2051
1630937434622,2052
1630937434626,2052
1630937434630,2051
1630937434634,2051
1630937434638,2051
1630937434642,2050
1630937434646,2051
1630937434650,2051
1630937434654,2052
1630937434658,2053
1630937434662,2053
1630937434666,2054
1630937434670,2053
1630937434674,2053
1630937434678,2052
1630937434682,2052
1630937434686,2052
1630937434690,2052
1630937434694,2053
1630937434698,2053
1630937434702,2053
1630937434706,2053
1630937434710,2053
1630937434714,2053
1630937434718,2053
1630937434722,2053
1630937434726,2053
1630937434730,2053
1630937434734,2053
1630937434738,2054
1630937434742,2054
1630937434746,2054
1630937434750,2054
1630937434754,2054
1630937434758,2053
1630937434762,2053
1630937434766,2053
1630937434770,2054
1630937434774,2054
1630937434778,2054
1630937434782,2054
1630937434786,2054
1630937434790,2055
1630937434794,2054
1630937434798,2054
1630937434802,2053
1630937434806,2053
1630937434810,2052
1630937434814,2052
1630937434818,2053
1630937434822,2055
1630937434826,2056
1630937434830,2058
1630937434834,2059
1630937434838,2060
1630937434842,2061
1630937434846,2062
1630937434850,2063
1630937434854,2063
1630937434858,2064
1630937434862,2063
1630937434866,2062
1630937434870,2061
1630937434874,2060
1630937434878,2059
1630937434882,2058
1630937434886,2057
1630937434890,2058
1630937434894,2060
1630937434898,2063
1630937434902,2063
1630937434906,2057
1630937434910,2048
1630937434914,2033
1630937434918,2019
1630937434922,2013
1630937434926,2021
1630937434930,2045
1630937434934,2083
1630937434938,2131
1630937434942,2173
1630937434946,2199
1630937434950,2203
1630937434954,2186
1630937434958,2158
1630937434962,2129
1630937434966,2107
1630937434970,2092
1630937434974,2082
1630937434978,2073
1630937434982,2066
1630937434986,2060
1630937434990,2056
1630937434994,2056
1630937434998,2055
1630937435002,2055
1630937435006,2054
1630937435010,2053
1630937435014,2053
1630937435018,2053
1630937435022,2053
1630937435026,2054
1630937435030,2054
1630937435034,2054
1630937435038,2054
1630937435042,2054
1630937435046,2055
1630937435050,2055
1630937435054,2056
1630937435058,2057
1630937435062,2057
1630937435066,2057
1630937435070,2057
1630937435074,2057
1630937435078,2057
1630937435082,2058
1630937435086,2059
1630937435090,2060
1630937435094,2061
1630937435098,2063
1630937435102,2064
1630937435106,2065
1630937435110,2066
1630937435114,2066
1630937435118,2067
1630937435122,2068
1630937435126,2070
1630937435130,2072
1630937435134,2075
1630937435138,2078
1630937435142,2080
1630937435146,2082
1630937435150,2083
1630937435154,2084
1630937435158,2084
1630937435162,2085
1630937435166,2086
1630937435170,2086
1630937435174,2087
1630937435178,2086
1630937435182,2085
1630937435186,2083
1630937435190,2080
1630937435194,2077
1630937435198,2072
1630937435202,2068
1630937435206,2065
1630937435210,2062
1630937435214,2060
1630937435218,2058
1630937435222,2057
1630937435226,2055
1630937435230,2054
1630937435234,2052
1630937435238,2051
1630937435242,2050
1630937435246,2050
1630937435250,2050
1630937435254,2050
1630937435258,2051
1630937435262,2051
1630937435266,2051
1630937435270,2051
1630937435274,2051
1630937435278,2051
1630937435282,2050
1630937435286,2050
1630937435290,2050
1630937435294,2050
1630937435298,2050
1630937435302,2050
1630937435306,2050
1630937435310,2050
1630937435314,2050
1630937435318,2050
1630937435322,2050
1630937435326,2049
1630937435330,2050
1630937435334,2050
1630937435338,2050
1630937435342,2051
1630937435346,2051
1630937435350,2051
1630937435354,2051
1630937435358,2051
1630937435362,2051
1630937435366,2051
1630937435370,2052
1630937435374,2053
1630937435378,2053
1630937435382,2053
1630937435386,2053
1630937435390,2053
1630937435394,2053
1630937435398,2052
1630937435402,2052
1630937435406,2052
1630937435410,2053
1630937435414,2053
1630937435418,2053
1630937435422,2054
1630937435426,2054
1630937435430,2053
1630937435434,2053
1630937435438,2052
1630937435442,2052
1630937435446,2053
1630937435450,2053
1630937435454,2054
1630937435458,2054
1630937435462,2054
1630937435466,2054
1630937435470,2053
1630937435474,2053
1630937435478,2052
1630937435482,2052
1630937435486,2052
1630937435490,2053
1630937435494,2054
1630937435498,2054
1630937435502,2054
1630937435506,2054
1630937435510,2053
1630937435514,2053
1630937435518,2053
1630937435522,2053
1630937435526,2053
1630937435530,2053
1630937435534,2054
1630937435538,2055
1630937435542,2056
1630937435546,2056
1630937435550,2056
1630937435554,2056
1630937435558,2055
1630937435562,2055
1630937435566,2055
1630937435570,2055
1630937435574,2056
1630937435578,2057
1630937435582,2057
1630937435586,2057
1630937435590,2057
1630937435594,2057
1630937435598,2057
1630937435602,2057
1630937435606,2057
1630937435610,2057
1630937435614,2058
1630937435618,2058
1630937435622,2058
1630937435626,2058
1630937435630,2057
1630937435634,2057
1630937435638,2057
1630937435642,2057
1630937435646,2057
1630937435650,2057
1630937435654,2057
1630937435658,2058
1630937435662,2058
1630937435666,2058
1630937435670,2058
1630937435674,2058
1630937435678,2057
1630937435682,2057
1630937435686,2057
1630937435690,2057
1630937435694,2057
1630937435698,2057
1630937435702,2058
1630937435706,2058
1630937435710,2057
1630937435714,2057
1630937435718,2057
1630937435722,2057
1630937435726,2057
1630937435730,2057
1630937435734,2058
1630937435738,2059
1630937435742,2059
1630937435746,2059
1630937435750,2058
1630937435754,2058
1630937435758,2057
1630937435762,2057
1630937435766,2057
1630937435770,2056
1630937435774,2055
1630937435778,2055
1630937435782,2055
1630937435786,2056
1630937435790,2057
1630937435794,2058
1630937435798,2059
1630937435802,2061
1630937435806,2062
1630937435810,2063
1630937435814,2064
1630937435818,2064
1630937435822,2065
1630937435826,2064
1630937435830,2063
1630937435834,2061
1630937435838,2060
1630937435842,2059
1630937435846,2058
1630937435850,2057
1630937435854,2058
1630937435858,2059
1630937435862,2061
1630937435866,2062
1630937435870,2059
1630937435874,2051
1630937435878,2039
1630937435882,2025
1630937435886,2015
1630937435890,2017
1630937435894,2033
1630937435898,2063
1630937435902,2107
1630937435906,2152
1630937435910,2187
1630937435914,2205
1630937435918,2202
1630937435922,2182
1630937435926,2154
1630937435930,2127
1630937435934,2106
1630937435938,2091
1630937435942,2079
1630937435946,2070
1630937435950,2063
1630937435954,2058
1630937435958,2056
1630937435962,2055
1630937435966,2054
1630937435970,2053
1630937435974,2053
1630937435978,2053
1630937435982,2053
1630937435986,2054
1630937435990,2054
1630937435994,2054
1630937435998,2053
1630937436002,2053
1630937436006,2053
1630937436010,2053
1630937436014,2054
1630937436018,2055
1630937436022,2056
1630937436026,2056
1630937436030,2056
1630937436034,2056
1630937436038,2056
1630937436042,2057
1630937436046,2057
1630937436050,2058
1630937436054,2059
1630937436058,2060
1630937436062,2061
1630937436066,2062
1630937436070,2063
1630937436074,2064
1630937436078,2065
1630937436082,2066
1630937436086,2067
1630937436090,2069
1630937436094,2071
1630937436098,2072
1630937436102,2074
1630937436106,2076
1630937436110,2077
1630937436114,2078
1630937436118,2079
1630937436122,2080
1630937436126,2081
1630937436130,2083
1630937436134,2084
1630937436138,2085
1630937436142,2085
1630937436146,2084
1630937436150,2083
1630937436154,2081
1630937436158,2078
1630937436162,2074
1630937436166,2071
1630937436170,2068
1630937436174,2065
1630937436178,2062
1630937436182,2060
1630937436186,2058
1630937436190,2056
1630937436194,2054
1630937436198,2052
1630937436202,2052
1630937436206,2051
1630937436210,2051
1630937436214,2052
1630937436218,2052
1630937436222,2052
1630937436226,2052
1630937436230,2052
1630937436234,2051
1630937436238,2051
1630937436242,2051
1630937436246,2052
1630937436250,2052
1630937436254,2053
1630937436258,2053
1630937436262,2053
1630937436266,2054
1630937436270,2054
1630937436274,2054
1630937436278,2053
1630937436282,2053
1630937436286,2053
1630937436290,2053
1630937436294,2053
1630937436298,2054
1630937436302,2054
1630937436306,2054
1630937436310,2054
1630937436314,2054
1630937436318,2053
1630937436322,2054
1630937436326,2054
1630937436330,2054
1630937436334,2055
1630937436338,2055
1630937436342,2055
1630937436346,2055
1630937436350,2055
1630937436354,2055
1630937436358,2054
1630937436362,2054
1630937436366,2054
1630937436370,2055
1630937436374,2056
1630937436378,2056
1630937436382,2057
1630937436386,2057
1630937436390,2057
1630937436394,2057
1630937436398,2057
1630937436402,2056
1630937436406,2056
1630937436410,2056
1630937436414,2056
1630937436418,2056
1630937436422,2056
1630937436426,2056
1630937436430,2056
1630937436434,2055
1630937436438,2055
1630937436442,2055
1630937436446,2055
1630937436450,2055
1630937436454,2056
1630937436458,2057
1630937436462,2057
1630937436466,2057
1630937436470,2057
1630937436474,2056
1630937436478,2055
1630937436482,2055
1630937436486,2055
1630937436490,2056
1630937436494,2057
1630937436498,2058
1630937436502,2058
1630937436506,2058
1630937436510,2057
1630937436514,2057
1630937436518,2056
1630937436522,2056
1630937436526,2057
1630937436530,2057
1630937436534,2058
1630937436538,2058
1630937436542,2058
1630937436546,2058
1630937436550,2058
1630937436554,2058
1630937436558,2058
1630937436562,2058
1630937436566,2058
1630937436570,2058
1630937436574,2059
1630937436578,2059
1630937436582,2059
1630937436586,2059
1630937436590,2059
1630937436594,2059
1630937436598,2058
1630937436602,2058
1630937436606,2058
1630937436610,2059
1630937436614,2059
1630937436618,2060
1630937436622,2060
1630937436626,2060
1630937436630,2059
1630937436634,2059
1630937436638,2059
1630937436642,2059
1630937436646,2059
1630937436650,2059
1630937436654,2060
1630937436658,2060
1630937436662,2060
1630937436666,2060
1630937436670,2060
1630937436674,2060
1630937436678,2059
1630937436682,2059
1630937436686,2059
1630937436690,2060
1630937436694,2060
1630937436698,2061
1630937436702,2061
1630937436706,2060
1630937436710,2060
1630937436714,2060
1630937436718,2060
1630937436722,2060
1630937436726,2060
1630937436730,2060
1630937436734,2060
1630937436738,2061
1630937436742,2061
1630937436746,2062
1630937436750,2061
1630937436754,2060
1630937436758,2059
1630937436762,2057
1630937436766,2057
1630937436770,2057
1630937436774,2059
1630937436778,2060
1630937436782,2063
1630937436786,2064
1630937436790,2065
1630937436794,2066
1630937436798,2066
1630937436802,2066
1630937436806,2066
1630937436810,2066
1630937436814,2065
1630937436818,2065
1630937436822,2064
1630937436826,2063
1630937436830,2061
1630937436834,2060
1630937436838,2059
1630937436842,2059
1630937436846,2061
1630937436850,2063
1630937436854,2063
1630937436858,2059
1630937436862,2050
1630937436866,2038
1630937436870,2024
1630937436874,2018
1630937436878,2023
1630937436882,2044
1630937436886,2078
1630937436890,2122
1630937436894,2164
1630937436898,2194
1630937436902,2204
1630937436906,2195
1630937436910,2171
1630937436914,2144
1630937436918,2119
1630937436922,2100
1630937436926,2086
1630937436930,2075
1630937436934,2068
1630937436938,2061
1630937436942,2058
1630937436946,2057
1630937436950,2056
1630937436954,2055
1630937436958,2054
1630937436962,2053
1630937436966,2053
1630937436970,2053
1630937436974,2053
1630937436978,2054
1630937436982,2054
1630937436986,2054
1630937436990,2054
1630937436994,2054
1630937436998,2054
1630937437002,2054
1630937437006,2055
1630937437010,2056
1630937437014,2057
1630937437018,2057
1630937437022,2058
1630937437026,2059
1630937437030,2059
1630937437034,2059
1630937437038,2059
1630937437042,2060
1630937437046,2060
1630937437050,2062
1630937437054,2063
1630937437058,2065
1630937437062,2066
1630937437066,2067
1630937437070,2068
1630937437074,2069
1630937437078,2069
1630937437082,2071
1630937437086,2072
1630937437090,2074
1630937437094,2077
1630937437098,2079
1630937437102,2081
1630937437106,2082
1630937437110,2083
1630937437114,2084
1630937437118,2084
1630937437122,2084
1630937437126,2084
1630937437130,2084
1630937437134,2084
1630937437138,2083
1630937437142,2081
1630937437146,2078
1630937437150,2074
1630937437154,2070
1630937437158,2066
1630937437162,2063
1630937437166,2060
1630937437170,2058
1630937437174,2057
1630937437178,2056
1630937437182,2055
1630937437186,2053
1630937437190,2052
1630937437194,2051
1630937437198,2050
1630937437202,2050
1630937437206,2049
1630937437210,2050
1630937437214,2051
1630937437218,2051
1630937437222,2051
1630937437226,2051
1630937437230,2051
1630937437234,2051
1630937437238,2050
1630937437242,2050
1630937437246,2051
1630937437250,2052
1630937437254,2052
1630937437258,2053
1630937437262,2053
1630937437266,2052
1630937437270,2052
1630937437274,2051
1630937437278,2051
1630937437282,2051
1630937437286,2051
1630937437290,2052
1630937437294,2052
1630937437298,2052
1630937437302,2053
1630937437306,2053
1630937437310,2053
1630937437314,2053
1630937437318,2053
1630937437322,2053
1630937437326,2053
1630937437330,2053
1630937437334,2054
1630937437338,2054
1630937437342,2054
1630937437346,2054
1630937437350,2054
1630937437354,2054
1630937437358,2054
1630937437362,2054
1630937437366,2054
1630937437370,2054
1630937437374,2054
1630937437378,2055
1630937437382,2055
1630937437386,2056
1630937437390,2056
1630937437394,2055
1630937437398,2055
1630937437402,2054
1630937437406,2053
1630937437410,2053
1630937437414,2054
1630937437418,2054
1630937437422,2055
1630937437426,2055
1630937437430,2055
1630937437434,2055
1630937437438,2054
1630937437442,2054
1630937437446,2054
1630937437450,2054
1630937437454,2054
1630937437458,2055
1630937437462,2055
1630937437466,2055
1630937437470,2055
1630937437474,2055
1630937437478,2055
1630937437482,2055
1630937437486,2055
1630937437490,2055
1630937437494,2055
1630937437498,2055
1630937437502,2056
1630937437506,2056
1630937437510,2055
1630937437514,2055
1630937437518,2054
1630937437522,2054
1630937437526,2055
1630937437530,2056
1630937437534,2056
1630937437538,2057
1630937437542,2057
1630937437546,2057
1630937437550,2057
1630937437554,2056
1630937437558,2056
1630937437562,2056
1630937437566,2056
1630937437570,2057
1630937437574,2058
1630937437578,2058
1630937437582,2059
1630937437586,2059
1630937437590,2058
1630937437594,2058
1630937437598,2058
1630937437602,2058
1630937437606,2058
1630937437610,2058
1630937437614,2058
1630937437618,2058
1630937437622,2058
1630937437626,2058
1630937437630,2058
1630937437634,2058
1630937437638,2057
1630937437642,2057
1630937437646,2057
1630937437650,2057
1630937437654,2058
1630937437658,2058
1630937437662,2058
1630937437666,2058
1630937437670,2058
1630937437674,2057
1630937437678,2057
1630937437682,2057
1630937437686,2057
1630937437690,2058
1630937437694,2058
1630937437698,2058
1630937437702,2058
1630937437706,2058
1630937437710,2057
1630937437714,2056
1630937437718,2056
1630937437722,2056
1630937437726,2056
1630937437730,2057
1630937437734,2057
1630937437738,2057
1630937437742,2057
1630937437746,2056
1630937437750,2055
1630937437754,2054
1630937437758,2054
1630937437762,2054
1630937437766,2056
1630937437770,2058
1630937437774,2060
1630937437778,2062
1630937437782,2063
1630937437786,2064
1630937437790,2065
1630937437794,2065
1630937437798,2064
1630937437802,2062
1630937437806,2061
1630937437810,2059
1630937437814,2058
1630937437818,2058
1630937437822,2057
1630937437826,2057
1630937437830,2058
1630937437834,2060
1630937437838,2062
1630937437842,2061
1630937437846,2057
1630937437850,2048
1630937437854,2035
1630937437858,2022
1630937437862,2017
1630937437866,2024
1630937437870,2046
1630937437874,2080
1630937437878,2124
1630937437882,2164
1630937437886,2189
1630937437890,2193
1630937437894,2178
1630937437898,2151
1630937437902,2123
1630937437906,2101
1630937437910,2087
1630937437914,2078
1630937437918,2070
1630937437922,2063
1630937437926,2058
1630937437930,2055
1630937437934,2054
1630937437938,2055
1630937437942,2055
1630937437946,2055
1630937437950,2054
1630937437954,2054
1630937437958,2053
1630937437962,2053
1630937437966,2053
1630937437970,2053
1630937437974,2054
1630937437978,2054
1630937437982,2054
1630937437986,2054
1630937437990,2054
1630937437994,2054
1630937437998,2054
1630937438002,2055
1630937438006,2055
1630937438010,2056
1630937438014,2057
1630937438018,2058
1630937438022,2059
1630937438026,2060
1630937438030,2061
1630937438034,2061
1630937438038,2062
1630937438042,2062
1630937438046,2063
1630937438050,2064
1630937438054,2066
1630937438058,2068
1630937438062,2070
1630937438066,2071
1630937438070,2073
1630937438074,2074
1630937438078,2076
1630937438082,2077
1630937438086,2079
1630937438090,2081
1630937438094,2083
1630937438098,2085
1630937438102,2086
1630937438106,2087
1630937438110,2087
1630937438114,2087
1630937438118,2086
1630937438122,2085
1630937438126,2083
1630937438130,2081
1630937438134,2078
1630937438138,2074
1630937438142,2071
1630937438146,2067
1630937438150,2063
1630937438154,2059
1630937438158,2057
1630937438162,2055
1630937438166,2053
1630937438170,2052
1630937438174,2051
1630937438178,2050
1630937438182,2049
1630937438186,2049
1630937438190,2049
1630937438194,2049
1630937438198,2049
1630937438202,2048
1630937438206,2048
1630937438210,2048
1630937438214,2048
1630937438218,2049
1630937438222,2050
1630937438226,2050
1630937438230,2050
1630937438234,2049
1630937438238,2048
1630937438242,2048
1630937438246,2048
1630937438250,2048
1630937438254,2049
1630937438258,2049
1630937438262,2050
1630937438266,2050
1630937438270,2050
1630937438274,2050
1630937438278,2050
1630937438282,2050
1630937438286,2050
1630937438290,2050
1630937438294,2050
1630937438298,2051
1630937438302,2051
1630937438306,2052
1630937438310,2052
1630937438314,2051
1630937438318,2051
1630937438322,2050
1630937438326,2051
1630937438330,2051
1630937438334,2052
1630937438338,2052
1630937438342,2053
1630937438346,2053
1630937438350,2052
1630937438354,2052
1630937438358,2052
1630937438362,2052
1630937438366,2052
1630937438370,2053
1630937438374,2053
1630937438378,2054
1630937438382,2054
1630937438386,2054
1630937438390,2053
1630937438394,2053
1630937438398,2053
1630937438402,2053
1630937438406,2052
1630937438410,2053
1630937438414,2053
1630937438418,2054
1630937438422,2055
1630937438426,2055
1630937438430,2055
1630937438434,2055
1630937438438,2054
1630937438442,2054
1630937438446,2054
1630937438450,2054
1630937438454,2054
1630937438458,2055
1630937438462,2055
1630937438466,2055
1630937438470,2056
1630937438474,2055
1630937438478,2055
1630937438482,2054
1630937438486,2054
1630937438490,2054
1630937438494,2055
1630937438498,2056
1630937438502,2056
1630937438506,2057
1630937438510,2056
1630937438514,2056
1630937438518,2055
1630937438522,2055
1630937438526,2055
1630937438530,2055
1630937438534,2056
1630937438538,2056
1630937438542,2057
1630937438546,2057
1630937438550,2057
1630937438554,2056
1630937438558,2056
1630937438562,2055
1630937438566,2055
1630937438570,2055
1630937438574,2056
1630937438578,2056
1630937438582,2057
1630937438586,2057
1630937438590,2057
1630937438594,2057
1630937438598,2056
1630937438602,2056
1630937438606,2056
1630937438610,2056
1630937438614,2057
1630937438618,2058
1630937438622,2058
1630937438626,2058
1630937438630,2058
1630937438634,2057
1630937438638,2057
1630937438642,2057
1630937438646,2057
1630937438650,2058
1630937438654,2058
1630937438658,2059
1630937438662,2060
1630937438666,2060
1630937438670,2059
1630937438674,2058
1630937438678,2057
1630937438682,2056
1630937438686,2054
1630937438690,2054
1630937438694,2055
1630937438698,2057
1630937438702,2059
1630937438706,2061
1630937438710,2062
1630937438714,2062
1630937438718,2063
1630937438722,2063
1630937438726,2064
1630937438730,2064
1630937438734,2064
1630937438738,2063
1630937438742,2062
1630937438746,2061
1630937438750,2060
1630937438754,2059
1630937438758,2058
1630937438762,2058
1630937438766,2059
1630937438770,2061
1630937438774,2061
1630937438778,2057
1630937438782,2048
1630937438786,2035
1630937438790,2022
1630937438794,2015
1630937438798,2021
1630937438802,2043
1630937438806,2080
1630937438810,2126
1630937438814,2168
1630937438818,2196
1630937438822,2202
1630937438826,2187
1630937438830,2160
1630937438834,2131
1630937438838,2108
1630937438842,2093
1630937438846,2082
1630937438850,2073
1630937438854,2066
1630937438858,2060
1630937438862,2057
1630937438866,2056
1630937438870,2055
1630937438874,2054
1630937438878,2053
1630937438882,2053
1630937438886,2052
1630937438890,2053
1630937438894,2053
1630937438898,2054
1630937438902,2054
1630937438906,2054
1630937438910,2054
1630937438914,2054
1630937438918,2054
1630937438922,2054
1630937438926,2054
1630937438930,2055
1630937438934,2056
1630937438938,2057
1630937438942,2058
1630937438946,2059
1630937438950,2059
1630937438954,2059
1630937438958,2060
1630937438962,2060
1630937438966,2061
1630937438970,2062
1630937438974,2063
1630937438978,2065
1630937438982,2066
1630937438986,2068
1630937438990,2069
1630937438994,2070
1630937438998,2071
1630937439002,2073
1630937439006,2074
1630937439010,2076
1630937439014,2078
1630937439018,2080
1630937439022,2082
1630937439026,2083
1630937439030,2084
1630937439034,2085
1630937439038,2085
1630937439042,2086
1630937439046,2086
1630937439050,2086
1630937439054,2085
1630937439058,2084
1630937439062,2082
1630937439066,2079
1630937439070,2075
1630937439074,2071
1630937439078,2066
1630937439082,2063
1630937439086,2060
1630937439090,2058
1630937439094,2057
1630937439098,2055
1630937439102,2054
1630937439106,2053
1630937439110,2052
1630937439114,2051
1630937439118,2050
1630937439122,2049
1630937439126,2049
1630937439130,2049
1630937439134,2050
1630937439138,2051
1630937439142,2051
1630937439146,2051
1630937439150,2051
1630937439154,2051
1630937439158,2050
1630937439162,2050
1630937439166,2050
1630937439170,2050
1630937439174,2051
1630937439178,2051
1630937439182,2051
1630937439186,2051
1630937439190,2051
1630937439194,2051
1630937439198,2050
1630937439202,2050
1630937439206,2049
1630937439210,2050
1630937439214,2050
1630937439218,2051
1630937439222,2052
1630937439226,2052
1630937439230,2052
1630937439234,2052
1630937439238,2051
1630937439242,2051
1630937439246,2051
1630937439250,2051
1630937439254,2052
1630937439258,2052
1630937439262,2053
1630937439266,2053
1630937439270,2052
1630937439274,2052
1630937439278,2051
1630937439282,2051
1630937439286,2051
1630937439290,2052
1630937439294,2052
1630937439298,2053
1630937439302,2053
1630937439306,2053
1630937439310,2053
1630937439314,2053
1630937439318,2052
1630937439322,2052
1630937439326,2052
1630937439330,2052
1630937439334,2052
1630937439338,2053
1630937439342,2053
1630937439346,2053
1630937439350,2053
1630937439354,2052
1630937439358,2051
1630937439362,2051
1630937439366,2051
1630937439370,2052
1630937439374,2052
1630937439378,2053
1630937439382,2053
1630937439386,2053
1630937439390,2053
1630937439394,2053
1630937439398,2052
1630937439402,2052
1630937439406,2052
1630937439410,2053
1630937439414,2053
1630937439418,2053
1630937439422,2054
1630937439426,2054
1630937439430,2054
1630937439434,2053
1630937439438,2053
1630937439442,2053
1630937439446,2053
1630937439450,2053
1630937439454,2054
1630937439458,2054
1630937439462,2055
1630937439466,2055
1630937439470,2055
1630937439474,2054
1630937439478,2053
1630937439482,2053
1630937439486,2052
1630937439490,2053
1630937439494,2054
1630937439498,2055
1630937439502,2055
1630937439506,2055
1630937439510,2055
1630937439514,2054
1630937439518,2054
1630937439522,2054
1630937439526,2055
1630937439530,2055
1630937439534,2055
1630937439538,2056
1630937439542,2056
1630937439546,2056
1630937439550,2055
1630937439554,2055
1630937439558,2054
1630937439562,2054
1630937439566,2054
1630937439570,2055
1630937439574,2055
1630937439578,2055
1630937439582,2056
1630937439586,2056
1630937439590,2055
1630937439594,2055
1630937439598,2054
1630937439602,2054
1630937439606,2054
1630937439610,2055
1630937439614,2055
1630937439618,2056
1630937439622,2056
1630937439626,2056
1630937439630,2056
1630937439634,2056
1630937439638,2055
1630937439642,2055
1630937439646,2055
1630937439650,2054
1630937439654,2053
1630937439658,2053
1630937439662,2053
1630937439666,2054
1630937439670,2055
1630937439674,2056
1630937439678,2057
1630937439682,2059
1630937439686,2060
1630937439690,2061
1630937439694,2062
1630937439698,2062
1630937439702,2063
1630937439706,2062
1630937439710,2061
1630937439714,2060
1630937439718,2058
1630937439722,2057
1630937439726,2056
1630937439730,2055
1630937439734,2056
1630937439738,2057
1630937439742,2059
1630937439746,2060
1630937439750,2057
1630937439754,2048
1630937439758,2036
1630937439762,2022
1630937439766,2013
1630937439770,2016
1630937439774,2034
1630937439778,2066
1630937439782,2109
1630937439786,2153
1630937439790,2186
1630937439794,2201
1630937439798,2195
1630937439802,2174
1630937439806,2147
1630937439810,2122
1630937439814,2102
1630937439818,2087
1630937439822,2075
1630937439826,2067
1630937439830,2059
1630937439834,2054
1630937439838,2053
1630937439842,2052
1630937439846,2052
1630937439850,2052
1630937439854,2052
1630937439858,2052
1630937439862,2052
1630937439866,2052
1630937439870,2051
1630937439874,2051
1630937439878,2051
1630937439882,2051
1630937439886,2051
1630937439890,2051
1630937439894,2052
1630937439898,2053
1630937439902,2054
1630937439906,2054
1630937439910,2054
1630937439914,2054
1630937439918,2054
1630937439922,2055
1630937439926,2055
1630937439930,2056
1630937439934,2058
1630937439938,2059
1630937439942,2060
1630937439946,2062
1630937439950,2062
1630937439954,2063
1630937439958,2064
1630937439962,2065
1630937439966,2066
1630937439970,2067
1630937439974,2069
1630937439978,2071
1630937439982,2073
1630937439986,2075
1630937439990,2077
1630937439994,2078
1630937439998,2079
1630937440002,2080
1630937440006,2081
1630937440010,2082
1630937440014,2083
1630937440018,2084
1630937440022,2085
1630937440026,2084
1630937440030,2083
1630937440034,2080
1630937440038,2077
1630937440042,2074
1630937440046,2070
1630937440050,2067
1630937440054,2064
1630937440058,2062
1630937440062,2060
1630937440066,2058
1630937440070,2056
1630937440074,2054
1630937440078,2052
1630937440082,2051
1630937440086,2050
1630937440090,2050
1630937440094,2051
1630937440098,2051
1630937440102,2051
1630937440106,2051
1630937440110,2051
1630937440114,2050
1630937440118,2049
1630937440122,2049
1630937440126,2049
1630937440130,2050
1630937440134,2051
1630937440138,2051
1630937440142,2052
1630937440146,2052
1630937440150,2052
1630937440154,2051
1630937440158,2051
1630937440162,2050
1630937440166,2050
1630937440170,2051
1630937440174,2051
1630937440178,2051
1630937440182,2052
1630937440186,2052
1630937440190,2051
1630937440194,2051
1630937440198,2051
1630937440202,2051
1630937440206,2051
1630937440210,2051
1630937440214,2052
1630937440218,2052
1630937440222,2053
1630937440226,2053
1630937440230,2053
1630937440234,2053
1630937440238,2053
1630937440242,2053
1630937440246,2053
1630937440250,2053
1630937440254,2054
1630937440258,2054
1630937440262,2055
1630937440266,2055
1630937440270,2055
1630937440274,2055
1630937440278,2054
1630937440282,2054
1630937440286,2054
1630937440290,2055
1630937440294,2055
1630937440298,2056
1630937440302,2056
1630937440306,2056
1630937440310,2056
1630937440314,2055
1630937440318,2054
1630937440322,2054
1630937440326,2055
1630937440330,2055
1630937440334,2056
1630937440338,2056
1630937440342,2056
1630937440346,2056
1630937440350,2056
1630937440354,2055
1630937440358,2055
1630937440362,2055
1630937440366,2055
1630937440370,2056
1630937440374,2056
1630937440378,2057
1630937440382,2057
1630937440386,2057
1630937440390,2057
1630937440394,2056
1630937440398,2056
1630937440402,2056
1630937440406,2056
1630937440410,2056
1630937440414,2056
1630937440418,2057
1630937440422,2057
1630937440426,2057
1630937440430,2057
1630937440434,2056
1630937440438,2056
1630937440442,2056
1630937440446,2057
1630937440450,2057
1630937440454,2058
1630937440458,2058
1630937440462,2058
1630937440466,2058
1630937440470,2058
1630937440474,2058
1630937440478,2058
1630937440482,2058
1630937440486,2057
1630937440490,2058
1630937440494,2058
1630937440498,2058
1630937440502,2059
1630937440506,2059
1630937440510,2058
1630937440514,2058
1630937440518,2058
1630937440522,2057
1630937440526,2057
1630937440530,2058
1630937440534,2058
1630937440538,2059
1630937440542,2059
1630937440546,2059
1630937440550,2059
1630937440554,2059
1630937440558,2058
1630937440562,2058
1630937440566,2058
1630937440570,2058
1630937440574,2059
1630937440578,2059
1630937440582,2059
1630937440586,2059
1630937440590,2059
1630937440594,2059
1630937440598,2059
1630937440602,2059
1630937440606,2058
1630937440610,2058
1630937440614,2059
1630937440618,2059
1630937440622,2060
1630937440626,2060
1630937440630,2060
1630937440634,2059
1630937440638,2057
1630937440642,2057
1630937440646,2057
1630937440650,2058
1630937440654,2060
1630937440658,2062
1630937440662,2064
1630937440666,2065
1630937440670,2065
1630937440674,2066
1630937440678,2066
1630937440682,2066
1630937440686,2065
1630937440690,2065
1630937440694,2064
1630937440698,2064
1630937440702,2063
1630937440706,2062
1630937440710,2061
1630937440714,2059
1630937440718,2059
1630937440722,2060
1630937440726,2062
1630937440730,2063
1630937440734,2060
1630937440738,2051
1630937440742,2039
1630937440746,2026
1630937440750,2018
1630937440754,2023
1630937440758,2041
1630937440762,2073
1630937440766,2116
1630937440770,2158
1630937440774,2189
1630937440778,2201
1630937440782,2195
1630937440786,2173
1630937440790,2146
1630937440794,2121
1630937440798,2101
1630937440802,2086
1630937440806,2075
1630937440810,2067
1630937440814,2061
1630937440818,2058
1630937440822,2057
1630937440826,2057
1630937440830,2056
1630937440834,2055
1630937440838,2054
1630937440842,2053
1630937440846,2052
1630937440850,2052
1630937440854,2053
1630937440858,2053
1630937440862,2054
1630937440866,2055
1630937440870,2055
1630937440874,2055
1630937440878,2055
1630937440882,2055
1630937440886,2055
1630937440890,2056
1630937440894,2057
1630937440898,2058
1630937440902,2059
1630937440906,2059
1630937440910,2059
1630937440914,2060
1630937440918,2060
1630937440922,2061
1630937440926,2062
1630937440930,2064
1630937440934,2065
1630937440938,2067
1630937440942,2068
1630937440946,2069
1630937440950,2070
1630937440954,2071
1630937440958,2073
1630937440962,2074
1630937440966,2076
1630937440970,2078
1630937440974,2080
1630937440978,2082
1630937440982,2083
1630937440986,2085
1630937440990,2085
1630937440994,2086
1630937440998,2087
1630937441002,2087
1630937441006,2087
1630937441010,2086
1630937441014,2085
1630937441018,2083
1630937441022,2080
1630937441026,2077
1630937441030,2073
1630937441034,2070
1630937441038,2066
1630937441042,2063
1630937441046,2060
1630937441050,2058
1630937441054,2057
1630937441058,2056
1630937441062,2055
1630937441066,2053
1630937441070,2053
1630937441074,2052
1630937441078,2052
1630937441082,2051
1630937441086,2051
1630937441090,2051
1630937441094,2052
1630937441098,2052
1630937441102,2052
1630937441106,2052
1630937441110,2052
1630937441114,2052
1630937441118,2052
1630937441122,2052
1630937441126,2052
1630937441130,2052
1630937441134,2053
1630937441138,2053
1630937441142,2053
1630937441146,2053
1630937441150,2053
1630937441154,2053
1630937441158,2053
1630937441162,2053
1630937441166,2053
1630937441170,2053
1630937441174,2054
1630937441178,2054
1630937441182,2054
1630937441186,2054
1630937441190,2054
1630937441194,2054
1630937441198,2054
1630937441202,2054
1630937441206,2054
1630937441210,2054
1630937441214,2055
1630937441218,2056
1630937441222,2056
1630937441226,2056
1630937441230,2055
1630937441234,2055
1630937441238,2054
1630937441242,2054
1630937441246,2054
1630937441250,2055
1630937441254,2056
1630937441258,2057
1630937441262,2058
1630937441266,2058
1630937441270,2058
1630937441274,2057
1630937441278,2057
1630937441282,2057
1630937441286,2057
1630937441290,2057
1630937441294,2058
1630937441298,2058
1630937441302,2058
1630937441306,2058
1630937441310,2058
1630937441314,2057
1630937441318,2057
1630937441322,2057
1630937441326,2057
1630937441330,2057
1630937441334,2057
1630937441338,2058
1630937441342,2058
1630937441346,2058
1630937441350,2058
1630937441354,2057
1630937441358,2057
1630937441362,2056
1630937441366,2056
1630937441370,2057
1630937441374,2057
1630937441378,2057
1630937441382,2058
1630937441386,2058
1630937441390,2057
1630937441394,2057
1630937441398,2057
1630937441402,2057
1630937441406,2057
1630937441410,2057
1630937441414,2057
1630937441418,2058
1630937441422,2058
1630937441426,2058
1630937441430,2058
1630937441434,2058
1630937441438,2058
1630937441442,2058
1630937441446,2057
1630937441450,2057
1630937441454,2058
1630937441458,2058
1630937441462,2058
1630937441466,2058
1630937441470,2059
1630937441474,2058
1630937441478,2058
1630937441482,2057
1630937441486,2057
1630937441490,2057
1630937441494,2058
1630937441498,2059
1630937441502,2059
1630937441506,2059
1630937441510,2059
1630937441514,2058
1630937441518,2058
1630937441522,2058
1630937441526,2058
1630937441530,2058
1630937441534,2058
1630937441538,2058
1630937441542,2058
1630937441546,2058
1630937441550,2058
1630937441554,2057
1630937441558,2056
1630937441562,2056
1630937441566,2057
1630937441570,2057
1630937441574,2058
1630937441578,2059
1630937441582,2059
1630937441586,2059
1630937441590,2059
1630937441594,2058
1630937441598,2057
1630937441602,2057
1630937441606,2056
1630937441610,2055
1630937441614,2055
1630937441618,2056
1630937441622,2057
1630937441626,2059
1630937441630,2060
1630937441634,2061
1630937441638,2062
1630937441642,2063
1630937441646,2064
1630937441650,2064
1630937441654,2065
1630937441658,2064
1630937441662,2064
1630937441666,2062
1630937441670,2061
1630937441674,2060
1630937441678,2059
1630937441682,2058
1630937441686,2058
1630937441690,2059
1630937441694,2061
1630937441698,2062
1630937441702,2060
1630937441706,2052
1630937441710,2041
1630937441714,2028
1630937441718,2019
1630937441722,2020
1630937441726,2036
1630937441730,2066
1630937441734,2108
1630937441738,2151
1630937441742,2184
1630937441746,2195
1630937441750,2186
1630937441754,2161
1630937441758,2131
1630937441762,2106
1630937441766,2089
1630937441770,2080
1630937441774,2073
1630937441778,2067
1630937441782,2061
1630937441786,2057
1630937441790,2055
1630937441794,2055
1630937441798,2054
1630937441802,2053
1630937441806,2053
1630937441810,2052
1630937441814,2053
1630937441818,2053
1630937441822,2053
1630937441826,2053
1630937441830,2053
1630937441834,2053
1630937441838,2053
1630937441842,2053
1630937441846,2053
1630937441850,2053
1630937441854,2054
1630937441858,2054
1630937441862,2055
1630937441866,2056
1630937441870,2056
1630937441874,2057
1630937441878,2058
1630937441882,2058
1630937441886,2059
1630937441890,2059
1630937441894,2060
1630937441898,2061
1630937441902,2063
1630937441906,2064
1630937441910,2065
1630937441914,2066
1630937441918,2067
1630937441922,2068
1630937441926,2070
1630937441930,2073
1630937441934,2075
1630937441938,2077
1630937441942,2079
1630937441946,2081
1630937441950,2082
1630937441954,2083
1630937441958,2084
1630937441962,2085
1630937441966,2085
1630937441970,2086
1630937441974,2086
1630937441978,2086
1630937441982,2085
1630937441986,2082
1630937441990,2079
1630937441994,2075
1630937441998,2070
1630937442002,2066
1630937442006,2062
1630937442010,2059
1630937442014,2057
1630937442018,2054
1630937442022,2052
1630937442026,2051
1630937442030,2049
1630937442034,2048
1630937442038,2048
1630937442042,2047
1630937442046,2047
1630937442050,2047
1630937442054,2048
1630937442058,2048
1630937442062,2048
1630937442066,2048
1630937442070,2048
1630937442074,2047
1630937442078,2047
1630937442082,2046
1630937442086,2046
1630937442090,2047
1630937442094,2047
1630937442098,2048
1630937442102,2048
1630937442106,2048
1630937442110,2048
1630937442114,2047
1630937442118,2047
1630937442122,2047
1630937442126,2047
1630937442130,2047
1630937442134,2047
1630937442138,2047
1630937442142,2048
1630937442146,2048
1630937442150,2048
1630937442154,2048
1630937442158,2048
1630937442162,2048
1630937442166,2048
1630937442170,2048
1630937442174,2049
1630937442178,2050
1630937442182,2050
1630937442186,2050
1630937442190,2050
1630937442194,2050
1630937442198,2049
1630937442202,2049
1630937442206,2050
1630937442210,2050
1630937442214,2051
1630937442218,2051
1630937442222,2051
1630937442226,2051
1630937442230,2051
1630937442234,2051
1630937442238,2051
1630937442242,2051
1630937442246,2051
1630937442250,2051
1630937442254,2051
1630937442258,2051
1630937442262,2052
1630937442266,2052
1630937442270,2052
1630937442274,2051
1630937442278,2051
1630937442282,2052
1630937442286,2052
1630937442290,2053
1630937442294,2053
1630937442298,2053
1630937442302,2053
1630937442306,2053
1630937442310,2053
1630937442314,2053
1630937442318,2052
1630937442322,2052
1630937442326,2052
1630937442330,2052
1630937442334,2052
1630937442338,2053
1630937442342,2053
1630937442346,2054
1630937442350,2054
1630937442354,2053
1630937442358,2053
1630937442362,2052
1630937442366,2052
1630937442370,2053
1630937442374,2053
1630937442378,2054
1630937442382,2054
1630937442386,2054
1630937442390,2054
1630937442394,2054
1630937442398,2054
1630937442402,2054
1630937442406,2053
1630937442410,2053
1630937442414,2054
1630937442418,2054
1630937442422,2054
1630937442426,2055
1630937442430,2055
1630937442434,2054
1630937442438,2054
1630937442442,2053
1630937442446,2053
1630937442450,2054
1630937442454,2054
1630937442458,2055
1630937442462,2056
1630937442466,2056
1630937442470,2056
1630937442474,2056
1630937442478,2055
1630937442482,2055
1630937442486,2054
1630937442490,2054
1630937442494,2055
1630937442498,2055
1630937442502,2056
1630937442506,2056
1630937442510,2055
1630937442514,2055
1630937442518,2054
1630937442522,2052
1630937442526,2051
1630937442530,2051
1630937442534,2052
1630937442538,2053
1630937442542,2055
1630937442546,2057
1630937442550,2058
1630937442554,2060
1630937442558,2060
1630937442562,2061
1630937442566,2062
1630937442570,2062
1630937442574,2062
1630937442578,2061
1630937442582,2060
1630937442586,2059
1630937442590,2058
1630937442594,2057
1630937442598,2055
1630937442602,2055
1630937442606,2055
1630937442610,2057
1630937442614,2059
1630937442618,2058
1630937442622,2053
1630937442626,2043
1630937442630,2028
1630937442634,2016
1630937442638,2013
1630937442642,2024
1630937442646,2049
1630937442650,2090
1630937442654,2137
1630937442658,2176
1630937442662,2199
1630937442666,2199
1630937442670,2181
1630937442674,2152
1630937442678,2124
1630937442682,2102
1630937442686,2088
1630937442690,2077
1630937442694,2069
1630937442698,2062
1630937442702,2057
1630937442706,2054
1630937442710,2053
1630937442714,2052
1630937442718,2051
1630937442722,2050
1630937442726,2050
1630937442730,2050
1630937442734,2050
1630937442738,2050
1630937442742,2050
1630937442746,2051
1630937442750,2051
1630937442754,2052
1630937442758,2052
1630937442762,2052
1630937442766,2052
1630937442770,2053
1630937442774,2054
1630937442778,2054
1630937442782,2055
1630937442786,2056
1630937442790,2056
1630937442794,2056
1630937442798,2056
1630937442802,2056
1630937442806,2057
1630937442810,2059
1630937442814,2060
1630937442818,2062
1630937442822,2063
1630937442826,2064
1630937442830,2065
1630937442834,2066
1630937442838,2067
1630937442842,2068
1630937442846,2070
1630937442850,2072
1630937442854,2075
1630937442858,2077
1630937442862,2079
1630937442866,2081
1630937442870,2082
1630937442874,2083
1630937442878,2083
1630937442882,2084
1630937442886,2084
1630937442890,2084
1630937442894,2084
1630937442898,2083
1630937442902,2082
1630937442906,2079
1630937442910,2076
1630937442914,2072
1630937442918,2068
1630937442922,2064
1630937442926,2061
1630937442930,2058
1630937442934,2056
1630937442938,2055
1630937442942,2053
1630937442946,2052
1630937442950,2051
1630937442954,2050
1630937442958,2048
1630937442962,2048
1630937442966,2048
1630937442970,2048
1630937442974,2048
1630937442978,2049
1630937442982,2050
1630937442986,2050
1630937442990,2049
1630937442994,2049
1630937442998,2048
1630937443002,2048
1630937443006,2049
1630937443010,2049
1630937443014,2050
1630937443018,2050
1630937443022,2051
1630937443026,2051
1630937443030,2050
1630937443034,2050
1630937443038,2050
1630937443042,2050
1630937443046,2050
1630937443050,2050
1630937443054,2050
1630937443058,2051
1630937443062,2051
1630937443066,2051
1630937443070,2051
1630937443074,2051
1630937443078,2050
1630937443082,2051
1630937443086,2051
1630937443090,2052
1630937443094,2052
1630937443098,2053
1630937443102,2053
1630937443106,2053
1630937443110,2053
1630937443114,2053
1630937443118,2052
1630937443122,2052
1630937443126,2053
1630937443130,2053
1630937443134,2054
1630937443138,2055
1630937443142,2055
1630937443146,2055
1630937443150,2055
1630937443154,2055
1630937443158,2054
1630937443162,2054
1630937443166,2054
1630937443170,2054
1630937443174,2055
1630937443178,2056
1630937443182,2056
1630937443186,2056
1630937443190,2056
1630937443194,2056
1630937443198,2055
1630937443202,2055
1630937443206,2055
1630937443210,2055
1630937443214,2056
1630937443218,2056
1630937443222,2056
1630937443226,2056
1630937443230,2056
1630937443234,2056
1630937443238,2055
1630937443242,2055
1630937443246,2055
1630937443250,2055
1630937443254,2056
1630937443258,2056
1630937443262,2057
1630937443266,2057
1630937443270,2057
1630937443274,2057
1630937443278,2057
1630937443282,2056
1630937443286,2056
1630937443290,2057
1630937443294,2058
1630937443298,2058
1630937443302,2059
1630937443306,2059
1630937443310,2058
1630937443314,2058
1630937443318,2058
1630937443322,2057
1630937443326,2057
1630937443330,2057
1630937443334,2057
1630937443338,2058
1630937443342,2058
1630937443346,2059
1630937443350,2059
1630937443354,2058
1630937443358,2058
1630937443362,2058
1630937443366,2058
1630937443370,2058
1630937443374,2059
1630937443378,2059
1630937443382,2060
1630937443386,2060
1630937443390,2060
1630937443394,2059
1630937443398,2059
1630937443402,2058
1630937443406,2058
1630937443410,2058
1630937443414,2059
1630937443418,2059
1630937443422,2059
1630937443426,2059
1630937443430,2059
1630937443434,2059
1630937443438,2058
1630937443442,2058
1630937443446,2058
1630937443450,2059
1630937443454,2059
1630937443458,2059
1630937443462,2059
1630937443466,2059
1630937443470,2059
1630937443474,2058
1630937443478,2056
1630937443482,2055
1630937443486,2055
1630937443490,2056
1630937443494,2058
1630937443498,2060
1630937443502,2062
1630937443506,2064
1630937443510,2064
1630937443514,2065
1630937443518,2065
1630937443522,2065
1630937443526,2065
1630937443530,2065
1630937443534,2064
1630937443538,2064
1630937443542,2063
1630937443546,2062
1630937443550,2061
1630937443554,2060
1630937443558,2059
1630937443562,2060
1630937443566,2062
1630937443570,2063
1630937443574,2061
1630937443578,2054
1630937443582,2043
1630937443586,2029
1630937443590,2018
1630937443594,2018
1630937443598,2031
1630937443602,2060
1630937443606,2101
1630937443610,2146
1630937443614,2183
1630937443618,2203
1630937443622,2203
1630937443626,2185
1630937443630,2158
1630937443634,2131
1630937443638,2108
1630937443642,2091
1630937443646,2079
1630937443650,2069
1630937443654,2062
1630937443658,2058
1630937443662,2057
1630937443666,2056
1630937443670,2055
1630937443674,2054
1630937443678,2053
1630937443682,2053
1630937443686,2053
1630937443690,2053
1630937443694,2054
1630937443698,2054
1630937443702,2054
1630937443706,2054
1630937443710,2054
1630937443714,2054
1630937443718,2054
1630937443722,2055
1630937443726,2055
1630937443730,2056
1630937443734,2057
1630937443738,2058
1630937443742,2059
1630937443746,2059
1630937443750,2059
1630937443754,2059
1630937443758,2060
1630937443762,2061
1630937443766,2061
1630937443770,2062
1630937443774,2063
1630937443778,2064
1630937443782,2065
1630937443786,2066
1630937443790,2067
1630937443794,2069
1630937443798,2070
1630937443802,2071
1630937443806,2072
1630937443810,2074
1630937443814,2077
1630937443818,2079
1630937443822,2081
1630937443826,2082
1630937443830,2083
1630937443834,2083
1630937443838,2084
1630937443842,2084
1630937443846,2084
1630937443850,2084
1630937443854,2084
1630937443858,2082
1630937443862,2080
1630937443866,2077
1630937443870,2073
1630937443874,2069
1630937443878,2065
1630937443882,2062
1630937443886,2059
1630937443890,2057
1630937443894,2055
1630937443898,2054
1630937443902,2053
1630937443906,2052
1630937443910,2051
1630937443914,2051
1630937443918,2050
1630937443922,2049
1630937443926,2049
1630937443930,2049
1630937443934,2049
1630937443938,2050
1630937443942,2050
1630937443946,2050
1630937443950,2050
1630937443954,2049
1630937443958,2048
1630937443962,2048
1630937443966,2048
1630937443970,2048
1630937443974,2049
1630937443978,2049
1630937443982,2050
1630937443986,2050
1630937443990,2049
1630937443994,2049
1630937443998,2049
1630937444002,2049
1630937444006,2049
1630937444010,2049
1630937444014,2049
1630937444018,2049
1630937444022,2049
1630937444026,2049
1630937444030,2049
1630937444034,2048
1630937444038,2048
1630937444042,2048
1630937444046,2048
1630937444050,2048
1630937444054,2048
1630937444058,2049
1630937444062,2049
1630937444066,2049
1630937444070,2048
1630937444074,2048
1630937444078,2048
1630937444082,2048
1630937444086,2048
1630937444090,2048
1630937444094,2048
1630937444098,2048
1630937444102,2048
1630937444106,2048
1630937444110,2048
1630937444114,2048
1630937444118,2047
1630937444122,2047
1630937444126,2047
1630937444130,2047
1630937444134,2047
1630937444138,2047
1630937444142,2048
1630937444146,2048
1630937444150,2047
1630937444154,2047
1630937444158,2046
1630937444162,2046
1630937444166,2045
1630937444170,2046
1630937444174,2046
1630937444178,2046
1630937444182,2046
1630937444186,2046
1630937444190,2046
1630937444194,2045
1630937444198,2045
1630937444202,2044
1630937444206,2044
1630937444210,2044
1630937444214,2045
1630937444218,2045
1630937444222,2046
1630937444226,2046
1630937444230,2045
1630937444234,2045
1630937444238,2044
1630937444242,2043
1630937444246,2043
1630937444250,2043
1630937444254,2043
1630937444258,2043
1630937444262,2043
1630937444266,2043
1630937444270,2042
1630937444274,2042
1630937444278,2041
1630937444282,2041
1630937444286,2041
1630937444290,2041
1630937444294,2042
1630937444298,2042
1630937444302,2043
1630937444306,2043
1630937444310,2042
1630937444314,2041
1630937444318,2040
1630937444322,2040
1630937444326,2040
1630937444330,2040
1630937444334,2041
1630937444338,2041
1630937444342,2041
1630937444346,2041
1630937444350,2040
1630937444354,2039
1630937444358,2039
1630937444362,2039
1630937444366,2039
1630937444370,2038
1630937444374,2038
1630937444378,2038
1630937444382,2038
1630937444386,2038
1630937444390,2038
1630937444394,2038
1630937444398,2037
1630937444402,2037
1630937444406,2036
1630937444410,2036
1630937444414,2036
1630937444418,2036
1630937444422,2036
1630937444426,2035
1630937444430,2035
1630937444434,2034
1630937444438,2034
1630937444442,2033
1630937444446,2033
1630937444450,2033
1630937444454,2032
1630937444458,2032
1630937444462,2031
1630937444466,2032
1630937444470,2032
1630937444474,2034
1630937444478,2034
1630937444482,2035
1630937444486,2036
1630937444490,2037
1630937444494,2038
1630937444498,2038
1630937444502,2039
1630937444506,2038
1630937444510,2037
1630937444514,2035
1630937444518,2033
1630937444522,2031
1630937444526,2030
1630937444530,2029
1630937444534,2028
1630937444538,2029
1630937444542,2030
1630937444546,2032
1630937444550,2032
1630937444554,2028
1630937444558,2019
1630937444562,2006
1630937444566,1993
1630937444570,1985
1630937444574,1990
1630937444578,2008
1630937444582,2041
1630937444586,2083
1630937444590,2124
1630937444594,2154
1630937444598,2164
1630937444602,2155
1630937444606,2131
1630937444610,2103
1630937444614,2079
1630937444618,2061
1630937444622,2048
1630937444626,2039
1630937444630,2031
1630937444634,2024
1630937444638,2020
1630937444642,2019
1630937444646,2018
1630937444650,2018
1630937444654,2017
1630937444658,2017
1630937444662,2017
1630937444666,2016
1630937444670,2016
1630937444674,2016
1630937444678,2016
1630937444682,2016
1630937444686,2016
1630937444690,2016
1630937444694,2016
1630937444698,2016
1630937444702,2017
1630937444706,2016
1630937444710,2016
1630937444714,2016
1630937444718,2016
1630937444722,2016
1630937444726,2017
1630937444730,2018
1630937444734,2019
1630937444738,2020
1630937444742,2021
1630937444746,2022
1630937444750,2023
1630937444754,2024
1630937444758,2025
1630937444762,2027
1630937444766,2028
1630937444770,2029
1630937444774,2031
1630937444778,2033
1630937444782,2035
1630937444786,2036
1630937444790,2038
1630937444794,2039
1630937444798,2040
1630937444802,2042
1630937444806,2043
1630937444810,2045
1630937444814,2046
1630937444818,2047
1630937444822,2048
1630937444826,2048
1630937444830,2047
1630937444834,2045
1630937444838,2043
1630937444842,2040
1630937444846,2037
1630937444850,2033
1630937444854,2030
1630937444858,2027
1630937444862,2024
1630937444866,2022
1630937444870,2019
1630937444874,2017
1630937444878,2015
1630937444882,2014
1630937444886,2013
1630937444890,2013
1630937444894,2014
1630937444898,2015
1630937444902,2015
1630937444906,2015
1630937444910,2015
1630937444914,2014
1630937444918,2013
1630937444922,2013
1630937444926,2014
1630937444930,2014
1630937444934,2015
1630937444938,2016
1630937444942,2017
1630937444946,2017
1630937444950,2017
1630937444954,2017
1630937444958,2016
1630937444962,2016
1630937444966,2016
1630937444970,2016
1630937444974,2017
1630937444978,2018
1630937444982,2018
1630937444986,2019
1630937444990,2019
1630937444994,2019
1630937444998,2020
1630937445002,2020
1630937445006,2020
1630937445010,2020
1630937445014,2021
1630937445018,2021
1630937445022,2021
1630937445026,2021
1630937445030,2021
1630937445034,2021
1630937445038,2020
1630937445042,2020
1630937445046,2020
1630937445050,2020
1630937445054,2021
1630937445058,2021
1630937445062,2022
1630937445066,2023
1630937445070,2023
1630937445074,2023
1630937445078,2023
1630937445082,2023
1630937445086,2022
1630937445090,2023
1630937445094,2023
1630937445098,2024
1630937445102,2025
1630937445106,2026
1630937445110,2026
1630937445114,2025
1630937445118,2025
1630937445122,2025
1630937445126,2025
1630937445130,2026
1630937445134,2027
1630937445138,2028
1630937445142,2028
1630937445146,2028
1630937445150,2027
1630937445154,2027
1630937445158,2027
1630937445162,2027
1630937445166,2027
1630937445170,2028
1630937445174,2029
1630937445178,2030
1630937445182,2031
1630937445186,2031
1630937445190,2030
1630937445194,2029
1630937445198,2029
1630937445202,2029
1630937445206,2029
1630937445210,2030
1630937445214,2030
1630937445218,2031
1630937445222,2031
1630937445226,2031
1630937445230,2032
1630937445234,2032
1630937445238,2032
1630937445242,2032
1630937445246,2032
1630937445250,2032
1630937445254,2033
1630937445258,2034
1630937445262,2035
1630937445266,2036
1630937445270,2036
1630937445274,2035
1630937445278,2034
1630937445282,2034
1630937445286,2034
1630937445290,2034
1630937445294,2035
1630937445298,2035
1630937445302,2035
1630937445306,2035
1630937445310,2035
1630937445314,2034
1630937445318,2034
1630937445322,2033
1630937445326,2033
1630937445330,2033
1630937445334,2034
1630937445338,2035
