timestamp,ecg_waveform
1631192845202,2043
1631192845206,2043
1631192845210,2043
1631192845214,2043
1631192845218,2044
1631192845222,2044
1631192845226,2045
1631192845230,2045
1631192845234,2046
1631192845238,2046
1631192845242,2046
1631192845246,2046
1631192845250,2045
1631192845254,2044
1631192845258,2043
1631192845262,2043
1631192845266,2044
1631192845270,2046
1631192845274,2047
1631192845278,2048
1631192845282,2048
1631192845286,2047
1631192845290,2046
1631192845294,2046
1631192845298,2047
1631192845302,2048
1631192845306,2049
1631192845310,2049
1631192845314,2049
1631192845318,2049
1631192845322,2048
1631192845326,2048
1631192845330,2048
1631192845334,2048
1631192845338,2048
1631192845342,2048
1631192845346,2048
1631192845350,2049
1631192845354,2049
1631192845358,2050
1631192845362,2050
1631192845366,2049
1631192845370,2048
1631192845374,2048
1631192845378,2048
1631192845382,2048
1631192845386,2048
1631192845390,2049
1631192845394,2051
1631192845398,2054
1631192845402,2057
1631192845406,2059
1631192845410,2060
1631192845414,2061
1631192845418,2061
1631192845422,2061
1631192845426,2062
1631192845430,2062
1631192845434,2062
1631192845438,2060
1631192845442,2057
1631192845446,2054
1631192845450,2052
1631192845454,2051
1631192845458,2052
1631192845462,2052
1631192845466,2053
1631192845470,2053
1631192845474,2053
1631192845478,2053
1631192845482,2053
1631192845486,2053
1631192845490,2053
1631192845494,2051
1631192845498,2045
1631192845502,2035
1631192845506,2023
1631192845510,2014
1631192845514,2015
1631192845518,2032
1631192845522,2066
1631192845526,2127
1631192845530,2218
1631192845534,2333
1631192845538,2440
1631192845542,2498
1631192845546,2474
1631192845550,2368
1631192845554,2215
1631192845558,2074
1631192845562,1991
1631192845566,1975
1631192845570,2004
1631192845574,2043
1631192845578,2064
1631192845582,2064
1631192845586,2055
1631192845590,2048
1631192845594,2044
1631192845598,2043
1631192845602,2043
1631192845606,2043
1631192845610,2044
1631192845614,2045
1631192845618,2046
1631192845622,2047
1631192845626,2048
1631192845630,2049
1631192845634,2050
1631192845638,2052
1631192845642,2053
1631192845646,2054
1631192845650,2055
1631192845654,2055
1631192845658,2056
1631192845662,2057
1631192845666,2059
1631192845670,2060
1631192845674,2063
1631192845678,2065
1631192845682,2067
1631192845686,2068
1631192845690,2069
1631192845694,2070
1631192845698,2071
1631192845702,2074
1631192845706,2076
1631192845710,2080
1631192845714,2083
1631192845718,2086
1631192845722,2088
1631192845726,2091
1631192845730,2094
1631192845734,2097
1631192845738,2101
1631192845742,2104
1631192845746,2108
1631192845750,2111
1631192845754,2113
1631192845758,2116
1631192845762,2117
1631192845766,2118
1631192845770,2118
1631192845774,2118
1631192845778,2118
1631192845782,2117
1631192845786,2116
1631192845790,2113
1631192845794,2110
1631192845798,2107
1631192845802,2102
1631192845806,2096
1631192845810,2089
1631192845814,2082
1631192845818,2075
1631192845822,2069
1631192845826,2063
1631192845830,2058
1631192845834,2054
1631192845838,2050
1631192845842,2047
1631192845846,2043
1631192845850,2040
1631192845854,2037
1631192845858,2036
1631192845862,2035
1631192845866,2035
1631192845870,2035
1631192845874,2034
1631192845878,2033
1631192845882,2032
1631192845886,2031
1631192845890,2031
1631192845894,2031
1631192845898,2031
1631192845902,2031
1631192845906,2031
1631192845910,2031
1631192845914,2031
1631192845918,2032
1631192845922,2032
1631192845926,2032
1631192845930,2033
1631192845934,2033
1631192845938,2034
1631192845942,2035
1631192845946,2036
1631192845950,2037
1631192845954,2038
1631192845958,2038
1631192845962,2039
1631192845966,2040
1631192845970,2040
1631192845974,2040
1631192845978,2041
1631192845982,2041
1631192845986,2042
1631192845990,2044
1631192845994,2045
1631192845998,2045
1631192846002,2045
1631192846006,2044
1631192846010,2043
1631192846014,2043
1631192846018,2044
1631192846022,2045
1631192846026,2046
1631192846030,2046
1631192846034,2045
1631192846038,2044
1631192846042,2044
1631192846046,2043
1631192846050,2043
1631192846054,2043
1631192846058,2043
1631192846062,2044
1631192846066,2045
1631192846070,2046
1631192846074,2046
1631192846078,2046
1631192846082,2044
1631192846086,2043
1631192846090,2042
1631192846094,2042
1631192846098,2044
1631192846102,2045
1631192846106,2046
1631192846110,2046
1631192846114,2046
1631192846118,2044
1631192846122,2043
1631192846126,2043
1631192846130,2044
1631192846134,2045
1631192846138,2045
1631192846142,2046
1631192846146,2045
1631192846150,2045
1631192846154,2045
1631192846158,2046
1631192846162,2046
1631192846166,2047
1631192846170,2047
1631192846174,2047
1631192846178,2047
1631192846182,2046
1631192846186,2047
1631192846190,2047
1631192846194,2048
1631192846198,2048
1631192846202,2048
1631192846206,2048
1631192846210,2048
1631192846214,2048
1631192846218,2048
1631192846222,2048
1631192846226,2049
1631192846230,2049
1631192846234,2050
1631192846238,2049
1631192846242,2049
1631192846246,2048
1631192846250,2048
1631192846254,2048
1631192846258,2048
1631192846262,2049
1631192846266,2049
1631192846270,2048
1631192846274,2048
1631192846278,2048
1631192846282,2048
1631192846286,2048
1631192846290,2048
1631192846294,2049
1631192846298,2051
1631192846302,2054
1631192846306,2058
1631192846310,2060
1631192846314,2062
1631192846318,2062
1631192846322,2061
1631192846326,2060
1631192846330,2060
1631192846334,2059
1631192846338,2058
1631192846342,2056
1631192846346,2054
1631192846350,2052
1631192846354,2050
1631192846358,2049
1631192846362,2050
1631192846366,2050
1631192846370,2050
1631192846374,2050
1631192846378,2050
1631192846382,2051
1631192846386,2052
1631192846390,2052
1631192846394,2051
1631192846398,2045
1631192846402,2035
1631192846406,2022
1631192846410,2012
1631192846414,2012
1631192846418,2028
1631192846422,2062
1631192846426,2121
1631192846430,2210
1631192846434,2322
1631192846438,2429
1631192846442,2490
1631192846446,2472
1631192846450,2373
1631192846454,2223
1631192846458,2081
1631192846462,1994
1631192846466,1972
1631192846470,1999
1631192846474,2039
1631192846478,2063
1631192846482,2065
1631192846486,2056
1631192846490,2048
1631192846494,2043
1631192846498,2042
1631192846502,2042
1631192846506,2044
1631192846510,2045
1631192846514,2046
1631192846518,2046
1631192846522,2047
1631192846526,2047
1631192846530,2048
1631192846534,2048
1631192846538,2050
1631192846542,2051
1631192846546,2052
1631192846550,2053
1631192846554,2054
1631192846558,2055
1631192846562,2056
1631192846566,2057
1631192846570,2058
1631192846574,2059
1631192846578,2060
1631192846582,2062
1631192846586,2064
1631192846590,2067
1631192846594,2070
1631192846598,2072
1631192846602,2074
1631192846606,2075
1631192846610,2077
1631192846614,2079
1631192846618,2081
1631192846622,2083
1631192846626,2086
1631192846630,2090
1631192846634,2094
1631192846638,2097
1631192846642,2100
1631192846646,2103
1631192846650,2104
1631192846654,2106
1631192846658,2108
1631192846662,2109
1631192846666,2111
1631192846670,2111
1631192846674,2111
1631192846678,2111
1631192846682,2109
1631192846686,2106
1631192846690,2103
1631192846694,2100
1631192846698,2096
1631192846702,2092
1631192846706,2087
1631192846710,2081
1631192846714,2074
1631192846718,2068
1631192846722,2061
1631192846726,2055
1631192846730,2050
1631192846734,2046
1631192846738,2042
1631192846742,2039
1631192846746,2037
1631192846750,2036
1631192846754,2034
1631192846758,2033
1631192846762,2032
1631192846766,2031
1631192846770,2030
1631192846774,2029
1631192846778,2028
1631192846782,2028
1631192846786,2028
1631192846790,2028
1631192846794,2029
1631192846798,2029
1631192846802,2029
1631192846806,2029
1631192846810,2028
1631192846814,2028
1631192846818,2028
1631192846822,2029
1631192846826,2030
1631192846830,2031
1631192846834,2032
1631192846838,2032
1631192846842,2032
1631192846846,2032
1631192846850,2032
1631192846854,2032
1631192846858,2033
1631192846862,2033
1631192846866,2034
1631192846870,2035
1631192846874,2035
1631192846878,2036
1631192846882,2036
1631192846886,2036
1631192846890,2035
1631192846894,2036
1631192846898,2036
1631192846902,2037
1631192846906,2038
1631192846910,2038
1631192846914,2038
1631192846918,2038
1631192846922,2037
1631192846926,2037
1631192846930,2037
1631192846934,2037
1631192846938,2037
1631192846942,2038
1631192846946,2038
1631192846950,2037
1631192846954,2037
1631192846958,2036
1631192846962,2036
1631192846966,2035
1631192846970,2035
1631192846974,2035
1631192846978,2036
1631192846982,2036
1631192846986,2036
1631192846990,2036
1631192846994,2037
1631192846998,2037
1631192847002,2037
1631192847006,2036
1631192847010,2036
1631192847014,2036
1631192847018,2037
1631192847022,2037
1631192847026,2037
1631192847030,2037
1631192847034,2037
1631192847038,2038
1631192847042,2038
1631192847046,2038
1631192847050,2039
1631192847054,2039
1631192847058,2039
1631192847062,2039
1631192847066,2039
1631192847070,2039
1631192847074,2039
1631192847078,2040
1631192847082,2040
1631192847086,2040
1631192847090,2040
1631192847094,2040
1631192847098,2040
1631192847102,2040
1631192847106,2041
1631192847110,2041
1631192847114,2042
1631192847118,2042
1631192847122,2043
1631192847126,2043
1631192847130,2042
1631192847134,2042
1631192847138,2042
1631192847142,2042
1631192847146,2042
1631192847150,2043
1631192847154,2043
1631192847158,2044
1631192847162,2044
1631192847166,2043
1631192847170,2043
1631192847174,2043
1631192847178,2043
1631192847182,2043
1631192847186,2043
1631192847190,2042
1631192847194,2042
1631192847198,2041
1631192847202,2041
1631192847206,2040
1631192847210,2041
1631192847214,2042
1631192847218,2045
1631192847222,2048
1631192847226,2051
1631192847230,2054
1631192847234,2056
1631192847238,2056
1631192847242,2055
1631192847246,2054
1631192847250,2054
1631192847254,2054
1631192847258,2052
1631192847262,2050
1631192847266,2048
1631192847270,2046
1631192847274,2045
1631192847278,2044
1631192847282,2044
1631192847286,2044
1631192847290,2044
1631192847294,2044
1631192847298,2044
1631192847302,2046
1631192847306,2047
1631192847310,2048
1631192847314,2046
1631192847318,2039
1631192847322,2027
1631192847326,2012
1631192847330,2001
1631192847334,2001
1631192847338,2018
1631192847342,2055
1631192847346,2120
1631192847350,2214
1631192847354,2328
1631192847358,2436
1631192847362,2496
1631192847366,2477
1631192847370,2379
1631192847374,2234
1631192847378,2096
1631192847382,2011
1631192847386,1989
1631192847390,2011
1631192847394,2042
1631192847398,2058
1631192847402,2055
1631192847406,2045
1631192847410,2035
1631192847414,2032
1631192847418,2031
1631192847422,2031
1631192847426,2031
1631192847430,2032
1631192847434,2032
1631192847438,2032
1631192847442,2033
1631192847446,2034
1631192847450,2034
1631192847454,2035
1631192847458,2036
1631192847462,2036
1631192847466,2038
1631192847470,2039
1631192847474,2040
1631192847478,2042
1631192847482,2042
1631192847486,2043
1631192847490,2044
1631192847494,2045
1631192847498,2047
1631192847502,2048
1631192847506,2050
1631192847510,2052
1631192847514,2054
1631192847518,2056
1631192847522,2057
1631192847526,2059
1631192847530,2061
1631192847534,2063
1631192847538,2066
1631192847542,2068
1631192847546,2072
1631192847550,2075
1631192847554,2078
1631192847558,2081
1631192847562,2083
1631192847566,2085
1631192847570,2088
1631192847574,2091
1631192847578,2094
1631192847582,2096
1631192847586,2098
1631192847590,2098
1631192847594,2098
1631192847598,2098
1631192847602,2098
1631192847606,2096
1631192847610,2095
1631192847614,2092
1631192847618,2089
1631192847622,2085
1631192847626,2080
1631192847630,2075
1631192847634,2069
1631192847638,2063
1631192847642,2057
1631192847646,2051
1631192847650,2046
1631192847654,2041
1631192847658,2038
1631192847662,2036
1631192847666,2034
1631192847670,2032
1631192847674,2030
1631192847678,2028
1631192847682,2026
1631192847686,2025
1631192847690,2023
1631192847694,2023
1631192847698,2023
1631192847702,2023
1631192847706,2023
1631192847710,2023
1631192847714,2024
1631192847718,2024
1631192847722,2024
1631192847726,2023
1631192847730,2023
1631192847734,2023
1631192847738,2024
1631192847742,2024
1631192847746,2025
1631192847750,2025
1631192847754,2026
1631192847758,2026
1631192847762,2027
1631192847766,2027
1631192847770,2027
1631192847774,2027
1631192847778,2027
1631192847782,2028
1631192847786,2028
1631192847790,2029
1631192847794,2029
1631192847798,2029
1631192847802,2029
1631192847806,2029
1631192847810,2029
1631192847814,2030
1631192847818,2030
1631192847822,2031
1631192847826,2031
1631192847830,2031
1631192847834,2031
1631192847838,2031
1631192847842,2031
1631192847846,2031
1631192847850,2031
1631192847854,2031
1631192847858,2030
1631192847862,2031
1631192847866,2031
1631192847870,2031
1631192847874,2032
1631192847878,2032
1631192847882,2031
1631192847886,2031
1631192847890,2030
1631192847894,2030
1631192847898,2031
1631192847902,2032
1631192847906,2032
1631192847910,2032
1631192847914,2032
1631192847918,2032
1631192847922,2031
1631192847926,2031
1631192847930,2031
1631192847934,2032
1631192847938,2032
1631192847942,2032
1631192847946,2032
1631192847950,2033
1631192847954,2033
1631192847958,2033
1631192847962,2033
1631192847966,2033
1631192847970,2033
1631192847974,2033
1631192847978,2034
1631192847982,2034
1631192847986,2035
1631192847990,2036
1631192847994,2036
1631192847998,2037
1631192848002,2036
1631192848006,2036
1631192848010,2036
1631192848014,2035
1631192848018,2036
1631192848022,2036
1631192848026,2037
1631192848030,2038
1631192848034,2038
1631192848038,2039
1631192848042,2039
1631192848046,2039
1631192848050,2039
1631192848054,2039
1631192848058,2039
1631192848062,2039
1631192848066,2040
1631192848070,2041
1631192848074,2041
1631192848078,2042
1631192848082,2042
1631192848086,2041
1631192848090,2041
1631192848094,2041
1631192848098,2041
1631192848102,2041
1631192848106,2041
1631192848110,2042
1631192848114,2042
1631192848118,2043
1631192848122,2042
1631192848126,2042
1631192848130,2040
1631192848134,2039
1631192848138,2039
1631192848142,2039
1631192848146,2039
1631192848150,2040
1631192848154,2041
1631192848158,2042
1631192848162,2044
1631192848166,2046
1631192848170,2048
1631192848174,2051
1631192848178,2053
1631192848182,2054
1631192848186,2054
1631192848190,2054
1631192848194,2053
1631192848198,2053
1631192848202,2052
1631192848206,2049
1631192848210,2047
1631192848214,2044
1631192848218,2042
1631192848222,2042
1631192848226,2042
1631192848230,2043
1631192848234,2044
1631192848238,2044
1631192848242,2044
1631192848246,2044
1631192848250,2045
1631192848254,2045
1631192848258,2045
1631192848262,2041
1631192848266,2031
1631192848270,2019
1631192848274,2006
1631192848278,2001
1631192848282,2010
1631192848286,2036
1631192848290,2085
1631192848294,2165
1631192848298,2271
1631192848302,2387
1631192848306,2476
1631192848310,2496
1631192848314,2431
1631192848318,2299
1631192848322,2147
1631192848326,2030
1631192848330,1977
1631192848334,1983
1631192848338,2017
1631192848342,2048
1631192848346,2055
1631192848350,2049
1631192848354,2038
1631192848358,2032
1631192848362,2030
1631192848366,2030
1631192848370,2030
1631192848374,2030
1631192848378,2031
1631192848382,2031
1631192848386,2033
1631192848390,2034
1631192848394,2036
1631192848398,2037
1631192848402,2037
1631192848406,2037
1631192848410,2037
1631192848414,2039
1631192848418,2040
1631192848422,2042
1631192848426,2044
1631192848430,2045
1631192848434,2047
1631192848438,2048
1631192848442,2049
1631192848446,2050
1631192848450,2050
1631192848454,2052
1631192848458,2054
1631192848462,2056
1631192848466,2059
1631192848470,2061
1631192848474,2064
1631192848478,2066
1631192848482,2069
1631192848486,2071
1631192848490,2074
1631192848494,2077
1631192848498,2080
1631192848502,2083
1631192848506,2086
1631192848510,2089
1631192848514,2092
1631192848518,2095
1631192848522,2097
1631192848526,2099
1631192848530,2100
1631192848534,2101
1631192848538,2101
1631192848542,2102
1631192848546,2102
1631192848550,2102
1631192848554,2101
1631192848558,2099
1631192848562,2096
1631192848566,2091
1631192848570,2086
1631192848574,2080
1631192848578,2075
1631192848582,2069
1631192848586,2063
1631192848590,2058
1631192848594,2052
1631192848598,2048
1631192848602,2043
1631192848606,2038
1631192848610,2034
1631192848614,2031
1631192848618,2028
1631192848622,2026
1631192848626,2025
1631192848630,2025
1631192848634,2024
1631192848638,2024
1631192848642,2023
1631192848646,2022
1631192848650,2021
1631192848654,2021
1631192848658,2021
1631192848662,2022
1631192848666,2023
1631192848670,2024
1631192848674,2025
1631192848678,2025
1631192848682,2025
1631192848686,2024
1631192848690,2024
1631192848694,2024
1631192848698,2024
1631192848702,2025
1631192848706,2026
1631192848710,2027
1631192848714,2028
1631192848718,2028
1631192848722,2028
1631192848726,2028
1631192848730,2028
1631192848734,2028
1631192848738,2028
1631192848742,2028
1631192848746,2029
1631192848750,2029
1631192848754,2030
1631192848758,2030
1631192848762,2030
1631192848766,2030
1631192848770,2030
1631192848774,2030
1631192848778,2030
1631192848782,2031
1631192848786,2031
1631192848790,2031
1631192848794,2032
1631192848798,2032
1631192848802,2031
1631192848806,2031
1631192848810,2031
1631192848814,2031
1631192848818,2031
1631192848822,2032
1631192848826,2032
1631192848830,2032
1631192848834,2031
1631192848838,2031
1631192848842,2031
1631192848846,2031
1631192848850,2032
1631192848854,2032
1631192848858,2033
1631192848862,2033
1631192848866,2033
1631192848870,2033
1631192848874,2033
1631192848878,2033
1631192848882,2033
1631192848886,2033
1631192848890,2033
1631192848894,2033
1631192848898,2034
1631192848902,2034
1631192848906,2035
1631192848910,2035
1631192848914,2035
1631192848918,2035
1631192848922,2035
1631192848926,2035
1631192848930,2035
1631192848934,2035
1631192848938,2035
1631192848942,2035
1631192848946,2036
1631192848950,2037
1631192848954,2038
1631192848958,2038
1631192848962,2039
1631192848966,2038
1631192848970,2038
1631192848974,2038
1631192848978,2038
1631192848982,2038
1631192848986,2038
1631192848990,2039
1631192848994,2039
1631192848998,2040
1631192849002,2040
1631192849006,2040
1631192849010,2040
1631192849014,2039
1631192849018,2039
1631192849022,2039
1631192849026,2040
1631192849030,2040
1631192849034,2040
1631192849038,2040
1631192849042,2040
1631192849046,2039
1631192849050,2039
1631192849054,2039
1631192849058,2040
1631192849062,2043
1631192849066,2047
1631192849070,2051
1631192849074,2054
1631192849078,2055
1631192849082,2055
1631192849086,2053
1631192849090,2052
1631192849094,2051
1631192849098,2051
1631192849102,2051
1631192849106,2049
1631192849110,2048
1631192849114,2046
1631192849118,2044
1631192849122,2043
1631192849126,2043
1631192849130,2043
1631192849134,2043
1631192849138,2043
1631192849142,2043
1631192849146,2044
1631192849150,2046
1631192849154,2047
1631192849158,2047
1631192849162,2041
1631192849166,2031
1631192849170,2018
1631192849174,2006
1631192849178,2004
1631192849182,2016
1631192849186,2047
1631192849190,2099
1631192849194,2183
1631192849198,2291
1631192849202,2404
1631192849206,2485
1631192849210,2493
1631192849214,2416
1631192849218,2276
1631192849222,2124
1631192849226,2014
1631192849230,1970
1631192849234,1983
1631192849238,2019
1631192849242,2048
1631192849246,2054
1631192849250,2048
1631192849254,2038
1631192849258,2033
1631192849262,2033
1631192849266,2033
1631192849270,2034
1631192849274,2034
1631192849278,2034
1631192849282,2034
1631192849286,2035
1631192849290,2035
1631192849294,2037
1631192849298,2038
1631192849302,2040
1631192849306,2041
1631192849310,2042
1631192849314,2044
1631192849318,2045
1631192849322,2046
1631192849326,2047
1631192849330,2047
1631192849334,2048
1631192849338,2049
1631192849342,2051
1631192849346,2053
1631192849350,2055
1631192849354,2058
1631192849358,2060
1631192849362,2062
1631192849366,2064
1631192849370,2066
1631192849374,2068
1631192849378,2070
1631192849382,2073
1631192849386,2076
1631192849390,2080
1631192849394,2083
1631192849398,2087
1631192849402,2089
1631192849406,2092
1631192849410,2094
1631192849414,2097
1631192849418,2100
1631192849422,2102
1631192849426,2105
1631192849430,2106
1631192849434,2107
1631192849438,2108
1631192849442,2107
1631192849446,2107
1631192849450,2106
1631192849454,2104
1631192849458,2102
1631192849462,2098
1631192849466,2094
1631192849470,2089
1631192849474,2083
1631192849478,2077
1631192849482,2069
1631192849486,2062
1631192849490,2055
1631192849494,2050
1631192849498,2046
1631192849502,2043
1631192849506,2039
1631192849510,2036
1631192849514,2033
1631192849518,2030
1631192849522,2028
1631192849526,2027
1631192849530,2026
1631192849534,2025
1631192849538,2025
1631192849542,2024
1631192849546,2024
1631192849550,2024
1631192849554,2024
1631192849558,2024
1631192849562,2024
1631192849566,2024
1631192849570,2024
1631192849574,2024
1631192849578,2025
1631192849582,2026
1631192849586,2027
1631192849590,2029
1631192849594,2029
1631192849598,2029
1631192849602,2029
1631192849606,2028
1631192849610,2028
1631192849614,2028
1631192849618,2028
1631192849622,2029
1631192849626,2030
1631192849630,2031
1631192849634,2031
1631192849638,2031
1631192849642,2031
1631192849646,2031
1631192849650,2031
1631192849654,2031
1631192849658,2031
1631192849662,2032
1631192849666,2033
1631192849670,2033
1631192849674,2033
1631192849678,2033
1631192849682,2033
1631192849686,2033
1631192849690,2032
1631192849694,2032
1631192849698,2032
1631192849702,2033
1631192849706,2033
1631192849710,2033
1631192849714,2033
1631192849718,2033
1631192849722,2033
1631192849726,2033
1631192849730,2033
1631192849734,2033
1631192849738,2033
1631192849742,2034
1631192849746,2034
1631192849750,2035
1631192849754,2035
1631192849758,2035
1631192849762,2035
1631192849766,2034
1631192849770,2035
1631192849774,2035
1631192849778,2035
1631192849782,2035
1631192849786,2036
1631192849790,2036
1631192849794,2037
1631192849798,2037
1631192849802,2037
1631192849806,2037
1631192849810,2037
1631192849814,2037
1631192849818,2037
1631192849822,2038
1631192849826,2038
1631192849830,2038
1631192849834,2038
1631192849838,2039
1631192849842,2039
1631192849846,2040
1631192849850,2041
1631192849854,2041
1631192849858,2041
1631192849862,2040
1631192849866,2041
1631192849870,2041
1631192849874,2041
1631192849878,2042
1631192849882,2042
1631192849886,2041
1631192849890,2040
1631192849894,2039
1631192849898,2039
1631192849902,2039
1631192849906,2039
1631192849910,2040
1631192849914,2041
1631192849918,2043
1631192849922,2046
1631192849926,2050
1631192849930,2054
1631192849934,2056
1631192849938,2057
1631192849942,2056
1631192849946,2055
1631192849950,2054
1631192849954,2054
1631192849958,2054
1631192849962,2052
1631192849966,2049
1631192849970,2047
1631192849974,2045
1631192849978,2044
1631192849982,2044
1631192849986,2044
1631192849990,2044
1631192849994,2044
1631192849998,2045
1631192850002,2045
1631192850006,2046
1631192850010,2046
1631192850014,2046
1631192850018,2044
1631192850022,2038
1631192850026,2028
1631192850030,2016
1631192850034,2007
1631192850038,2010
1631192850042,2028
1631192850046,2065
1631192850050,2131
1631192850054,2226
1631192850058,2340
1631192850062,2444
1631192850066,2497
1631192850070,2467
1631192850074,2359
1631192850078,2206
1631192850082,2067
1631192850086,1985
1631192850090,1969
1631192850094,1998
1631192850098,2036
1631192850102,2055
1631192850106,2056
1631192850110,2047
1631192850114,2039
1631192850118,2036
1631192850122,2035
1631192850126,2036
1631192850130,2036
1631192850134,2037
1631192850138,2038
1631192850142,2039
1631192850146,2039
1631192850150,2040
1631192850154,2041
1631192850158,2042
1631192850162,2043
1631192850166,2044
1631192850170,2045
1631192850174,2046
1631192850178,2048
1631192850182,2048
1631192850186,2050
1631192850190,2052
1631192850194,2054
1631192850198,2055
1631192850202,2056
1631192850206,2057
1631192850210,2059
1631192850214,2061
1631192850218,2064
1631192850222,2067
1631192850226,2070
1631192850230,2072
1631192850234,2075
1631192850238,2077
1631192850242,2079
1631192850246,2081
1631192850250,2083
1631192850254,2087
1631192850258,2090
1631192850262,2094
1631192850266,2098
1631192850270,2102
1631192850274,2105
1631192850278,2107
1631192850282,2109
1631192850286,2110
1631192850290,2110
1631192850294,2111
1631192850298,2111
1631192850302,2111
1631192850306,2111
1631192850310,2110
1631192850314,2108
1631192850318,2105
1631192850322,2099
1631192850326,2092
1631192850330,2085
1631192850334,2079
1631192850338,2072
1631192850342,2067
1631192850346,2062
1631192850350,2057
1631192850354,2052
1631192850358,2048
1631192850362,2043
1631192850366,2039
1631192850370,2035
1631192850374,2033
1631192850378,2031
1631192850382,2030
1631192850386,2029
1631192850390,2029
1631192850394,2029
1631192850398,2029
1631192850402,2028
1631192850406,2027
1631192850410,2026
1631192850414,2025
1631192850418,2025
1631192850422,2026
1631192850426,2026
1631192850430,2027
1631192850434,2028
1631192850438,2029
1631192850442,2029
1631192850446,2029
1631192850450,2029
1631192850454,2030
1631192850458,2030
1631192850462,2030
1631192850466,2030
1631192850470,2030
1631192850474,2031
1631192850478,2031
1631192850482,2032
1631192850486,2033
1631192850490,2033
1631192850494,2033
1631192850498,2032
1631192850502,2032
1631192850506,2033
1631192850510,2034
1631192850514,2035
1631192850518,2035
1631192850522,2035
1631192850526,2034
1631192850530,2034
1631192850534,2034
1631192850538,2034
1631192850542,2035
1631192850546,2035
1631192850550,2035
1631192850554,2035
1631192850558,2035
1631192850562,2035
1631192850566,2035
1631192850570,2035
1631192850574,2035
1631192850578,2034
1631192850582,2034
1631192850586,2034
1631192850590,2035
1631192850594,2035
1631192850598,2035
1631192850602,2035
1631192850606,2035
1631192850610,2035
1631192850614,2035
1631192850618,2035
1631192850622,2036
1631192850626,2036
1631192850630,2036
1631192850634,2036
1631192850638,2036
1631192850642,2037
1631192850646,2037
1631192850650,2037
1631192850654,2037
1631192850658,2037
1631192850662,2037
1631192850666,2037
1631192850670,2037
1631192850674,2038
1631192850678,2038
1631192850682,2038
1631192850686,2038
1631192850690,2038
1631192850694,2039
1631192850698,2039
1631192850702,2040
1631192850706,2040
1631192850710,2041
1631192850714,2041
1631192850718,2041
1631192850722,2041
1631192850726,2041
1631192850730,2040
1631192850734,2040
1631192850738,2041
1631192850742,2041
1631192850746,2041
1631192850750,2042
1631192850754,2042
1631192850758,2042
1631192850762,2043
1631192850766,2043
1631192850770,2043
1631192850774,2043
1631192850778,2043
1631192850782,2042
1631192850786,2042
1631192850790,2041
1631192850794,2041
1631192850798,2041
1631192850802,2042
1631192850806,2043
1631192850810,2045
1631192850814,2048
1631192850818,2051
1631192850822,2055
1631192850826,2057
1631192850830,2058
1631192850834,2057
1631192850838,2056
1631192850842,2055
1631192850846,2054
1631192850850,2053
1631192850854,2051
1631192850858,2048
1631192850862,2047
1631192850866,2045
1631192850870,2045
1631192850874,2045
1631192850878,2045
1631192850882,2045
1631192850886,2045
1631192850890,2045
1631192850894,2045
1631192850898,2046
1631192850902,2047
1631192850906,2048
1631192850910,2045
1631192850914,2038
1631192850918,2026
1631192850922,2014
1631192850926,2005
1631192850930,2008
1631192850934,2028
1631192850938,2066
1631192850942,2135
1631192850946,2233
1631192850950,2349
1631192850954,2452
1631192850958,2500
1631192850962,2463
1631192850966,2349
1631192850970,2195
1631192850974,2058
1631192850978,1983
1631192850982,1971
1631192850986,2002
1631192850990,2038
1631192850994,2055
1631192850998,2054
1631192851002,2045
1631192851006,2036
1631192851010,2033
1631192851014,2033
1631192851018,2033
1631192851022,2034
1631192851026,2035
1631192851030,2036
1631192851034,2037
1631192851038,2038
1631192851042,2039
1631192851046,2039
1631192851050,2040
1631192851054,2041
1631192851058,2042
1631192851062,2043
1631192851066,2045
1631192851070,2046
1631192851074,2048
1631192851078,2048
1631192851082,2049
1631192851086,2050
1631192851090,2052
1631192851094,2053
1631192851098,2054
1631192851102,2056
1631192851106,2058
1631192851110,2061
1631192851114,2063
1631192851118,2066
1631192851122,2068
1631192851126,2070
1631192851130,2072
1631192851134,2074
1631192851138,2077
1631192851142,2081
1631192851146,2084
1631192851150,2088
1631192851154,2091
1631192851158,2094
1631192851162,2097
1631192851166,2099
1631192851170,2101
1631192851174,2103
1631192851178,2105
1631192851182,2106
1631192851186,2107
1631192851190,2108
1631192851194,2108
1631192851198,2107
1631192851202,2106
1631192851206,2103
1631192851210,2099
1631192851214,2095
1631192851218,2089
1631192851222,2084
1631192851226,2079
1631192851230,2073
1631192851234,2067
1631192851238,2061
1631192851242,2055
1631192851246,2049
1631192851250,2045
1631192851254,2041
1631192851258,2037
1631192851262,2034
1631192851266,2032
1631192851270,2031
1631192851274,2029
1631192851278,2028
1631192851282,2027
1631192851286,2026
1631192851290,2025
1631192851294,2024
1631192851298,2024
1631192851302,2025
1631192851306,2025
1631192851310,2026
1631192851314,2026
1631192851318,2026
1631192851322,2026
1631192851326,2025
1631192851330,2025
1631192851334,2026
1631192851338,2026
1631192851342,2027
1631192851346,2028
1631192851350,2029
1631192851354,2030
1631192851358,2030
1631192851362,2030
1631192851366,2029
1631192851370,2029
1631192851374,2029
1631192851378,2030
1631192851382,2031
1631192851386,2033
1631192851390,2034
1631192851394,2034
1631192851398,2034
1631192851402,2033
1631192851406,2033
1631192851410,2032
1631192851414,2032
1631192851418,2032
1631192851422,2033
1631192851426,2034
1631192851430,2034
1631192851434,2035
1631192851438,2034
1631192851442,2033
1631192851446,2032
1631192851450,2032
1631192851454,2031
1631192851458,2031
1631192851462,2032
1631192851466,2033
1631192851470,2035
1631192851474,2036
1631192851478,2036
1631192851482,2035
1631192851486,2034
1631192851490,2033
1631192851494,2032
1631192851498,2032
1631192851502,2032
1631192851506,2032
1631192851510,2033
1631192851514,2034
1631192851518,2034
1631192851522,2035
1631192851526,2035
1631192851530,2034
1631192851534,2034
1631192851538,2033
1631192851542,2033
1631192851546,2034
1631192851550,2034
1631192851554,2036
1631192851558,2036
1631192851562,2037
1631192851566,2037
1631192851570,2036
1631192851574,2036
1631192851578,2035
1631192851582,2036
1631192851586,2036
1631192851590,2037
1631192851594,2037
1631192851598,2038
1631192851602,2038
1631192851606,2038
1631192851610,2038
1631192851614,2037
1631192851618,2037
1631192851622,2037
1631192851626,2038
1631192851630,2039
1631192851634,2040
1631192851638,2040
1631192851642,2040
1631192851646,2040
1631192851650,2040
1631192851654,2040
1631192851658,2040
1631192851662,2040
1631192851666,2041
1631192851670,2041
1631192851674,2042
1631192851678,2042
1631192851682,2041
1631192851686,2041
1631192851690,2040
1631192851694,2041
1631192851698,2041
1631192851702,2041
1631192851706,2042
1631192851710,2042
1631192851714,2042
1631192851718,2042
1631192851722,2042
1631192851726,2042
1631192851730,2041
1631192851734,2042
1631192851738,2041
1631192851742,2041
1631192851746,2041
1631192851750,2040
1631192851754,2040
1631192851758,2041
1631192851762,2041
1631192851766,2042
1631192851770,2044
1631192851774,2047
1631192851778,2050
1631192851782,2053
1631192851786,2055
1631192851790,2056
1631192851794,2055
1631192851798,2054
1631192851802,2054
1631192851806,2053
1631192851810,2052
1631192851814,2050
1631192851818,2048
1631192851822,2045
1631192851826,2044
1631192851830,2044
1631192851834,2044
1631192851838,2045
1631192851842,2045
1631192851846,2044
1631192851850,2044
1631192851854,2044
1631192851858,2045
1631192851862,2046
1631192851866,2047
1631192851870,2045
1631192851874,2038
1631192851878,2027
1631192851882,2014
1631192851886,2004
1631192851890,2006
1631192851894,2024
1631192851898,2062
1631192851902,2130
1631192851906,2227
1631192851910,2344
1631192851914,2450
1631192851918,2502
1631192851922,2472
1631192851926,2361
1631192851930,2207
1631192851934,2068
1631192851938,1986
1631192851942,1969
1631192851946,1998
1631192851950,2035
1631192851954,2054
1631192851958,2054
1631192851962,2045
1631192851966,2036
1631192851970,2032
1631192851974,2032
1631192851978,2032
1631192851982,2033
1631192851986,2034
1631192851990,2035
1631192851994,2036
1631192851998,2037
1631192852002,2038
1631192852006,2038
1631192852010,2038
1631192852014,2039
1631192852018,2039
1631192852022,2041
1631192852026,2043
1631192852030,2045
1631192852034,2047
1631192852038,2048
1631192852042,2048
1631192852046,2048
1631192852050,2048
1631192852054,2050
1631192852058,2052
1631192852062,2055
1631192852066,2058
1631192852070,2060
1631192852074,2062
1631192852078,2064
1631192852082,2066
1631192852086,2068
1631192852090,2070
1631192852094,2072
1631192852098,2075
1631192852102,2078
1631192852106,2081
1631192852110,2084
1631192852114,2088
1631192852118,2091
1631192852122,2093
1631192852126,2096
1631192852130,2097
1631192852134,2099
1631192852138,2101
1631192852142,2102
1631192852146,2103
1631192852150,2104
1631192852154,2104
1631192852158,2104
1631192852162,2102
1631192852166,2100
1631192852170,2097
1631192852174,2093
1631192852178,2089
1631192852182,2084
1631192852186,2079
1631192852190,2073
1631192852194,2067
1631192852198,2061
1631192852202,2055
1631192852206,2049
1631192852210,2045
1631192852214,2041
1631192852218,2037
1631192852222,2034
1631192852226,2032
1631192852230,2030
1631192852234,2029
1631192852238,2027
1631192852242,2026
1631192852246,2024
1631192852250,2023
1631192852254,2023
1631192852258,2022
1631192852262,2022
1631192852266,2023
1631192852270,2023
1631192852274,2024
1631192852278,2024
1631192852282,2024
1631192852286,2023
1631192852290,2023
1631192852294,2023
1631192852298,2024
1631192852302,2025
1631192852306,2026
1631192852310,2027
1631192852314,2028
1631192852318,2028
1631192852322,2028
1631192852326,2028
1631192852330,2028
1631192852334,2028
1631192852338,2028
1631192852342,2029
1631192852346,2030
1631192852350,2031
1631192852354,2031
1631192852358,2031
1631192852362,2031
1631192852366,2030
1631192852370,2030
1631192852374,2030
1631192852378,2031
1631192852382,2031
1631192852386,2032
1631192852390,2032
1631192852394,2033
1631192852398,2033
1631192852402,2033
1631192852406,2033
1631192852410,2032
1631192852414,2032
1631192852418,2032
1631192852422,2032
1631192852426,2032
1631192852430,2033
1631192852434,2033
1631192852438,2033
1631192852442,2032
1631192852446,2032
1631192852450,2031
1631192852454,2031
1631192852458,2031
1631192852462,2031
1631192852466,2032
1631192852470,2033
1631192852474,2034
1631192852478,2035
1631192852482,2035
1631192852486,2034
1631192852490,2033
1631192852494,2033
1631192852498,2032
1631192852502,2033
1631192852506,2034
1631192852510,2035
1631192852514,2035
1631192852518,2036
1631192852522,2035
1631192852526,2035
1631192852530,2035
1631192852534,2035
1631192852538,2035
1631192852542,2036
1631192852546,2036
1631192852550,2036
1631192852554,2037
1631192852558,2038
1631192852562,2039
1631192852566,2039
1631192852570,2039
1631192852574,2039
1631192852578,2039
1631192852582,2039
1631192852586,2040
1631192852590,2040
1631192852594,2040
1631192852598,2040
1631192852602,2040
1631192852606,2041
1631192852610,2041
1631192852614,2041
1631192852618,2040
1631192852622,2040
1631192852626,2040
1631192852630,2041
1631192852634,2042
1631192852638,2043
1631192852642,2043
1631192852646,2043
1631192852650,2043
1631192852654,2043
1631192852658,2042
1631192852662,2043
1631192852666,2043
1631192852670,2044
1631192852674,2044
1631192852678,2044
1631192852682,2044
1631192852686,2044
1631192852690,2044
1631192852694,2043
1631192852698,2043
1631192852702,2043
1631192852706,2043
1631192852710,2044
1631192852714,2045
1631192852718,2046
1631192852722,2046
1631192852726,2046
1631192852730,2046
1631192852734,2046
1631192852738,2045
1631192852742,2045
1631192852746,2045
1631192852750,2046
1631192852754,2047
1631192852758,2047
1631192852762,2047
1631192852766,2046
1631192852770,2046
1631192852774,2045
1631192852778,2045
1631192852782,2045
1631192852786,2044
1631192852790,2044
1631192852794,2045
1631192852798,2045
1631192852802,2046
1631192852806,2048
1631192852810,2050
1631192852814,2052
1631192852818,2055
1631192852822,2058
1631192852826,2059
1631192852830,2059
1631192852834,2059
1631192852838,2059
1631192852842,2057
1631192852846,2056
1631192852850,2053
1631192852854,2050
1631192852858,2048
1631192852862,2048
1631192852866,2047
1631192852870,2047
1631192852874,2048
1631192852878,2048
1631192852882,2048
1631192852886,2048
1631192852890,2048
1631192852894,2048
1631192852898,2048
1631192852902,2048
1631192852906,2048
1631192852910,2042
1631192852914,2033
1631192852918,2020
1631192852922,2009
1631192852926,2009
1631192852930,2023
1631192852934,2057
1631192852938,2117
1631192852942,2208
1631192852946,2323
1631192852950,2435
1631192852954,2504
1631192852958,2494
1631192852962,2399
1631192852966,2250
1631192852970,2101
1631192852974,2003
1631192852978,1972
1631192852982,1993
1631192852986,2030
1631192852990,2054
1631192852994,2058
1631192852998,2050
1631192853002,2041
1631192853006,2036
1631192853010,2035
1631192853014,2035
1631192853018,2035
1631192853022,2036
1631192853026,2037
1631192853030,2037
1631192853034,2038
1631192853038,2039
1631192853042,2040
1631192853046,2040
1631192853050,2041
1631192853054,2041
1631192853058,2042
1631192853062,2044
1631192853066,2046
1631192853070,2048
1631192853074,2049
1631192853078,2050
1631192853082,2051
1631192853086,2051
1631192853090,2052
1631192853094,2054
1631192853098,2056
1631192853102,2059
1631192853106,2062
1631192853110,2064
1631192853114,2066
1631192853118,2067
1631192853122,2069
1631192853126,2071
1631192853130,2073
1631192853134,2075
1631192853138,2078
1631192853142,2082
1631192853146,2085
1631192853150,2088
1631192853154,2091
1631192853158,2094
1631192853162,2097
1631192853166,2099
1631192853170,2100
1631192853174,2102
1631192853178,2103
1631192853182,2104
1631192853186,2106
1631192853190,2106
1631192853194,2106
1631192853198,2106
1631192853202,2104
1631192853206,2102
1631192853210,2098
1631192853214,2094
1631192853218,2089
1631192853222,2084
1631192853226,2079
1631192853230,2073
1631192853234,2068
1631192853238,2062
1631192853242,2057
1631192853246,2051
1631192853250,2047
1631192853254,2043
1631192853258,2039
1631192853262,2036
1631192853266,2034
1631192853270,2032
1631192853274,2031
1631192853278,2030
1631192853282,2029
1631192853286,2028
1631192853290,2027
1631192853294,2027
1631192853298,2026
1631192853302,2026
1631192853306,2026
1631192853310,2026
1631192853314,2026
1631192853318,2026
1631192853322,2027
1631192853326,2027
1631192853330,2027
1631192853334,2028
1631192853338,2028
1631192853342,2028
1631192853346,2029
1631192853350,2029
1631192853354,2030
1631192853358,2030
1631192853362,2031
1631192853366,2031
1631192853370,2031
1631192853374,2031
1631192853378,2032
1631192853382,2032
1631192853386,2033
1631192853390,2033
1631192853394,2034
1631192853398,2034
1631192853402,2034
1631192853406,2034
1631192853410,2033
1631192853414,2033
1631192853418,2033
1631192853422,2033
1631192853426,2034
1631192853430,2035
1631192853434,2035
1631192853438,2035
1631192853442,2035
1631192853446,2034
1631192853450,2034
1631192853454,2033
1631192853458,2033
1631192853462,2033
1631192853466,2034
1631192853470,2034
1631192853474,2035
1631192853478,2035
1631192853482,2034
1631192853486,2034
1631192853490,2033
1631192853494,2032
1631192853498,2032
1631192853502,2033
1631192853506,2034
1631192853510,2035
1631192853514,2036
1631192853518,2036
1631192853522,2035
1631192853526,2034
1631192853530,2034
1631192853534,2034
1631192853538,2034
1631192853542,2035
1631192853546,2035
1631192853550,2036
1631192853554,2036
1631192853558,2037
1631192853562,2037
1631192853566,2037
1631192853570,2036
1631192853574,2036
1631192853578,2036
1631192853582,2036
1631192853586,2037
1631192853590,2038
1631192853594,2039
1631192853598,2040
1631192853602,2040
1631192853606,2039
1631192853610,2039
1631192853614,2038
1631192853618,2038
1631192853622,2038
1631192853626,2038
1631192853630,2039
1631192853634,2040
1631192853638,2041
1631192853642,2041
1631192853646,2041
1631192853650,2041
1631192853654,2041
1631192853658,2040
1631192853662,2040
1631192853666,2040
1631192853670,2041
1631192853674,2042
1631192853678,2043
1631192853682,2043
1631192853686,2043
1631192853690,2042
1631192853694,2041
1631192853698,2041
1631192853702,2041
1631192853706,2042
1631192853710,2043
1631192853714,2043
1631192853718,2044
1631192853722,2043
1631192853726,2043
1631192853730,2043
1631192853734,2043
1631192853738,2042
1631192853742,2042
1631192853746,2043
1631192853750,2043
1631192853754,2044
1631192853758,2045
1631192853762,2045
1631192853766,2045
1631192853770,2044
1631192853774,2044
1631192853778,2044
1631192853782,2044
1631192853786,2045
1631192853790,2045
1631192853794,2045
1631192853798,2045
1631192853802,2046
1631192853806,2046
1631192853810,2046
1631192853814,2045
1631192853818,2044
1631192853822,2042
1631192853826,2042
1631192853830,2042
1631192853834,2043
1631192853838,2044
1631192853842,2045
1631192853846,2046
1631192853850,2048
1631192853854,2050
1631192853858,2053
1631192853862,2056
1631192853866,2058
1631192853870,2058
1631192853874,2057
1631192853878,2056
1631192853882,2056
1631192853886,2055
1631192853890,2053
1631192853894,2051
1631192853898,2048
1631192853902,2046
1631192853906,2045
1631192853910,2045
1631192853914,2045
1631192853918,2046
1631192853922,2046
1631192853926,2047
1631192853930,2047
1631192853934,2047
1631192853938,2047
1631192853942,2048
1631192853946,2048
1631192853950,2043
1631192853954,2035
1631192853958,2023
1631192853962,2010
1631192853966,2006
1631192853970,2016
1631192853974,2045
1631192853978,2098
1631192853982,2183
1631192853986,2293
1631192853990,2410
1631192853994,2493
1631192853998,2504
1631192854002,2428
1631192854006,2286
1631192854010,2131
1631192854014,2018
1631192854018,1971
1631192854022,1983
1631192854026,2020
1631192854030,2050
1631192854034,2057
1631192854038,2051
1631192854042,2041
1631192854046,2035
1631192854050,2033
1631192854054,2032
1631192854058,2033
1631192854062,2034
1631192854066,2035
1631192854070,2037
1631192854074,2038
1631192854078,2039
1631192854082,2039
1631192854086,2040
1631192854090,2040
1631192854094,2041
1631192854098,2042
1631192854102,2043
1631192854106,2045
1631192854110,2047
1631192854114,2048
1631192854118,2049
1631192854122,2050
1631192854126,2050
1631192854130,2051
1631192854134,2052
1631192854138,2054
1631192854142,2057
1631192854146,2059
1631192854150,2062
1631192854154,2064
1631192854158,2066
1631192854162,2068
1631192854166,2070
1631192854170,2072
1631192854174,2074
1631192854178,2077
1631192854182,2081
1631192854186,2084
1631192854190,2088
1631192854194,2091
1631192854198,2094
1631192854202,2097
1631192854206,2099
1631192854210,2101
1631192854214,2103
1631192854218,2104
1631192854222,2105
1631192854226,2106
1631192854230,2107
1631192854234,2107
1631192854238,2106
1631192854242,2105
1631192854246,2103
1631192854250,2099
1631192854254,2094
1631192854258,2089
1631192854262,2084
1631192854266,2079
1631192854270,2074
1631192854274,2069
1631192854278,2064
1631192854282,2058
1631192854286,2052
1631192854290,2047
1631192854294,2043
1631192854298,2039
1631192854302,2036
1631192854306,2034
1631192854310,2033
1631192854314,2031
1631192854318,2029
1631192854322,2027
1631192854326,2026
1631192854330,2025
1631192854334,2025
1631192854338,2025
1631192854342,2025
1631192854346,2026
1631192854350,2026
1631192854354,2026
1631192854358,2027
1631192854362,2026
1631192854366,2026
1631192854370,2026
1631192854374,2026
1631192854378,2026
1631192854382,2027
1631192854386,2027
1631192854390,2028
1631192854394,2029
1631192854398,2029
1631192854402,2029
1631192854406,2029
1631192854410,2029
1631192854414,2030
1631192854418,2030
1631192854422,2031
1631192854426,2032
1631192854430,2033
1631192854434,2033
1631192854438,2033
1631192854442,2033
1631192854446,2033
1631192854450,2033
1631192854454,2034
1631192854458,2034
1631192854462,2035
1631192854466,2035
1631192854470,2035
1631192854474,2035
1631192854478,2034
1631192854482,2034
1631192854486,2034
1631192854490,2034
1631192854494,2034
1631192854498,2034
1631192854502,2034
1631192854506,2034
1631192854510,2034
1631192854514,2034
1631192854518,2034
1631192854522,2034
1631192854526,2033
1631192854530,2033
1631192854534,2033
1631192854538,2033
1631192854542,2033
1631192854546,2034
1631192854550,2035
1631192854554,2035
1631192854558,2035
1631192854562,2035
1631192854566,2035
1631192854570,2034
1631192854574,2034
1631192854578,2034
1631192854582,2034
1631192854586,2035
1631192854590,2035
1631192854594,2036
1631192854598,2036
1631192854602,2036
1631192854606,2036
1631192854610,2036
1631192854614,2036
1631192854618,2036
1631192854622,2037
1631192854626,2037
1631192854630,2037
1631192854634,2038
1631192854638,2038
1631192854642,2038
1631192854646,2038
1631192854650,2038
1631192854654,2038
1631192854658,2038
1631192854662,2038
1631192854666,2039
1631192854670,2039
1631192854674,2040
1631192854678,2040
1631192854682,2041
1631192854686,2040
1631192854690,2040
1631192854694,2039
1631192854698,2039
1631192854702,2040
1631192854706,2041
1631192854710,2041
1631192854714,2042
1631192854718,2042
1631192854722,2042
1631192854726,2042
1631192854730,2042
1631192854734,2041
1631192854738,2041
1631192854742,2041
1631192854746,2042
1631192854750,2043
1631192854754,2044
1631192854758,2044
1631192854762,2043
1631192854766,2043
1631192854770,2042
1631192854774,2043
1631192854778,2043
1631192854782,2043
1631192854786,2043
1631192854790,2043
1631192854794,2044
1631192854798,2044
1631192854802,2044
1631192854806,2044
1631192854810,2044
1631192854814,2044
1631192854818,2044
1631192854822,2045
1631192854826,2045
1631192854830,2046
1631192854834,2046
1631192854838,2045
1631192854842,2045
1631192854846,2044
1631192854850,2043
1631192854854,2043
1631192854858,2043
1631192854862,2043
1631192854866,2043
1631192854870,2044
1631192854874,2045
1631192854878,2047
1631192854882,2048
1631192854886,2051
1631192854890,2054
1631192854894,2056
1631192854898,2057
1631192854902,2057
1631192854906,2057
1631192854910,2057
1631192854914,2056
1631192854918,2055
1631192854922,2052
1631192854926,2049
1631192854930,2047
1631192854934,2045
1631192854938,2044
1631192854942,2045
1631192854946,2046
1631192854950,2047
1631192854954,2047
1631192854958,2046
1631192854962,2046
1631192854966,2046
1631192854970,2047
1631192854974,2047
1631192854978,2045
1631192854982,2037
1631192854986,2026
1631192854990,2013
1631192854994,2006
1631192854998,2011
1631192855002,2034
1631192855006,2077
1631192855010,2151
1631192855014,2254
1631192855018,2372
1631192855022,2472
1631192855026,2510
1631192855030,2462
1631192855034,2338
1631192855038,2182
1631192855042,2049
1631192855046,1980
1631192855050,1975
1631192855054,2007
1631192855058,2042
1631192855062,2056
1631192855066,2054
1631192855070,2044
1631192855074,2037
1631192855078,2035
1631192855082,2034
1631192855086,2034
1631192855090,2035
1631192855094,2035
1631192855098,2035
1631192855102,2036
1631192855106,2037
1631192855110,2039
1631192855114,2040
1631192855118,2041
1631192855122,2042
1631192855126,2043
1631192855130,2043
1631192855134,2044
1631192855138,2045
1631192855142,2046
1631192855146,2048
1631192855150,2049
1631192855154,2050
1631192855158,2052
1631192855162,2053
1631192855166,2054
1631192855170,2056
1631192855174,2057
1631192855178,2059
1631192855182,2062
1631192855186,2065
1631192855190,2068
1631192855194,2070
1631192855198,2073
1631192855202,2075
1631192855206,2077
1631192855210,2080
1631192855214,2082
1631192855218,2085
1631192855222,2089
1631192855226,2092
1631192855230,2096
1631192855234,2099
1631192855238,2101
1631192855242,2102
1631192855246,2103
1631192855250,2104
1631192855254,2106
1631192855258,2107
1631192855262,2107
1631192855266,2107
1631192855270,2106
1631192855274,2105
1631192855278,2102
1631192855282,2098
1631192855286,2093
1631192855290,2088
1631192855294,2082
1631192855298,2075
1631192855302,2069
1631192855306,2063
1631192855310,2057
1631192855314,2052
1631192855318,2048
1631192855322,2044
1631192855326,2041
1631192855330,2037
1631192855334,2034
1631192855338,2031
1631192855342,2029
1631192855346,2027
1631192855350,2027
1631192855354,2027
1631192855358,2026
1631192855362,2025
1631192855366,2024
1631192855370,2023
1631192855374,2023
1631192855378,2023
1631192855382,2024
1631192855386,2024
1631192855390,2024
1631192855394,2024
1631192855398,2024
1631192855402,2025
1631192855406,2026
1631192855410,2026
1631192855414,2026
1631192855418,2026
1631192855422,2026
1631192855426,2027
1631192855430,2027
1631192855434,2028
1631192855438,2029
1631192855442,2029
1631192855446,2030
1631192855450,2030
1631192855454,2030
1631192855458,2030
1631192855462,2030
1631192855466,2031
1631192855470,2031
1631192855474,2032
1631192855478,2032
1631192855482,2033
1631192855486,2033
1631192855490,2033
1631192855494,2032
1631192855498,2032
1631192855502,2032
1631192855506,2032
1631192855510,2033
1631192855514,2034
1631192855518,2034
1631192855522,2034
1631192855526,2033
1631192855530,2033
1631192855534,2032
1631192855538,2032
1631192855542,2032
1631192855546,2032
1631192855550,2033
1631192855554,2033
1631192855558,2033
1631192855562,2033
1631192855566,2033
1631192855570,2032
1631192855574,2032
1631192855578,2031
1631192855582,2032
1631192855586,2033
1631192855590,2033
1631192855594,2034
1631192855598,2034
1631192855602,2034
1631192855606,2033
1631192855610,2033
1631192855614,2033
1631192855618,2034
1631192855622,2034
1631192855626,2035
1631192855630,2035
1631192855634,2035
1631192855638,2035
1631192855642,2035
1631192855646,2035
1631192855650,2035
1631192855654,2036
1631192855658,2036
1631192855662,2037
1631192855666,2038
1631192855670,2038
1631192855674,2038
1631192855678,2038
1631192855682,2038
1631192855686,2037
1631192855690,2037
1631192855694,2037
1631192855698,2037
1631192855702,2038
1631192855706,2039
1631192855710,2039
1631192855714,2039
1631192855718,2039
1631192855722,2040
1631192855726,2040
1631192855730,2040
1631192855734,2040
1631192855738,2040
1631192855742,2040
1631192855746,2041
1631192855750,2041
1631192855754,2042
1631192855758,2042
1631192855762,2042
1631192855766,2042
1631192855770,2041
1631192855774,2041
1631192855778,2041
1631192855782,2041
1631192855786,2042
1631192855790,2042
1631192855794,2043
1631192855798,2044
1631192855802,2044
1631192855806,2043
1631192855810,2043
1631192855814,2042
1631192855818,2042
1631192855822,2043
1631192855826,2044
1631192855830,2044
1631192855834,2045
1631192855838,2044
1631192855842,2044
1631192855846,2044
1631192855850,2044
1631192855854,2044
1631192855858,2044
1631192855862,2044
1631192855866,2044
1631192855870,2044
1631192855874,2043
1631192855878,2043
1631192855882,2043
1631192855886,2043
1631192855890,2044
1631192855894,2046
1631192855898,2048
1631192855902,2051
1631192855906,2055
1631192855910,2057
1631192855914,2058
1631192855918,2057
1631192855922,2056
1631192855926,2056
1631192855930,2056
1631192855934,2055
1631192855938,2053
1631192855942,2051
1631192855946,2048
1631192855950,2047
1631192855954,2046
1631192855958,2045
1631192855962,2045
1631192855966,2045
1631192855970,2045
1631192855974,2045
1631192855978,2046
1631192855982,2047
1631192855986,2048
1631192855990,2048
1631192855994,2048
1631192855998,2043
1631192856002,2033
1631192856006,2020
1631192856010,2008
1631192856014,2006
1631192856018,2018
1631192856022,2048
1631192856026,2104
1631192856030,2190
1631192856034,2302
1631192856038,2417
1631192856042,2497
1631192856046,2501
1631192856050,2420
1631192856054,2276
1631192856058,2122
1631192856062,2013
1631192856066,1970
1631192856070,1984
1631192856074,2022
1631192856078,2050
1631192856082,2056
1631192856086,2049
1631192856090,2039
1631192856094,2033
1631192856098,2033
1631192856102,2034
1631192856106,2035
1631192856110,2037
1631192856114,2038
1631192856118,2038
1631192856122,2038
1631192856126,2038
1631192856130,2039
1631192856134,2040
1631192856138,2041
1631192856142,2042
1631192856146,2044
1631192856150,2045
1631192856154,2046
1631192856158,2047
1631192856162,2048
1631192856166,2048
1631192856170,2049
1631192856174,2051
1631192856178,2052
1631192856182,2054
1631192856186,2057
1631192856190,2058
1631192856194,2060
1631192856198,2062
1631192856202,2064
1631192856206,2066
1631192856210,2068
1631192856214,2071
1631192856218,2073
1631192856222,2076
1631192856226,2079
1631192856230,2083
1631192856234,2087
1631192856238,2090
1631192856242,2093
1631192856246,2095
1631192856250,2097
1631192856254,2100
1631192856258,2102
1631192856262,2104
1631192856266,2107
1631192856270,2108
1631192856274,2109
1631192856278,2109
1631192856282,2109
1631192856286,2108
1631192856290,2107
1631192856294,2105
1631192856298,2102
1631192856302,2099
1631192856306,2094
1631192856310,2089
1631192856314,2082
1631192856318,2075
1631192856322,2069
1631192856326,2062
1631192856330,2056
1631192856334,2051
1631192856338,2047
1631192856342,2044
1631192856346,2040
1631192856350,2037
1631192856354,2034
1631192856358,2031
1631192856362,2030
1631192856366,2028
1631192856370,2027
1631192856374,2026
1631192856378,2025
1631192856382,2025
1631192856386,2025
1631192856390,2025
1631192856394,2026
1631192856398,2026
1631192856402,2026
1631192856406,2025
1631192856410,2025
1631192856414,2024
1631192856418,2024
1631192856422,2025
1631192856426,2026
1631192856430,2027
1631192856434,2027
1631192856438,2027
1631192856442,2028
1631192856446,2027
1631192856450,2027
1631192856454,2028
1631192856458,2029
1631192856462,2029
1631192856466,2030
1631192856470,2030
1631192856474,2031
1631192856478,2031
1631192856482,2031
1631192856486,2032
1631192856490,2032
1631192856494,2032
1631192856498,2033
1631192856502,2033
1631192856506,2034
1631192856510,2034
1631192856514,2035
1631192856518,2034
1631192856522,2034
1631192856526,2034
1631192856530,2033
1631192856534,2033
1631192856538,2033
1631192856542,2034
1631192856546,2034
1631192856550,2035
1631192856554,2035
1631192856558,2034
1631192856562,2034
1631192856566,2033
1631192856570,2032
1631192856574,2032
1631192856578,2033
1631192856582,2034
1631192856586,2035
1631192856590,2036
1631192856594,2036
1631192856598,2035
1631192856602,2035
1631192856606,2034
1631192856610,2034
1631192856614,2034
1631192856618,2034
1631192856622,2035
1631192856626,2035
1631192856630,2036
1631192856634,2036
1631192856638,2036
1631192856642,2036
1631192856646,2035
1631192856650,2036
1631192856654,2036
1631192856658,2036
1631192856662,2037
1631192856666,2037
1631192856670,2037
1631192856674,2038
1631192856678,2038
1631192856682,2039
1631192856686,2040
1631192856690,2040
1631192856694,2040
1631192856698,2039
1631192856702,2039
1631192856706,2040
1631192856710,2040
1631192856714,2041
1631192856718,2041
1631192856722,2041
1631192856726,2041
1631192856730,2041
1631192856734,2041
1631192856738,2041
1631192856742,2041
1631192856746,2042
1631192856750,2042
1631192856754,2043
1631192856758,2043
1631192856762,2042
1631192856766,2042
1631192856770,2042
1631192856774,2042
1631192856778,2042
1631192856782,2043
1631192856786,2044
1631192856790,2044
1631192856794,2045
1631192856798,2045
1631192856802,2045
1631192856806,2045
1631192856810,2044
1631192856814,2044
1631192856818,2044
1631192856822,2044
1631192856826,2044
1631192856830,2045
1631192856834,2045
1631192856838,2045
1631192856842,2045
1631192856846,2045
1631192856850,2045
1631192856854,2045
1631192856858,2045
1631192856862,2045
1631192856866,2046
1631192856870,2046
1631192856874,2046
1631192856878,2046
1631192856882,2045
1631192856886,2044
1631192856890,2043
1631192856894,2044
1631192856898,2045
1631192856902,2047
1631192856906,2048
1631192856910,2051
1631192856914,2054
1631192856918,2057
1631192856922,2058
1631192856926,2058
1631192856930,2057
1631192856934,2056
1631192856938,2056
1631192856942,2056
1631192856946,2056
1631192856950,2054
1631192856954,2052
1631192856958,2049
1631192856962,2047
1631192856966,2046
1631192856970,2045
1631192856974,2045
1631192856978,2046
1631192856982,2046
1631192856986,2046
1631192856990,2047
1631192856994,2048
1631192856998,2049
1631192857002,2048
1631192857006,2045
1631192857010,2036
1631192857014,2023
1631192857018,2010
1631192857022,2005
1631192857026,2013
1631192857030,2040
1631192857034,2087
1631192857038,2165
1631192857042,2271
1631192857046,2389
1631192857050,2483
1631192857054,2511
1631192857058,2452
1631192857062,2320
1631192857066,2162
1631192857070,2037
1631192857074,1975
1631192857078,1977
1631192857082,2011
1631192857086,2045
1631192857090,2056
1631192857094,2052
1631192857098,2042
1631192857102,2036
1631192857106,2035
1631192857110,2035
1631192857114,2036
1631192857118,2036
1631192857122,2037
1631192857126,2037
1631192857130,2037
1631192857134,2037
1631192857138,2038
1631192857142,2040
1631192857146,2041
1631192857150,2043
1631192857154,2044
1631192857158,2044
1631192857162,2045
1631192857166,2046
1631192857170,2047
1631192857174,2048
1631192857178,2050
1631192857182,2051
1631192857186,2053
1631192857190,2055
1631192857194,2057
1631192857198,2058
1631192857202,2060
1631192857206,2061
1631192857210,2063
1631192857214,2065
1631192857218,2068
1631192857222,2070
1631192857226,2073
1631192857230,2076
1631192857234,2079
1631192857238,2082
1631192857242,2085
1631192857246,2088
1631192857250,2091
1631192857254,2094
1631192857258,2097
1631192857262,2100
1631192857266,2103
1631192857270,2105
1631192857274,2107
1631192857278,2109
1631192857282,2110
1631192857286,2111
1631192857290,2111
1631192857294,2110
1631192857298,2108
1631192857302,2106
1631192857306,2104
1631192857310,2100
1631192857314,2095
1631192857318,2089
1631192857322,2083
1631192857326,2076
1631192857330,2069
1631192857334,2063
1631192857338,2057
1631192857342,2052
1631192857346,2048
1631192857350,2044
1631192857354,2040
1631192857358,2037
1631192857362,2034
1631192857366,2031
1631192857370,2029
1631192857374,2028
1631192857378,2027
1631192857382,2026
1631192857386,2026
1631192857390,2025
1631192857394,2025
1631192857398,2024
1631192857402,2024
1631192857406,2025
1631192857410,2024
1631192857414,2024
1631192857418,2025
1631192857422,2025
1631192857426,2026
1631192857430,2027
1631192857434,2027
1631192857438,2027
1631192857442,2027
1631192857446,2027
1631192857450,2027
1631192857454,2028
1631192857458,2028
1631192857462,2028
1631192857466,2029
1631192857470,2029
1631192857474,2030
1631192857478,2030
1631192857482,2030
1631192857486,2031
1631192857490,2031
1631192857494,2031
1631192857498,2031
1631192857502,2031
1631192857506,2032
1631192857510,2032
1631192857514,2033
1631192857518,2034
1631192857522,2034
1631192857526,2034
1631192857530,2033
1631192857534,2033
1631192857538,2033
1631192857542,2033
1631192857546,2033
1631192857550,2033
1631192857554,2033
1631192857558,2033
1631192857562,2033
1631192857566,2033
1631192857570,2033
1631192857574,2033
1631192857578,2034
1631192857582,2034
1631192857586,2034
1631192857590,2034
1631192857594,2034
1631192857598,2033
1631192857602,2032
1631192857606,2032
1631192857610,2032
1631192857614,2032
1631192857618,2032
1631192857622,2033
1631192857626,2034
1631192857630,2035
1631192857634,2035
1631192857638,2035
1631192857642,2035
1631192857646,2035
1631192857650,2034
1631192857654,2034
1631192857658,2034
1631192857662,2034
1631192857666,2035
1631192857670,2036
1631192857674,2037
1631192857678,2037
1631192857682,2038
1631192857686,2038
1631192857690,2038
1631192857694,2038
1631192857698,2038
1631192857702,2038
1631192857706,2038
1631192857710,2038
1631192857714,2038
1631192857718,2039
1631192857722,2040
1631192857726,2040
1631192857730,2040
1631192857734,2039
1631192857738,2039
1631192857742,2040
1631192857746,2042
1631192857750,2043
1631192857754,2044
1631192857758,2044
1631192857762,2043
1631192857766,2042
1631192857770,2042
1631192857774,2041
1631192857778,2041
1631192857782,2042
1631192857786,2042
1631192857790,2043
1631192857794,2044
1631192857798,2045
1631192857802,2045
1631192857806,2045
1631192857810,2044
1631192857814,2044
1631192857818,2044
1631192857822,2044
1631192857826,2045
1631192857830,2045
1631192857834,2045
1631192857838,2044
1631192857842,2043
1631192857846,2043
1631192857850,2043
1631192857854,2043
1631192857858,2044
1631192857862,2045
1631192857866,2048
1631192857870,2050
1631192857874,2053
1631192857878,2056
1631192857882,2058
1631192857886,2059
1631192857890,2058
1631192857894,2057
1631192857898,2056
1631192857902,2056
1631192857906,2056
1631192857910,2055
1631192857914,2054
1631192857918,2051
1631192857922,2049
1631192857926,2048
1631192857930,2046
1631192857934,2046
1631192857938,2047
1631192857942,2047
1631192857946,2048
1631192857950,2049
1631192857954,2051
1631192857958,2051
1631192857962,2050
1631192857966,2046
1631192857970,2036
1631192857974,2025
1631192857978,2014
1631192857982,2011
1631192857986,2020
1631192857990,2047
1631192857994,2094
1631192857998,2172
1631192858002,2280
1631192858006,2398
1631192858010,2486
1631192858014,2503
1631192858018,2432
1631192858022,2292
1631192858026,2135
1631192858030,2019
1631192858034,1970
1631192858038,1982
1631192858042,2021
1631192858046,2053
1631192858050,2063
1631192858054,2058
1631192858058,2048
1631192858062,2043
1631192858066,2041
1631192858070,2041
1631192858074,2041
1631192858078,2042
1631192858082,2043
1631192858086,2044
1631192858090,2044
1631192858094,2045
1631192858098,2046
1631192858102,2047
1631192858106,2048
1631192858110,2049
1631192858114,2051
1631192858118,2052
1631192858122,2052
1631192858126,2053
1631192858130,2054
1631192858134,2055
1631192858138,2056
1631192858142,2058
1631192858146,2060
1631192858150,2062
1631192858154,2064
1631192858158,2066
1631192858162,2069
1631192858166,2070
1631192858170,2072
1631192858174,2074
1631192858178,2077
1631192858182,2079
1631192858186,2082
1631192858190,2085
1631192858194,2089
1631192858198,2092
1631192858202,2095
1631192858206,2098
1631192858210,2102
1631192858214,2106
1631192858218,2109
1631192858222,2113
1631192858226,2117
1631192858230,2120
1631192858234,2122
1631192858238,2122
1631192858242,2122
1631192858246,2121
1631192858250,2121
1631192858254,2121
1631192858258,2120
1631192858262,2118
1631192858266,2114
1631192858270,2109
1631192858274,2103
1631192858278,2095
1631192858282,2088
1631192858286,2080
1631192858290,2072
1631192858294,2064
1631192858298,2058
1631192858302,2053
1631192858306,2049
1631192858310,2047
1631192858314,2044
1631192858318,2040
1631192858322,2036
1631192858326,2033
1631192858330,2031
1631192858334,2029
1631192858338,2029
1631192858342,2029
1631192858346,2028
1631192858350,2028
1631192858354,2027
1631192858358,2026
1631192858362,2026
1631192858366,2025
1631192858370,2025
1631192858374,2025
1631192858378,2026
1631192858382,2026
1631192858386,2027
1631192858390,2027
1631192858394,2028
1631192858398,2028
1631192858402,2029
1631192858406,2029
1631192858410,2030
1631192858414,2030
1631192858418,2030
1631192858422,2031
1631192858426,2031
1631192858430,2031
1631192858434,2032
1631192858438,2033
1631192858442,2035
1631192858446,2035
1631192858450,2036
1631192858454,2036
1631192858458,2036
1631192858462,2036
1631192858466,2037
1631192858470,2038
1631192858474,2039
1631192858478,2040
1631192858482,2040
1631192858486,2040
1631192858490,2039
1631192858494,2039
1631192858498,2038
1631192858502,2038
1631192858506,2038
1631192858510,2039
1631192858514,2039
1631192858518,2040
1631192858522,2040
1631192858526,2040
1631192858530,2039
1631192858534,2039
1631192858538,2038
1631192858542,2038
1631192858546,2038
1631192858550,2039
1631192858554,2040
1631192858558,2041
1631192858562,2041
1631192858566,2040
1631192858570,2038
1631192858574,2037
1631192858578,2037
1631192858582,2038
1631192858586,2040
1631192858590,2041
1631192858594,2041
1631192858598,2041
1631192858602,2041
1631192858606,2040
1631192858610,2039
1631192858614,2039
1631192858618,2039
1631192858622,2040
1631192858626,2041
1631192858630,2042
1631192858634,2043
1631192858638,2042
1631192858642,2042
1631192858646,2041
1631192858650,2041
1631192858654,2041
1631192858658,2041
1631192858662,2042
1631192858666,2043
1631192858670,2043
1631192858674,2044
1631192858678,2044
1631192858682,2044
1631192858686,2043
1631192858690,2043
1631192858694,2042
1631192858698,2042
1631192858702,2043
1631192858706,2043
1631192858710,2043
1631192858714,2043
1631192858718,2042
1631192858722,2042
1631192858726,2042
1631192858730,2042
1631192858734,2042
1631192858738,2042
1631192858742,2042
1631192858746,2042
1631192858750,2044
1631192858754,2047
1631192858758,2050
1631192858762,2053
1631192858766,2054
1631192858770,2055
1631192858774,2054
1631192858778,2053
1631192858782,2052
1631192858786,2053
1631192858790,2054
1631192858794,2053
1631192858798,2051
1631192858802,2048
1631192858806,2045
1631192858810,2043
1631192858814,2043
1631192858818,2043
1631192858822,2044
1631192858826,2045
1631192858830,2045
1631192858834,2045
1631192858838,2046
1631192858842,2047
1631192858846,2047
1631192858850,2045
1631192858854,2038
1631192858858,2027
1631192858862,2014
1631192858866,2005
1631192858870,2007
1631192858874,2024
1631192858878,2059
1631192858882,2120
1631192858886,2212
1631192858890,2326
1631192858894,2435
1631192858898,2496
1631192858902,2475
1631192858906,2371
1631192858910,2218
1631192858914,2073
1631192858918,1986
1631192858922,1965
1631192858926,1993
1631192858930,2032
1631192858934,2053
1631192858938,2055
1631192858942,2047
1631192858946,2040
1631192858950,2037
1631192858954,2036
1631192858958,2037
1631192858962,2037
1631192858966,2037
1631192858970,2037
1631192858974,2037
1631192858978,2038
1631192858982,2039
1631192858986,2040
1631192858990,2041
1631192858994,2043
1631192858998,2044
1631192859002,2045
1631192859006,2046
1631192859010,2046
1631192859014,2047
1631192859018,2048
1631192859022,2049
1631192859026,2051
1631192859030,2053
1631192859034,2054
1631192859038,2056
1631192859042,2057
1631192859046,2059
1631192859050,2060
1631192859054,2062
1631192859058,2064
1631192859062,2067
1631192859066,2070
1631192859070,2073
1631192859074,2077
1631192859078,2080
1631192859082,2083
1631192859086,2086
1631192859090,2088
1631192859094,2091
1631192859098,2095
1631192859102,2098
1631192859106,2102
1631192859110,2105
1631192859114,2108
1631192859118,2110
1631192859122,2110
1631192859126,2111
1631192859130,2111
1631192859134,2110
1631192859138,2110
1631192859142,2109
1631192859146,2107
1631192859150,2104
1631192859154,2100
1631192859158,2094
1631192859162,2087
1631192859166,2080
1631192859170,2072
1631192859174,2064
1631192859178,2056
1631192859182,2050
1631192859186,2046
1631192859190,2043
1631192859194,2039
1631192859198,2036
1631192859202,2032
1631192859206,2029
1631192859210,2026
1631192859214,2024
1631192859218,2022
1631192859222,2022
1631192859226,2022
1631192859230,2023
1631192859234,2023
1631192859238,2023
1631192859242,2022
1631192859246,2021
1631192859250,2021
1631192859254,2020
1631192859258,2020
1631192859262,2020
1631192859266,2021
1631192859270,2022
1631192859274,2023
1631192859278,2023
1631192859282,2023
1631192859286,2022
1631192859290,2022
1631192859294,2023
1631192859298,2024
1631192859302,2025
1631192859306,2026
1631192859310,2026
1631192859314,2027
1631192859318,2027
1631192859322,2027
1631192859326,2027
1631192859330,2028
1631192859334,2028
1631192859338,2029
1631192859342,2030
1631192859346,2030
1631192859350,2031
1631192859354,2031
1631192859358,2031
1631192859362,2031
1631192859366,2031
1631192859370,2031
1631192859374,2031
1631192859378,2031
1631192859382,2031
1631192859386,2032
1631192859390,2032
1631192859394,2032
1631192859398,2031
1631192859402,2031
1631192859406,2030
1631192859410,2030
1631192859414,2030
1631192859418,2030
1631192859422,2031
1631192859426,2032
1631192859430,2032
1631192859434,2032
1631192859438,2031
1631192859442,2030
1631192859446,2030
1631192859450,2030
1631192859454,2030
1631192859458,2031
1631192859462,2031
1631192859466,2031
1631192859470,2031
1631192859474,2031
1631192859478,2031
1631192859482,2032
1631192859486,2032
1631192859490,2031
1631192859494,2031
1631192859498,2030
1631192859502,2030
1631192859506,2031
1631192859510,2032
1631192859514,2033
1631192859518,2033
1631192859522,2033
1631192859526,2034
1631192859530,2034
1631192859534,2034
1631192859538,2034
1631192859542,2034
1631192859546,2034
1631192859550,2035
1631192859554,2035
1631192859558,2035
1631192859562,2035
1631192859566,2035
1631192859570,2035
1631192859574,2035
1631192859578,2036
1631192859582,2036
1631192859586,2036
1631192859590,2036
1631192859594,2037
1631192859598,2037
1631192859602,2037
1631192859606,2038
1631192859610,2038
1631192859614,2038
1631192859618,2038
1631192859622,2038
1631192859626,2039
1631192859630,2039
1631192859634,2040
1631192859638,2040
1631192859642,2039
1631192859646,2039
1631192859650,2038
1631192859654,2037
1631192859658,2036
1631192859662,2036
1631192859666,2036
1631192859670,2036
1631192859674,2036
1631192859678,2037
1631192859682,2039
1631192859686,2042
1631192859690,2046
1631192859694,2049
1631192859698,2051
1631192859702,2051
1631192859706,2051
1631192859710,2050
1631192859714,2050
1631192859718,2050
1631192859722,2049
1631192859726,2048
1631192859730,2045
1631192859734,2042
1631192859738,2039
1631192859742,2039
1631192859746,2040
1631192859750,2041
1631192859754,2041
1631192859758,2041
1631192859762,2040
1631192859766,2039
1631192859770,2040
1631192859774,2041
1631192859778,2042
1631192859782,2040
1631192859786,2032
1631192859790,2020
1631192859794,2006
1631192859798,1996
1631192859802,2000
1631192859806,2022
1631192859810,2064
1631192859814,2137
1631192859818,2240
1631192859822,2359
1631192859826,2463
1631192859830,2507
1631192859834,2467
1631192859838,2349
1631192859842,2194
1631192859846,2060
1631192859850,1988
1631192859854,1979
1631192859858,2009
1631192859862,2042
1631192859866,2055
1631192859870,2050
1631192859874,2039
1631192859878,2030
1631192859882,2028
1631192859886,2028
1631192859890,2028
1631192859894,2028
1631192859898,2029
1631192859902,2029
1631192859906,2030
1631192859910,2031
1631192859914,2032
1631192859918,2032
1631192859922,2033
1631192859926,2034
1631192859930,2034
1631192859934,2035
1631192859938,2036
1631192859942,2037
1631192859946,2039
1631192859950,2040
1631192859954,2042
1631192859958,2043
1631192859962,2044
1631192859966,2045
1631192859970,2047
1631192859974,2048
1631192859978,2049
1631192859982,2051
1631192859986,2054
1631192859990,2056
1631192859994,2058
1631192859998,2060
1631192860002,2062
1631192860006,2064
1631192860010,2067
1631192860014,2071
1631192860018,2074
1631192860022,2078
1631192860026,2081
1631192860030,2084
1631192860034,2087
1631192860038,2090
1631192860042,2093
1631192860046,2096
1631192860050,2098
1631192860054,2100
1631192860058,2101
1631192860062,2102
1631192860066,2102
1631192860070,2102
1631192860074,2100
1631192860078,2098
1631192860082,2095
1631192860086,2091
1631192860090,2086
1631192860094,2081
1631192860098,2075
1631192860102,2069
1631192860106,2062
1631192860110,2056
1631192860114,2050
1631192860118,2045
1631192860122,2040
1631192860126,2035
1631192860130,2031
1631192860134,2029
1631192860138,2027
1631192860142,2025
1631192860146,2024
1631192860150,2023
1631192860154,2021
1631192860158,2020
1631192860162,2019
1631192860166,2019
1631192860170,2018
1631192860174,2019
1631192860178,2019
1631192860182,2020
1631192860186,2020
1631192860190,2020
1631192860194,2021
1631192860198,2021
1631192860202,2021
1631192860206,2022
1631192860210,2022
1631192860214,2023
1631192860218,2023
1631192860222,2023
1631192860226,2023
1631192860230,2023
1631192860234,2024
1631192860238,2024
1631192860242,2025
1631192860246,2025
1631192860250,2025
1631192860254,2025
1631192860258,2025
1631192860262,2025
1631192860266,2026
1631192860270,2026
1631192860274,2027
1631192860278,2027
1631192860282,2028
1631192860286,2028
1631192860290,2028
1631192860294,2028
1631192860298,2028
1631192860302,2029
1631192860306,2029
1631192860310,2029
1631192860314,2029
1631192860318,2029
1631192860322,2029
1631192860326,2029
1631192860330,2029
1631192860334,2030
1631192860338,2030
1631192860342,2031
1631192860346,2030
1631192860350,2030
1631192860354,2030
1631192860358,2030
1631192860362,2030
1631192860366,2031
1631192860370,2031
1631192860374,2031
1631192860378,2031
1631192860382,2032
1631192860386,2032
1631192860390,2032
1631192860394,2032
1631192860398,2032
1631192860402,2032
1631192860406,2032
1631192860410,2032
1631192860414,2032
1631192860418,2032
1631192860422,2032
1631192860426,2032
1631192860430,2033
1631192860434,2033
1631192860438,2034
1631192860442,2034
1631192860446,2034
1631192860450,2034
1631192860454,2034
1631192860458,2035
1631192860462,2035
1631192860466,2035
1631192860470,2035
1631192860474,2035
1631192860478,2036
1631192860482,2036
1631192860486,2037
1631192860490,2037
1631192860494,2037
1631192860498,2037
1631192860502,2037
1631192860506,2037
1631192860510,2038
1631192860514,2038
1631192860518,2039
1631192860522,2039
1631192860526,2038
1631192860530,2038
1631192860534,2038
1631192860538,2039
1631192860542,2039
1631192860546,2040
1631192860550,2041
1631192860554,2041
1631192860558,2041
1631192860562,2041
1631192860566,2041
1631192860570,2041
1631192860574,2041
1631192860578,2041
1631192860582,2041
1631192860586,2042
1631192860590,2042
1631192860594,2042
1631192860598,2042
1631192860602,2042
1631192860606,2042
1631192860610,2042
1631192860614,2041
1631192860618,2041
1631192860622,2042
1631192860626,2043
1631192860630,2043
1631192860634,2043
1631192860638,2043
1631192860642,2043
1631192860646,2043
1631192860650,2043
1631192860654,2043
1631192860658,2043
1631192860662,2044
1631192860666,2045
1631192860670,2045
1631192860674,2045
1631192860678,2045
1631192860682,2045
1631192860686,2044
1631192860690,2044
1631192860694,2044
1631192860698,2045
1631192860702,2045
1631192860706,2045
1631192860710,2046
1631192860714,2046
1631192860718,2045
1631192860722,2045
1631192860726,2044
1631192860730,2043
1631192860734,2044
1631192860738,2045
1631192860742,2047
1631192860746,2048
1631192860750,2048
1631192860754,2048
1631192860758,2047
1631192860762,2046
1631192860766,2046
1631192860770,2046
1631192860774,2046
1631192860778,2047
1631192860782,2047
1631192860786,2047
1631192860790,2047
1631192860794,2046
1631192860798,2046
1631192860802,2045
1631192860806,2044
1631192860810,2044
1631192860814,2046
1631192860818,2048
1631192860822,2053
1631192860826,2057
1631192860830,2059
1631192860834,2059
1631192860838,2059
1631192860842,2057
1631192860846,2057
1631192860850,2056
1631192860854,2055
1631192860858,2054
1631192860862,2051
1631192860866,2048
1631192860870,2047
1631192860874,2046
1631192860878,2046
1631192860882,2047
1631192860886,2046
1631192860890,2046
1631192860894,2045
1631192860898,2045
1631192860902,2046
1631192860906,2048
1631192860910,2049
1631192860914,2049
1631192860918,2047
1631192860922,2038
1631192860926,2025
1631192860930,2010
1631192860934,2002
1631192860938,2008
1631192860942,2032
1631192860946,2077
1631192860950,2153
1631192860954,2258
1631192860958,2377
1631192860962,2477
1631192860966,2515
1631192860970,2467
1631192860974,2344
1631192860978,2189
1631192860982,2060
1631192860986,1993
1631192860990,1987
1631192860994,2017
1631192860998,2048
1631192861002,2058
1631192861006,2053
1631192861010,2042
1631192861014,2034
1631192861018,2031
1631192861022,2031
1631192861026,2031
1631192861030,2032
1631192861034,2033
1631192861038,2034
1631192861042,2034
1631192861046,2035
1631192861050,2035
1631192861054,2035
1631192861058,2036
1631192861062,2037
1631192861066,2039
1631192861070,2040
1631192861074,2042
1631192861078,2043
1631192861082,2044
1631192861086,2045
1631192861090,2046
1631192861094,2046
1631192861098,2048
1631192861102,2049
1631192861106,2050
1631192861110,2052
1631192861114,2054
1631192861118,2055
1631192861122,2056
1631192861126,2058
1631192861130,2060
1631192861134,2063
1631192861138,2066
1631192861142,2068
1631192861146,2071
1631192861150,2073
1631192861154,2076
1631192861158,2079
1631192861162,2083
1631192861166,2086
1631192861170,2089
1631192861174,2091
1631192861178,2094
1631192861182,2096
1631192861186,2098
1631192861190,2100
1631192861194,2101
1631192861198,2102
1631192861202,2102
1631192861206,2101
1631192861210,2100
1631192861214,2100
1631192861218,2098
1631192861222,2096
1631192861226,2093
1631192861230,2088
1631192861234,2083
1631192861238,2077
1631192861242,2071
1631192861246,2066
1631192861250,2060
1631192861254,2055
1631192861258,2049
1631192861262,2046
1631192861266,2042
1631192861270,2038
1631192861274,2036
1631192861278,2034
1631192861282,2032
1631192861286,2030
1631192861290,2028
1631192861294,2026
1631192861298,2026
1631192861302,2025
1631192861306,2025
1631192861310,2025
1631192861314,2025
1631192861318,2025
1631192861322,2025
1631192861326,2024
1631192861330,2024
1631192861334,2025
1631192861338,2025
1631192861342,2026
1631192861346,2027
1631192861350,2028
1631192861354,2028
1631192861358,2028
1631192861362,2028
1631192861366,2028
1631192861370,2028
1631192861374,2028
1631192861378,2029
1631192861382,2029
1631192861386,2030
1631192861390,2030
1631192861394,2030
1631192861398,2030
1631192861402,2030
1631192861406,2030
1631192861410,2030
1631192861414,2030
1631192861418,2031
1631192861422,2032
1631192861426,2033
1631192861430,2034
1631192861434,2034
1631192861438,2033
1631192861442,2033
1631192861446,2032
1631192861450,2032
1631192861454,2032
1631192861458,2032
1631192861462,2032
1631192861466,2033
1631192861470,2033
1631192861474,2032
1631192861478,2032
1631192861482,2031
1631192861486,2031
1631192861490,2031
1631192861494,2031
1631192861498,2031
1631192861502,2031
1631192861506,2032
1631192861510,2032
1631192861514,2032
1631192861518,2032
1631192861522,2032
1631192861526,2032
1631192861530,2031
1631192861534,2031
1631192861538,2031
1631192861542,2032
1631192861546,2033
1631192861550,2033
1631192861554,2033
1631192861558,2033
1631192861562,2032
1631192861566,2032
1631192861570,2032
1631192861574,2032
1631192861578,2033
1631192861582,2034
1631192861586,2035
1631192861590,2035
1631192861594,2035
1631192861598,2035
1631192861602,2035
1631192861606,2035
1631192861610,2035
1631192861614,2035
1631192861618,2036
1631192861622,2037
1631192861626,2037
1631192861630,2038
1631192861634,2038
1631192861638,2038
1631192861642,2039
1631192861646,2038
1631192861650,2038
1631192861654,2037
1631192861658,2037
1631192861662,2038
1631192861666,2039
1631192861670,2040
1631192861674,2041
1631192861678,2041
1631192861682,2041
1631192861686,2040
1631192861690,2040
1631192861694,2040
1631192861698,2040
1631192861702,2041
1631192861706,2042
1631192861710,2042
1631192861714,2043
1631192861718,2043
1631192861722,2043
1631192861726,2042
1631192861730,2042
1631192861734,2042
1631192861738,2042
1631192861742,2042
1631192861746,2042
1631192861750,2043
1631192861754,2044
1631192861758,2044
1631192861762,2044
1631192861766,2043
1631192861770,2043
1631192861774,2043
1631192861778,2043
1631192861782,2044
1631192861786,2044
1631192861790,2045
1631192861794,2045
1631192861798,2045
1631192861802,2045
1631192861806,2045
1631192861810,2044
1631192861814,2044
1631192861818,2044
1631192861822,2044
1631192861826,2044
1631192861830,2045
1631192861834,2045
1631192861838,2046
1631192861842,2046
1631192861846,2047
1631192861850,2047
1631192861854,2047
1631192861858,2046
1631192861862,2046
1631192861866,2046
1631192861870,2046
1631192861874,2047
1631192861878,2047
1631192861882,2048
1631192861886,2047
1631192861890,2046
1631192861894,2046
1631192861898,2045
1631192861902,2045
1631192861906,2046
1631192861910,2045
1631192861914,2045
1631192861918,2045
1631192861922,2045
1631192861926,2046
1631192861930,2048
1631192861934,2050
1631192861938,2054
1631192861942,2057
1631192861946,2058
1631192861950,2059
1631192861954,2058
1631192861958,2057
1631192861962,2057
1631192861966,2057
1631192861970,2057
1631192861974,2055
1631192861978,2052
1631192861982,2049
1631192861986,2048
1631192861990,2047
1631192861994,2047
1631192861998,2047
1631192862002,2048
1631192862006,2048
1631192862010,2048
1631192862014,2048
1631192862018,2048
1631192862022,2048
1631192862026,2049
1631192862030,2048
1631192862034,2046
1631192862038,2037
1631192862042,2025
1631192862046,2012
1631192862050,2006
1631192862054,2013
1631192862058,2038
1631192862062,2084
1631192862066,2162
1631192862070,2269
1631192862074,2390
1631192862078,2486
1631192862082,2515
1631192862086,2457
1631192862090,2325
1631192862094,2168
1631192862098,2043
1631192862102,1982
1631192862106,1984
1631192862110,2018
1631192862114,2049
1631192862118,2060
1631192862122,2054
1631192862126,2044
1631192862130,2037
1631192862134,2034
1631192862138,2033
1631192862142,2033
1631192862146,2034
1631192862150,2035
1631192862154,2036
1631192862158,2038
1631192862162,2038
1631192862166,2039
1631192862170,2039
1631192862174,2040
1631192862178,2041
1631192862182,2042
1631192862186,2043
1631192862190,2044
1631192862194,2045
1631192862198,2046
1631192862202,2048
1631192862206,2049
1631192862210,2051
1631192862214,2052
1631192862218,2053
1631192862222,2055
1631192862226,2056
1631192862230,2058
1631192862234,2061
1631192862238,2063
1631192862242,2065
1631192862246,2067
1631192862250,2069
1631192862254,2071
1631192862258,2073
1631192862262,2076
1631192862266,2080
1631192862270,2083
1631192862274,2087
1631192862278,2091
1631192862282,2093
1631192862286,2096
1631192862290,2098
1631192862294,2100
1631192862298,2103
1631192862302,2106
1631192862306,2108
1631192862310,2110
1631192862314,2111
1631192862318,2111
1631192862322,2111
1631192862326,2110
1631192862330,2107
1631192862334,2104
1631192862338,2100
1631192862342,2097
1631192862346,2093
1631192862350,2088
1631192862354,2083
1631192862358,2076
1631192862362,2069
1631192862366,2063
1631192862370,2056
1631192862374,2051
1631192862378,2047
1631192862382,2044
1631192862386,2041
1631192862390,2038
1631192862394,2036
1631192862398,2033
1631192862402,2031
1631192862406,2029
1631192862410,2028
1631192862414,2027
1631192862418,2027
1631192862422,2027
1631192862426,2027
1631192862430,2027
1631192862434,2028
1631192862438,2028
1631192862442,2028
1631192862446,2027
1631192862450,2026
1631192862454,2026
1631192862458,2026
1631192862462,2026
1631192862466,2027
1631192862470,2028
1631192862474,2029
1631192862478,2029
1631192862482,2029
1631192862486,2029
1631192862490,2029
1631192862494,2030
1631192862498,2030
1631192862502,2031
1631192862506,2032
1631192862510,2032
1631192862514,2033
1631192862518,2033
1631192862522,2033
1631192862526,2032
1631192862530,2032
1631192862534,2032
1631192862538,2033
1631192862542,2033
1631192862546,2034
1631192862550,2035
1631192862554,2035
1631192862558,2035
1631192862562,2035
1631192862566,2035
1631192862570,2035
1631192862574,2035
1631192862578,2035
1631192862582,2035
1631192862586,2035
1631192862590,2035
1631192862594,2035
1631192862598,2035
1631192862602,2035
1631192862606,2035
1631192862610,2034
1631192862614,2034
1631192862618,2034
1631192862622,2034
1631192862626,2034
1631192862630,2034
1631192862634,2034
1631192862638,2035
1631192862642,2035
1631192862646,2034
1631192862650,2034
1631192862654,2034
1631192862658,2034
1631192862662,2034
1631192862666,2035
1631192862670,2035
1631192862674,2036
1631192862678,2036
1631192862682,2036
1631192862686,2036
1631192862690,2035
1631192862694,2035
1631192862698,2036
1631192862702,2037
1631192862706,2038
1631192862710,2039
1631192862714,2039
1631192862718,2039
1631192862722,2039
1631192862726,2038
1631192862730,2038
1631192862734,2038
1631192862738,2038
1631192862742,2039
1631192862746,2040
1631192862750,2041
1631192862754,2042
1631192862758,2042
1631192862762,2042
1631192862766,2040
1631192862770,2040
1631192862774,2040
1631192862778,2041
1631192862782,2042
1631192862786,2043
1631192862790,2044
1631192862794,2043
1631192862798,2043
1631192862802,2042
1631192862806,2042
1631192862810,2042
1631192862814,2043
1631192862818,2043
1631192862822,2044
1631192862826,2044
1631192862830,2045
1631192862834,2045
1631192862838,2045
1631192862842,2045
1631192862846,2044
1631192862850,2044
1631192862854,2044
1631192862858,2044
1631192862862,2045
1631192862866,2046
1631192862870,2047
1631192862874,2047
1631192862878,2047
1631192862882,2046
1631192862886,2045
1631192862890,2045
1631192862894,2045
1631192862898,2046
1631192862902,2047
1631192862906,2048
1631192862910,2048
1631192862914,2048
1631192862918,2047
1631192862922,2047
1631192862926,2047
1631192862930,2046
1631192862934,2047
1631192862938,2048
1631192862942,2048
1631192862946,2047
1631192862950,2047
1631192862954,2046
1631192862958,2046
1631192862962,2046
1631192862966,2046
1631192862970,2046
1631192862974,2048
1631192862978,2050
1631192862982,2054
1631192862986,2058
1631192862990,2061
1631192862994,2061
1631192862998,2060
1631192863002,2059
1631192863006,2058
1631192863010,2057
1631192863014,2057
1631192863018,2056
1631192863022,2054
1631192863026,2052
1631192863030,2050
1631192863034,2048
1631192863038,2048
1631192863042,2048
1631192863046,2048
1631192863050,2048
1631192863054,2048
1631192863058,2048
1631192863062,2049
1631192863066,2050
1631192863070,2051
1631192863074,2050
1631192863078,2046
1631192863082,2037
1631192863086,2025
1631192863090,2012
1631192863094,2008
1631192863098,2017
1631192863102,2047
1631192863106,2099
1631192863110,2184
1631192863114,2298
1631192863118,2417
1631192863122,2502
1631192863126,2510
1631192863130,2430
1631192863134,2284
1631192863138,2127
1631192863142,2016
1631192863146,1973
1631192863150,1988
1631192863154,2026
1631192863158,2055
1631192863162,2062
1631192863166,2054
1631192863170,2044
1631192863174,2039
1631192863178,2037
1631192863182,2037
1631192863186,2038
1631192863190,2040
1631192863194,2040
1631192863198,2041
1631192863202,2041
1631192863206,2042
1631192863210,2042
1631192863214,2043
1631192863218,2043
1631192863222,2044
1631192863226,2046
1631192863230,2048
1631192863234,2049
1631192863238,2050
1631192863242,2051
1631192863246,2052
1631192863250,2052
1631192863254,2053
1631192863258,2055
1631192863262,2058
1631192863266,2061
1631192863270,2063
1631192863274,2065
1631192863278,2067
1631192863282,2068
1631192863286,2070
1631192863290,2072
1631192863294,2074
1631192863298,2077
1631192863302,2080
1631192863306,2083
1631192863310,2087
1631192863314,2090
1631192863318,2094
1631192863322,2099
1631192863326,2103
1631192863330,2107
1631192863334,2110
1631192863338,2114
1631192863342,2117
1631192863346,2119
1631192863350,2121
1631192863354,2122
1631192863358,2123
1631192863362,2123
1631192863366,2123
1631192863370,2122
1631192863374,2120
1631192863378,2116
1631192863382,2111
1631192863386,2105
1631192863390,2098
1631192863394,2091
1631192863398,2085
1631192863402,2078
1631192863406,2072
1631192863410,2065
1631192863414,2059
1631192863418,2053
1631192863422,2048
1631192863426,2045
1631192863430,2042
1631192863434,2039
1631192863438,2036
1631192863442,2034
1631192863446,2032
1631192863450,2030
1631192863454,2030
1631192863458,2030
1631192863462,2030
1631192863466,2031
1631192863470,2030
1631192863474,2029
1631192863478,2029
1631192863482,2028
1631192863486,2029
1631192863490,2029
1631192863494,2030
1631192863498,2030
1631192863502,2031
1631192863506,2032
1631192863510,2032
1631192863514,2032
1631192863518,2033
1631192863522,2033
1631192863526,2033
1631192863530,2033
1631192863534,2034
1631192863538,2035
1631192863542,2036
1631192863546,2036
1631192863550,2037
1631192863554,2038
1631192863558,2038
1631192863562,2039
1631192863566,2039
1631192863570,2040
1631192863574,2040
1631192863578,2041
1631192863582,2041
1631192863586,2042
1631192863590,2042
1631192863594,2043
1631192863598,2044
1631192863602,2044
1631192863606,2044
1631192863610,2043
1631192863614,2042
1631192863618,2042
1631192863622,2042
1631192863626,2043
1631192863630,2044
1631192863634,2044
1631192863638,2044
1631192863642,2044
1631192863646,2044
1631192863650,2044
1631192863654,2044
1631192863658,2045
1631192863662,2044
1631192863666,2044
1631192863670,2044
1631192863674,2045
1631192863678,2045
1631192863682,2045
1631192863686,2045
1631192863690,2045
1631192863694,2044
1631192863698,2044
1631192863702,2044
1631192863706,2045
1631192863710,2045
1631192863714,2046
1631192863718,2046
1631192863722,2046
1631192863726,2046
1631192863730,2045
1631192863734,2045
1631192863738,2045
1631192863742,2047
1631192863746,2048
1631192863750,2048
1631192863754,2048
1631192863758,2048
1631192863762,2047
1631192863766,2047
1631192863770,2046
1631192863774,2047
1631192863778,2047
1631192863782,2048
1631192863786,2048
1631192863790,2048
1631192863794,2048
1631192863798,2049
1631192863802,2049
1631192863806,2049
1631192863810,2049
1631192863814,2048
1631192863818,2048
1631192863822,2049
1631192863826,2049
1631192863830,2050
1631192863834,2050
1631192863838,2050
1631192863842,2049
1631192863846,2049
1631192863850,2049
1631192863854,2049
1631192863858,2049
1631192863862,2050
1631192863866,2051
1631192863870,2052
1631192863874,2052
1631192863878,2052
1631192863882,2052
1631192863886,2051
1631192863890,2050
1631192863894,2049
1631192863898,2049
1631192863902,2048
1631192863906,2048
1631192863910,2048
1631192863914,2049
1631192863918,2051
1631192863922,2053
1631192863926,2056
1631192863930,2059
1631192863934,2061
1631192863938,2062
1631192863942,2062
1631192863946,2062
1631192863950,2062
1631192863954,2063
1631192863958,2063
1631192863962,2062
1631192863966,2059
1631192863970,2055
1631192863974,2051
1631192863978,2050
1631192863982,2050
1631192863986,2051
1631192863990,2052
1631192863994,2053
1631192863998,2052
1631192864002,2052
1631192864006,2051
1631192864010,2052
1631192864014,2052
1631192864018,2051
1631192864022,2048
1631192864026,2041
1631192864030,2031
1631192864034,2019
1631192864038,2013
1631192864042,2019
1631192864046,2043
1631192864050,2086
1631192864054,2161
1631192864058,2266
1631192864062,2385
1631192864066,2480
1631192864070,2509
1631192864074,2448
1631192864078,2313
1631192864082,2152
1631192864086,2025
1631192864090,1965
1631192864094,1970
1631192864098,2009
1631192864102,2047
1631192864106,2061
1631192864110,2059
1631192864114,2049
1631192864118,2044
1631192864122,2041
1631192864126,2040
1631192864130,2040
1631192864134,2040
1631192864138,2042
1631192864142,2043
1631192864146,2044
1631192864150,2045
1631192864154,2045
1631192864158,2046
1631192864162,2047
1631192864166,2048
1631192864170,2048
1631192864174,2048
1631192864178,2049
1631192864182,2051
1631192864186,2052
1631192864190,2054
1631192864194,2055
1631192864198,2056
1631192864202,2058
1631192864206,2059
1631192864210,2061
1631192864214,2063
1631192864218,2064
1631192864222,2066
1631192864226,2069
1631192864230,2072
1631192864234,2075
1631192864238,2078
1631192864242,2081
1631192864246,2084
1631192864250,2086
1631192864254,2089
1631192864258,2093
1631192864262,2096
1631192864266,2101
1631192864270,2105
1631192864274,2110
1631192864278,2114
1631192864282,2117
1631192864286,2119
1631192864290,2120
1631192864294,2121
1631192864298,2122
1631192864302,2123
1631192864306,2124
1631192864310,2124
1631192864314,2122
1631192864318,2119
1631192864322,2114
1631192864326,2108
1631192864330,2101
1631192864334,2093
1631192864338,2086
1631192864342,2078
1631192864346,2070
1631192864350,2063
1631192864354,2055
1631192864358,2049
1631192864362,2045
1631192864366,2040
1631192864370,2035
1631192864374,2032
1631192864378,2029
1631192864382,2027
1631192864386,2026
1631192864390,2025
1631192864394,2024
1631192864398,2024
1631192864402,2023
1631192864406,2022
1631192864410,2022
1631192864414,2021
1631192864418,2021
1631192864422,2021
1631192864426,2022
1631192864430,2022
1631192864434,2022
1631192864438,2022
1631192864442,2022
1631192864446,2022
1631192864450,2021
1631192864454,2021
1631192864458,2021
1631192864462,2022
1631192864466,2023
1631192864470,2024
1631192864474,2025
1631192864478,2027
1631192864482,2027
1631192864486,2027
1631192864490,2027
1631192864494,2026
1631192864498,2027
1631192864502,2028
1631192864506,2029
1631192864510,2030
1631192864514,2031
1631192864518,2031
1631192864522,2030
1631192864526,2030
1631192864530,2030
1631192864534,2030
1631192864538,2031
1631192864542,2032
1631192864546,2033
1631192864550,2033
1631192864554,2033
1631192864558,2033
1631192864562,2032
1631192864566,2032
1631192864570,2031
1631192864574,2031
1631192864578,2031
1631192864582,2032
1631192864586,2032
1631192864590,2032
1631192864594,2032
1631192864598,2031
1631192864602,2031
1631192864606,2031
1631192864610,2031
1631192864614,2031
1631192864618,2031
1631192864622,2031
1631192864626,2031
1631192864630,2031
1631192864634,2031
1631192864638,2032
1631192864642,2032
1631192864646,2032
1631192864650,2032
1631192864654,2031
1631192864658,2031
1631192864662,2031
1631192864666,2032
1631192864670,2033
1631192864674,2034
1631192864678,2034
1631192864682,2034
1631192864686,2033
1631192864690,2033
1631192864694,2033
1631192864698,2032
1631192864702,2033
1631192864706,2033
1631192864710,2034
1631192864714,2035
1631192864718,2036
1631192864722,2036
1631192864726,2036
1631192864730,2036
1631192864734,2036
1631192864738,2036
1631192864742,2036
1631192864746,2037
1631192864750,2037
1631192864754,2037
1631192864758,2038
1631192864762,2038
1631192864766,2037
1631192864770,2037
1631192864774,2037
1631192864778,2037
1631192864782,2038
1631192864786,2038
1631192864790,2038
1631192864794,2038
1631192864798,2038
1631192864802,2038
1631192864806,2038
1631192864810,2038
1631192864814,2038
1631192864818,2038
1631192864822,2039
1631192864826,2040
1631192864830,2040
1631192864834,2040
1631192864838,2039
1631192864842,2038
1631192864846,2037
1631192864850,2036
1631192864854,2037
1631192864858,2037
1631192864862,2038
1631192864866,2039
1631192864870,2040
1631192864874,2043
1631192864878,2047
1631192864882,2049
1631192864886,2051
1631192864890,2051
1631192864894,2049
1631192864898,2048
1631192864902,2048
1631192864906,2049
1631192864910,2049
1631192864914,2048
1631192864918,2047
1631192864922,2044
1631192864926,2041
1631192864930,2039
1631192864934,2039
1631192864938,2039
1631192864942,2039
1631192864946,2040
1631192864950,2040
1631192864954,2041
1631192864958,2042
1631192864962,2043
1631192864966,2043
1631192864970,2040
1631192864974,2032
1631192864978,2020
1631192864982,2006
1631192864986,1997
1631192864990,2001
1631192864994,2022
1631192864998,2064
1631192865002,2134
1631192865006,2235
1631192865010,2355
1631192865014,2462
1631192865018,2513
1631192865022,2480
1631192865026,2365
1631192865030,2208
1631192865034,2068
1631192865038,1988
1631192865042,1973
1631192865046,2001
1631192865050,2036
1631192865054,2051
1631192865058,2048
1631192865062,2037
1631192865066,2029
1631192865070,2026
1631192865074,2027
1631192865078,2027
1631192865082,2028
1631192865086,2028
1631192865090,2028
1631192865094,2028
1631192865098,2028
1631192865102,2029
1631192865106,2031
1631192865110,2032
1631192865114,2033
1631192865118,2034
1631192865122,2035
1631192865126,2035
1631192865130,2036
1631192865134,2037
1631192865138,2038
1631192865142,2040
1631192865146,2042
1631192865150,2044
1631192865154,2045
1631192865158,2047
1631192865162,2048
1631192865166,2048
1631192865170,2050
1631192865174,2052
1631192865178,2054
1631192865182,2057
1631192865186,2061
1631192865190,2064
1631192865194,2067
1631192865198,2070
1631192865202,2073
1631192865206,2076
1631192865210,2079
1631192865214,2083
1631192865218,2087
1631192865222,2091
1631192865226,2096
1631192865230,2099
1631192865234,2103
1631192865238,2105
1631192865242,2107
1631192865246,2108
1631192865250,2108
1631192865254,2109
1631192865258,2109
1631192865262,2109
1631192865266,2108
1631192865270,2105
1631192865274,2101
1631192865278,2095
1631192865282,2088
1631192865286,2081
1631192865290,2074
1631192865294,2067
1631192865298,2060
1631192865302,2053
1631192865306,2048
1631192865310,2042
1631192865314,2037
1631192865318,2033
1631192865322,2029
1631192865326,2026
1631192865330,2024
1631192865334,2022
1631192865338,2020
1631192865342,2019
1631192865346,2018
1631192865350,2018
1631192865354,2018
1631192865358,2018
1631192865362,2017
1631192865366,2017
1631192865370,2017
1631192865374,2017
1631192865378,2017
1631192865382,2018
1631192865386,2019
1631192865390,2019
1631192865394,2020
1631192865398,2020
1631192865402,2020
1631192865406,2019
1631192865410,2018
1631192865414,2018
1631192865418,2018
1631192865422,2019
1631192865426,2020
1631192865430,2021
1631192865434,2021
1631192865438,2022
1631192865442,2022
1631192865446,2023
1631192865450,2023
1631192865454,2024
1631192865458,2024
1631192865462,2024
1631192865466,2025
1631192865470,2026
1631192865474,2026
1631192865478,2027
1631192865482,2028
1631192865486,2028
1631192865490,2028
1631192865494,2028
1631192865498,2028
1631192865502,2029
1631192865506,2029
1631192865510,2029
1631192865514,2030
1631192865518,2030
1631192865522,2029
1631192865526,2029
1631192865530,2028
1631192865534,2027
1631192865538,2028
1631192865542,2029
1631192865546,2030
1631192865550,2031
1631192865554,2031
1631192865558,2030
1631192865562,2030
1631192865566,2030
1631192865570,2029
1631192865574,2029
1631192865578,2030
1631192865582,2030
1631192865586,2030
1631192865590,2031
1631192865594,2031
1631192865598,2031
1631192865602,2031
1631192865606,2031
1631192865610,2031
1631192865614,2031
1631192865618,2031
1631192865622,2032
1631192865626,2033
1631192865630,2033
1631192865634,2033
1631192865638,2033
1631192865642,2034
1631192865646,2033
1631192865650,2033
1631192865654,2033
1631192865658,2034
1631192865662,2034
1631192865666,2035
1631192865670,2036
1631192865674,2036
1631192865678,2037
1631192865682,2037
1631192865686,2037
1631192865690,2037
1631192865694,2036
1631192865698,2036
1631192865702,2036
1631192865706,2037
1631192865710,2038
1631192865714,2038
1631192865718,2038
1631192865722,2038
1631192865726,2038
1631192865730,2038
1631192865734,2038
1631192865738,2038
1631192865742,2039
1631192865746,2039
1631192865750,2040
1631192865754,2039
1631192865758,2039
1631192865762,2039
1631192865766,2039
1631192865770,2039
1631192865774,2040
1631192865778,2040
1631192865782,2041
1631192865786,2042
1631192865790,2042
1631192865794,2041
1631192865798,2041
1631192865802,2041
1631192865806,2041
1631192865810,2041
1631192865814,2041
1631192865818,2041
1631192865822,2042
1631192865826,2041
1631192865830,2041
1631192865834,2040
1631192865838,2039
1631192865842,2039
1631192865846,2038
1631192865850,2038
1631192865854,2040
1631192865858,2043
1631192865862,2048
1631192865866,2051
1631192865870,2054
1631192865874,2056
1631192865878,2055
1631192865882,2054
1631192865886,2053
1631192865890,2052
1631192865894,2051
1631192865898,2050
1631192865902,2049
1631192865906,2048
1631192865910,2046
1631192865914,2044
1631192865918,2043
1631192865922,2042
1631192865926,2042
1631192865930,2042
1631192865934,2043
1631192865938,2043
1631192865942,2044
1631192865946,2045
1631192865950,2046
1631192865954,2046
1631192865958,2044
1631192865962,2037
1631192865966,2026
1631192865970,2012
1631192865974,2001
1631192865978,2001
1631192865982,2018
1631192865986,2054
1631192865990,2119
1631192865994,2216
1631192865998,2336
1631192866002,2451
1631192866006,2518
1631192866010,2503
1631192866014,2402
1631192866018,2247
1631192866022,2096
1631192866026,1999
1631192866030,1970
1631192866034,1993
1631192866038,2030
1631192866042,2053
1631192866046,2054
1631192866050,2045
1631192866054,2034
1631192866058,2030
1631192866062,2030
1631192866066,2030
1631192866070,2032
1631192866074,2033
1631192866078,2034
1631192866082,2034
1631192866086,2034
1631192866090,2035
1631192866094,2035
1631192866098,2036
1631192866102,2038
1631192866106,2039
1631192866110,2041
1631192866114,2042
1631192866118,2042
1631192866122,2043
1631192866126,2043
1631192866130,2044
1631192866134,2045
1631192866138,2048
1631192866142,2050
1631192866146,2052
1631192866150,2054
1631192866154,2056
1631192866158,2058
1631192866162,2060
1631192866166,2061
1631192866170,2064
1631192866174,2066
1631192866178,2069
1631192866182,2072
1631192866186,2076
1631192866190,2079
1631192866194,2083
1631192866198,2086
1631192866202,2089
1631192866206,2092
1631192866210,2096
1631192866214,2099
1631192866218,2104
1631192866222,2108
1631192866226,2112
1631192866230,2115
1631192866234,2117
1631192866238,2118
1631192866242,2118
1631192866246,2118
1631192866250,2117
1631192866254,2116
1631192866258,2114
1631192866262,2110
1631192866266,2105
1631192866270,2100
1631192866274,2093
1631192866278,2085
1631192866282,2077
1631192866286,2069
1631192866290,2061
1631192866294,2055
1631192866298,2050
1631192866302,2046
1631192866306,2043
1631192866310,2039
1631192866314,2035
1631192866318,2032
1631192866322,2029
1631192866326,2027
1631192866330,2026
1631192866334,2025
1631192866338,2024
1631192866342,2024
1631192866346,2023
1631192866350,2024
1631192866354,2024
1631192866358,2024
1631192866362,2024
1631192866366,2024
1631192866370,2024
1631192866374,2025
1631192866378,2025
1631192866382,2026
1631192866386,2026
1631192866390,2026
1631192866394,2026
1631192866398,2026
1631192866402,2026
1631192866406,2027
1631192866410,2027
1631192866414,2027
1631192866418,2028
1631192866422,2028
1631192866426,2029
1631192866430,2029
1631192866434,2029
1631192866438,2030
1631192866442,2030
1631192866446,2030
1631192866450,2030
1631192866454,2030
1631192866458,2030
1631192866462,2031
1631192866466,2032
1631192866470,2033
1631192866474,2034
1631192866478,2034
1631192866482,2034
1631192866486,2033
1631192866490,2033
1631192866494,2033
1631192866498,2033
1631192866502,2034
1631192866506,2034
1631192866510,2035
1631192866514,2035
1631192866518,2035
1631192866522,2035
1631192866526,2035
1631192866530,2035
1631192866534,2035
1631192866538,2035
1631192866542,2035
1631192866546,2035
1631192866550,2035
1631192866554,2035
1631192866558,2035
1631192866562,2035
1631192866566,2034
1631192866570,2034
1631192866574,2035
1631192866578,2035
1631192866582,2036
1631192866586,2037
1631192866590,2037
1631192866594,2038
1631192866598,2038
1631192866602,2038
1631192866606,2038
1631192866610,2037
1631192866614,2037
1631192866618,2037
1631192866622,2037
1631192866626,2038
1631192866630,2038
1631192866634,2039
1631192866638,2039
1631192866642,2039
1631192866646,2039
1631192866650,2039
1631192866654,2040
1631192866658,2040
1631192866662,2041
1631192866666,2042
1631192866670,2042
1631192866674,2042
1631192866678,2042
1631192866682,2042
1631192866686,2042
1631192866690,2042
1631192866694,2042
1631192866698,2043
1631192866702,2044
1631192866706,2044
1631192866710,2044
1631192866714,2045
1631192866718,2045
1631192866722,2045
1631192866726,2045
1631192866730,2045
1631192866734,2044
1631192866738,2043
1631192866742,2044
1631192866746,2045
1631192866750,2046
1631192866754,2048
1631192866758,2048
1631192866762,2048
1631192866766,2047
1631192866770,2046
1631192866774,2045
1631192866778,2045
1631192866782,2046
1631192866786,2047
1631192866790,2048
1631192866794,2048
1631192866798,2048
1631192866802,2048
1631192866806,2047
1631192866810,2047
1631192866814,2046
1631192866818,2047
1631192866822,2048
1631192866826,2049
1631192866830,2050
1631192866834,2051
1631192866838,2051
1631192866842,2050
1631192866846,2049
1631192866850,2049
1631192866854,2049
1631192866858,2049
1631192866862,2049
1631192866866,2049
1631192866870,2049
1631192866874,2048
1631192866878,2049
1631192866882,2049
1631192866886,2049
1631192866890,2049
1631192866894,2049
1631192866898,2049
1631192866902,2049
1631192866906,2051
1631192866910,2054
1631192866914,2058
1631192866918,2061
1631192866922,2063
1631192866926,2063
1631192866930,2062
1631192866934,2060
1631192866938,2060
1631192866942,2061
1631192866946,2062
1631192866950,2061
1631192866954,2059
1631192866958,2057
1631192866962,2053
1631192866966,2051
1631192866970,2050
1631192866974,2050
1631192866978,2050
1631192866982,2050
1631192866986,2051
1631192866990,2052
1631192866994,2054
1631192866998,2055
1631192867002,2055
1631192867006,2053
1631192867010,2048
1631192867014,2040
1631192867018,2029
1631192867022,2018
1631192867026,2014
1631192867030,2022
1631192867034,2048
1631192867038,2093
1631192867042,2171
1631192867046,2279
1631192867050,2401
1631192867054,2498
1631192867058,2525
1631192867062,2462
1631192867066,2324
1631192867070,2161
1631192867074,2034
1631192867078,1975
1631192867082,1981
1631192867086,2018
1631192867090,2052
1631192867094,2064
1631192867098,2060
1631192867102,2050
1631192867106,2045
1631192867110,2043
1631192867114,2042
1631192867118,2043
1631192867122,2043
1631192867126,2044
1631192867130,2044
1631192867134,2044
1631192867138,2044
1631192867142,2045
1631192867146,2047
1631192867150,2049
1631192867154,2050
1631192867158,2051
1631192867162,2052
1631192867166,2052
1631192867170,2052
1631192867174,2052
1631192867178,2053
1631192867182,2054
1631192867186,2057
1631192867190,2060
1631192867194,2063
1631192867198,2065
1631192867202,2066
1631192867206,2067
1631192867210,2068
1631192867214,2070
1631192867218,2073
1631192867222,2076
1631192867226,2079
1631192867230,2082
1631192867234,2085
1631192867238,2089
1631192867242,2092
1631192867246,2095
1631192867250,2099
1631192867254,2102
1631192867258,2106
1631192867262,2111
1631192867266,2116
1631192867270,2120
1631192867274,2124
1631192867278,2127
1631192867282,2129
1631192867286,2130
1631192867290,2130
1631192867294,2130
1631192867298,2130
1631192867302,2130
1631192867306,2128
1631192867310,2126
1631192867314,2122
1631192867318,2115
1631192867322,2108
1631192867326,2100
1631192867330,2091
1631192867334,2083
1631192867338,2076
1631192867342,2069
1631192867346,2063
1631192867350,2057
1631192867354,2052
1631192867358,2047
1631192867362,2043
1631192867366,2039
1631192867370,2037
1631192867374,2035
1631192867378,2034
1631192867382,2033
1631192867386,2031
1631192867390,2030
1631192867394,2030
1631192867398,2029
1631192867402,2029
1631192867406,2029
1631192867410,2028
1631192867414,2029
1631192867418,2028
1631192867422,2029
1631192867426,2029
1631192867430,2029
1631192867434,2029
1631192867438,2029
1631192867442,2030
1631192867446,2030
1631192867450,2030
1631192867454,2030
1631192867458,2030
1631192867462,2030
1631192867466,2031
1631192867470,2032
1631192867474,2033
1631192867478,2034
1631192867482,2035
1631192867486,2035
1631192867490,2034
1631192867494,2034
1631192867498,2034
1631192867502,2034
1631192867506,2036
1631192867510,2037
1631192867514,2038
1631192867518,2038
1631192867522,2038
1631192867526,2037
1631192867530,2037
1631192867534,2038
1631192867538,2038
1631192867542,2039
1631192867546,2039
1631192867550,2039
1631192867554,2039
1631192867558,2039
1631192867562,2039
1631192867566,2038
1631192867570,2038
1631192867574,2038
1631192867578,2038
1631192867582,2038
1631192867586,2038
1631192867590,2038
1631192867594,2038
1631192867598,2038
1631192867602,2038
1631192867606,2038
1631192867610,2038
1631192867614,2038
1631192867618,2038
1631192867622,2038
1631192867626,2039
1631192867630,2039
1631192867634,2039
1631192867638,2039
1631192867642,2039
1631192867646,2038
1631192867650,2038
1631192867654,2038
1631192867658,2038
1631192867662,2038
1631192867666,2039
1631192867670,2039
1631192867674,2040
1631192867678,2040
1631192867682,2040
1631192867686,2039
1631192867690,2039
1631192867694,2039
1631192867698,2040
1631192867702,2041
1631192867706,2042
1631192867710,2042
1631192867714,2043
1631192867718,2043
1631192867722,2043
1631192867726,2043
1631192867730,2042
1631192867734,2042
1631192867738,2042
1631192867742,2043
1631192867746,2044
1631192867750,2044
1631192867754,2045
1631192867758,2044
1631192867762,2044
1631192867766,2043
1631192867770,2043
1631192867774,2043
1631192867778,2043
1631192867782,2044
1631192867786,2044
1631192867790,2044
1631192867794,2044
1631192867798,2045
1631192867802,2045
1631192867806,2045
1631192867810,2045
1631192867814,2044
1631192867818,2044
1631192867822,2045
1631192867826,2045
1631192867830,2046
1631192867834,2046
1631192867838,2046
1631192867842,2046
1631192867846,2045
1631192867850,2045
1631192867854,2045
1631192867858,2046
1631192867862,2046
1631192867866,2046
1631192867870,2046
1631192867874,2046
1631192867878,2046
1631192867882,2046
1631192867886,2046
1631192867890,2046
1631192867894,2046
1631192867898,2047
1631192867902,2047
1631192867906,2046
1631192867910,2046
1631192867914,2045
1631192867918,2045
1631192867922,2045
1631192867926,2046
1631192867930,2047
1631192867934,2048
1631192867938,2050
1631192867942,2053
1631192867946,2056
1631192867950,2059
1631192867954,2060
1631192867958,2059
1631192867962,2058
1631192867966,2057
1631192867970,2056
1631192867974,2056
1631192867978,2055
1631192867982,2053
1631192867986,2051
1631192867990,2049
1631192867994,2048
1631192867998,2047
1631192868002,2047
1631192868006,2047
1631192868010,2047
1631192868014,2047
1631192868018,2048
1631192868022,2048
1631192868026,2049
1631192868030,2050
1631192868034,2049
1631192868038,2047
1631192868042,2039
1631192868046,2027
1631192868050,2013
1631192868054,2004
1631192868058,2007
1631192868062,2028
1631192868066,2069
1631192868070,2139
1631192868074,2240
1631192868078,2361
1631192868082,2469
1631192868086,2520
1631192868090,2485
1631192868094,2367
1631192868098,2207
1631192868102,2066
1631192868106,1986
1631192868110,1974
1631192868114,2006
1631192868118,2042
1631192868122,2059
1631192868126,2055
1631192868130,2045
1631192868134,2036
1631192868138,2032
1631192868142,2032
1631192868146,2032
1631192868150,2032
1631192868154,2033
1631192868158,2034
1631192868162,2035
1631192868166,2036
1631192868170,2037
1631192868174,2037
1631192868178,2038
1631192868182,2039
1631192868186,2040
1631192868190,2041
1631192868194,2042
1631192868198,2043
1631192868202,2044
1631192868206,2045
1631192868210,2046
1631192868214,2047
1631192868218,2048
1631192868222,2049
1631192868226,2051
1631192868230,2053
1631192868234,2055
1631192868238,2057
1631192868242,2058
1631192868246,2060
1631192868250,2062
1631192868254,2064
1631192868258,2067
1631192868262,2070
1631192868266,2073
1631192868270,2077
1631192868274,2081
1631192868278,2084
1631192868282,2088
1631192868286,2092
1631192868290,2095
1631192868294,2099
1631192868298,2103
1631192868302,2106
1631192868306,2109
1631192868310,2112
1631192868314,2114
1631192868318,2115
1631192868322,2115
1631192868326,2115
1631192868330,2115
1631192868334,2113
1631192868338,2110
1631192868342,2106
1631192868346,2101
1631192868350,2095
1631192868354,2089
1631192868358,2082
1631192868362,2075
1631192868366,2067
1631192868370,2059
1631192868374,2052
1631192868378,2047
1631192868382,2042
1631192868386,2039
1631192868390,2036
1631192868394,2033
1631192868398,2030
1631192868402,2027
1631192868406,2025
1631192868410,2023
1631192868414,2022
1631192868418,2021
1631192868422,2021
1631192868426,2021
1631192868430,2021
1631192868434,2021
1631192868438,2021
1631192868442,2021
1631192868446,2021
1631192868450,2021
1631192868454,2021
1631192868458,2021
1631192868462,2020
1631192868466,2021
1631192868470,2021
1631192868474,2022
1631192868478,2022
1631192868482,2023
1631192868486,2022
1631192868490,2022
1631192868494,2022
1631192868498,2022
1631192868502,2023
1631192868506,2024
1631192868510,2025
1631192868514,2026
1631192868518,2027
1631192868522,2027
1631192868526,2027
1631192868530,2027
1631192868534,2027
1631192868538,2028
1631192868542,2028
1631192868546,2030
1631192868550,2031
1631192868554,2031
1631192868558,2032
1631192868562,2031
1631192868566,2031
1631192868570,2031
1631192868574,2031
1631192868578,2031
1631192868582,2032
1631192868586,2032
1631192868590,2033
1631192868594,2033
1631192868598,2032
1631192868602,2032
1631192868606,2031
1631192868610,2031
1631192868614,2031
1631192868618,2031
1631192868622,2031
1631192868626,2031
1631192868630,2031
1631192868634,2031
1631192868638,2032
1631192868642,2032
1631192868646,2032
1631192868650,2032
1631192868654,2032
1631192868658,2031
1631192868662,2031
1631192868666,2031
1631192868670,2032
1631192868674,2033
1631192868678,2033
1631192868682,2033
1631192868686,2033
1631192868690,2032
1631192868694,2032
1631192868698,2032
1631192868702,2033
1631192868706,2034
1631192868710,2035
1631192868714,2036
1631192868718,2035
1631192868722,2035
1631192868726,2035
1631192868730,2035
1631192868734,2035
1631192868738,2036
1631192868742,2036
1631192868746,2037
1631192868750,2037
1631192868754,2037
1631192868758,2037
1631192868762,2037
1631192868766,2037
1631192868770,2037
1631192868774,2037
1631192868778,2037
1631192868782,2038
1631192868786,2038
1631192868790,2039
1631192868794,2040
1631192868798,2040
1631192868802,2040
1631192868806,2040
1631192868810,2039
1631192868814,2039
1631192868818,2039
1631192868822,2040
1631192868826,2040
1631192868830,2040
1631192868834,2041
1631192868838,2041
1631192868842,2041
1631192868846,2040
1631192868850,2041
1631192868854,2041
1631192868858,2041
1631192868862,2042
1631192868866,2042
1631192868870,2042
1631192868874,2041
1631192868878,2041
1631192868882,2042
1631192868886,2042
1631192868890,2042
1631192868894,2043
1631192868898,2043
1631192868902,2043
1631192868906,2043
1631192868910,2044
1631192868914,2044
1631192868918,2044
1631192868922,2043
1631192868926,2043
1631192868930,2042
1631192868934,2042
1631192868938,2043
1631192868942,2044
1631192868946,2045
1631192868950,2045
1631192868954,2045
1631192868958,2044
1631192868962,2044
1631192868966,2043
1631192868970,2044
1631192868974,2044
1631192868978,2046
1631192868982,2046
1631192868986,2047
1631192868990,2047
1631192868994,2046
1631192868998,2046
1631192869002,2046
1631192869006,2046
1631192869010,2045
1631192869014,2045
1631192869018,2046
1631192869022,2046
1631192869026,2046
1631192869030,2046
1631192869034,2046
1631192869038,2047
1631192869042,2046
1631192869046,2046
1631192869050,2045
1631192869054,2044
1631192869058,2043
1631192869062,2044
1631192869066,2045
1631192869070,2046
1631192869074,2048
1631192869078,2049
1631192869082,2052
1631192869086,2055
1631192869090,2057
1631192869094,2058
1631192869098,2058
1631192869102,2057
1631192869106,2057
1631192869110,2057
1631192869114,2057
1631192869118,2055
1631192869122,2052
1631192869126,2048
1631192869130,2047
1631192869134,2045
1631192869138,2046
1631192869142,2046
1631192869146,2047
1631192869150,2048
1631192869154,2047
1631192869158,2047
1631192869162,2047
1631192869166,2047
1631192869170,2048
1631192869174,2048
1631192869178,2045
1631192869182,2037
1631192869186,2026
1631192869190,2012
1631192869194,2004
1631192869198,2008
1631192869202,2029
1631192869206,2071
1631192869210,2142
1631192869214,2243
1631192869218,2364
1631192869222,2474
1631192869226,2527
1631192869230,2494
1631192869234,2379
1631192869238,2221
1631192869242,2078
1631192869246,1996
1631192869250,1980
1631192869254,2008
1631192869258,2042
1631192869262,2058
1631192869266,2054
1631192869270,2044
1631192869274,2035
1631192869278,2032
1631192869282,2031
1631192869286,2030
1631192869290,2031
1631192869294,2031
1631192869298,2031
1631192869302,2032
1631192869306,2033
1631192869310,2035
1631192869314,2036
1631192869318,2037
1631192869322,2038
1631192869326,2038
1631192869330,2039
1631192869334,2039
1631192869338,2040
1631192869342,2041
1631192869346,2043
1631192869350,2045
1631192869354,2046
1631192869358,2048
1631192869362,2049
1631192869366,2050
1631192869370,2051
1631192869374,2052
1631192869378,2054
1631192869382,2056
1631192869386,2058
1631192869390,2061
1631192869394,2063
1631192869398,2066
1631192869402,2069
1631192869406,2071
1631192869410,2074
1631192869414,2077
1631192869418,2080
1631192869422,2083
1631192869426,2087
1631192869430,2091
1631192869434,2096
1631192869438,2100
1631192869442,2103
1631192869446,2105
1631192869450,2107
1631192869454,2109
1631192869458,2110
1631192869462,2111
1631192869466,2112
1631192869470,2112
1631192869474,2112
1631192869478,2111
1631192869482,2108
1631192869486,2103
1631192869490,2097
1631192869494,2091
1631192869498,2085
1631192869502,2080
1631192869506,2074
1631192869510,2069
1631192869514,2062
1631192869518,2055
1631192869522,2049
1631192869526,2044
1631192869530,2039
1631192869534,2035
1631192869538,2032
1631192869542,2030
1631192869546,2029
1631192869550,2028
1631192869554,2026
1631192869558,2025
1631192869562,2024
1631192869566,2023
1631192869570,2022
1631192869574,2021
1631192869578,2021
1631192869582,2022
1631192869586,2022
1631192869590,2023
1631192869594,2024
1631192869598,2024
1631192869602,2024
1631192869606,2024
1631192869610,2023
1631192869614,2023
1631192869618,2023
1631192869622,2024
1631192869626,2025
1631192869630,2026
1631192869634,2027
1631192869638,2027
1631192869642,2027
1631192869646,2027
1631192869650,2027
1631192869654,2027
1631192869658,2027
1631192869662,2028
1631192869666,2028
1631192869670,2029
1631192869674,2030
1631192869678,2030
1631192869682,2030
1631192869686,2030
1631192869690,2030
1631192869694,2030
1631192869698,2030
1631192869702,2031
1631192869706,2032
1631192869710,2032
1631192869714,2032
1631192869718,2032
1631192869722,2032
1631192869726,2033
1631192869730,2033
1631192869734,2033
1631192869738,2033
1631192869742,2033
1631192869746,2033
1631192869750,2033
1631192869754,2033
1631192869758,2033
1631192869762,2032
1631192869766,2032
1631192869770,2032
1631192869774,2032
1631192869778,2032
1631192869782,2032
1631192869786,2032
1631192869790,2033
1631192869794,2033
1631192869798,2033
1631192869802,2032
1631192869806,2032
1631192869810,2032
1631192869814,2032
1631192869818,2033
1631192869822,2034
1631192869826,2034
1631192869830,2035
1631192869834,2035
1631192869838,2034
1631192869842,2034
1631192869846,2034
1631192869850,2034
1631192869854,2034
1631192869858,2034
1631192869862,2035
1631192869866,2036
1631192869870,2036
1631192869874,2036
1631192869878,2036
1631192869882,2035
1631192869886,2035
1631192869890,2036
1631192869894,2037
1631192869898,2038
1631192869902,2039
1631192869906,2039
1631192869910,2039
1631192869914,2039
1631192869918,2039
1631192869922,2039
1631192869926,2039
1631192869930,2039
1631192869934,2039
1631192869938,2039
1631192869942,2039
1631192869946,2039
1631192869950,2040
1631192869954,2040
1631192869958,2040
1631192869962,2040
1631192869966,2040
1631192869970,2040
1631192869974,2040
1631192869978,2040
1631192869982,2041
1631192869986,2041
1631192869990,2041
1631192869994,2041
1631192869998,2042
1631192870002,2042
1631192870006,2042
1631192870010,2042
1631192870014,2042
1631192870018,2042
1631192870022,2042
1631192870026,2042
1631192870030,2042
1631192870034,2042
1631192870038,2043
1631192870042,2043
1631192870046,2043
1631192870050,2043
1631192870054,2042
1631192870058,2042
1631192870062,2043
1631192870066,2043
1631192870070,2044
1631192870074,2044
1631192870078,2043
1631192870082,2043
1631192870086,2043
1631192870090,2043
1631192870094,2043
1631192870098,2043
1631192870102,2043
1631192870106,2044
1631192870110,2044
1631192870114,2044
1631192870118,2045
1631192870122,2045
1631192870126,2044
1631192870130,2044
1631192870134,2044
1631192870138,2044
1631192870142,2044
1631192870146,2044
1631192870150,2045
1631192870154,2045
1631192870158,2045
1631192870162,2045
1631192870166,2045
1631192870170,2044
1631192870174,2043
1631192870178,2043
1631192870182,2042
1631192870186,2042
1631192870190,2043
1631192870194,2044
1631192870198,2045
1631192870202,2046
1631192870206,2048
1631192870210,2050
1631192870214,2053
1631192870218,2055
1631192870222,2056
1631192870226,2057
1631192870230,2056
1631192870234,2056
1631192870238,2056
1631192870242,2055
1631192870246,2053
1631192870250,2051
1631192870254,2048
1631192870258,2045
1631192870262,2044
1631192870266,2044
1631192870270,2045
1631192870274,2046
1631192870278,2047
1631192870282,2047
1631192870286,2046
1631192870290,2045
1631192870294,2046
1631192870298,2047
1631192870302,2047
1631192870306,2043
1631192870310,2035
1631192870314,2023
1631192870318,2010
1631192870322,2004
1631192870326,2011
1631192870330,2035
1631192870334,2081
1631192870338,2158
1631192870342,2264
1631192870346,2385
1631192870350,2486
1631192870354,2523
1631192870358,2472
1631192870362,2343
1631192870366,2183
1631192870370,2049
1631192870374,1981
1631192870378,1977
1631192870382,2010
1631192870386,2044
1631192870390,2056
1631192870394,2051
1631192870398,2040
1631192870402,2032
1631192870406,2029
1631192870410,2029
1631192870414,2029
1631192870418,2030
1631192870422,2031
1631192870426,2032
1631192870430,2033
1631192870434,2033
1631192870438,2034
1631192870442,2034
1631192870446,2035
1631192870450,2036
1631192870454,2037
