timestamp,ecg_waveform
1629797528072,2060
1629797528076,2057
1629797528080,2055
1629797528084,2054
1629797528088,2054
1629797528092,2054
1629797528096,2055
1629797528100,2055
1629797528104,2055
1629797528108,2054
1629797528112,2052
1629797528116,2052
1629797528120,2052
1629797528124,2052
1629797528128,2053
1629797528132,2054
1629797528136,2055
1629797528140,2055
1629797528144,2055
1629797528148,2055
1629797528152,2055
1629797528156,2055
1629797528160,2054
1629797528164,2053
1629797528168,2053
1629797528172,2053
1629797528176,2054
1629797528180,2054
1629797528184,2055
1629797528188,2055
1629797528192,2056
1629797528196,2055
1629797528200,2055
1629797528204,2055
1629797528208,2054
1629797528212,2054
1629797528216,2054
1629797528220,2054
1629797528224,2055
1629797528228,2055
1629797528232,2056
1629797528236,2055
1629797528240,2055
1629797528244,2055
1629797528248,2054
1629797528252,2054
1629797528256,2053
1629797528260,2053
1629797528264,2052
1629797528268,2051
1629797528272,2052
1629797528276,2052
1629797528280,2053
1629797528284,2052
1629797528288,2051
1629797528292,2051
1629797528296,2050
1629797528300,2050
1629797528304,2049
1629797528308,2048
1629797528312,2048
1629797528316,2048
1629797528320,2049
1629797528324,2048
1629797528328,2048
1629797528332,2048
1629797528336,2048
1629797528340,2048
1629797528344,2047
1629797528348,2046
1629797528352,2045
1629797528356,2044
1629797528360,2044
1629797528364,2042
1629797528368,2042
1629797528372,2042
1629797528376,2043
1629797528380,2044
1629797528384,2044
1629797528388,2044
1629797528392,2044
1629797528396,2043
1629797528400,2042
1629797528404,2042
1629797528408,2043
1629797528412,2044
1629797528416,2046
1629797528420,2046
1629797528424,2047
1629797528428,2046
1629797528432,2046
1629797528436,2045
1629797528440,2043
1629797528444,2042
1629797528448,2041
1629797528452,2041
1629797528456,2042
1629797528460,2044
1629797528464,2045
1629797528468,2045
1629797528472,2047
1629797528476,2047
1629797528480,2046
1629797528484,2044
1629797528488,2043
1629797528492,2043
1629797528496,2044
1629797528500,2044
1629797528504,2044
1629797528508,2043
1629797528512,2043
1629797528516,2043
1629797528520,2044
1629797528524,2045
1629797528528,2046
1629797528532,2047
1629797528536,2048
1629797528540,2047
1629797528544,2047
1629797528548,2047
1629797528552,2048
1629797528556,2048
1629797528560,2049
1629797528564,2049
1629797528568,2049
1629797528572,2051
1629797528576,2054
1629797528580,2059
1629797528584,2064
1629797528588,2068
1629797528592,2074
1629797528596,2083
1629797528600,2099
1629797528604,2126
1629797528608,2155
1629797528612,2174
1629797528616,2171
1629797528620,2137
1629797528624,2081
1629797528628,2016
1629797528632,1963
1629797528636,1935
1629797528640,1934
1629797528644,1951
1629797528648,1975
1629797528652,1999
1629797528656,2016
1629797528660,2030
1629797528664,2043
1629797528668,2050
1629797528672,2055
1629797528676,2058
1629797528680,2059
1629797528684,2060
1629797528688,2061
1629797528692,2063
1629797528696,2064
1629797528700,2064
1629797528704,2065
1629797528708,2064
1629797528712,2065
1629797528716,2066
1629797528720,2067
1629797528724,2069
1629797528728,2069
1629797528732,2070
1629797528736,2070
1629797528740,2071
1629797528744,2073
1629797528748,2074
1629797528752,2074
1629797528756,2074
1629797528760,2074
1629797528764,2074
1629797528768,2074
1629797528772,2074
1629797528776,2075
1629797528780,2075
1629797528784,2077
1629797528788,2079
1629797528792,2080
1629797528796,2082
1629797528800,2083
1629797528804,2084
1629797528808,2084
1629797528812,2084
1629797528816,2085
1629797528820,2085
1629797528824,2086
1629797528828,2087
1629797528832,2087
1629797528836,2086
1629797528840,2086
1629797528844,2085
1629797528848,2084
1629797528852,2083
1629797528856,2081
1629797528860,2079
1629797528864,2080
1629797528868,2080
1629797528872,2080
1629797528876,2078
1629797528880,2076
1629797528884,2074
1629797528888,2071
1629797528892,2068
1629797528896,2066
1629797528900,2062
1629797528904,2060
1629797528908,2057
1629797528912,2056
1629797528916,2053
1629797528920,2050
1629797528924,2048
1629797528928,2047
1629797528932,2046
1629797528936,2045
1629797528940,2044
1629797528944,2044
1629797528948,2043
1629797528952,2042
1629797528956,2041
1629797528960,2040
1629797528964,2040
1629797528968,2040
1629797528972,2040
1629797528976,2040
1629797528980,2039
1629797528984,2040
1629797528988,2040
1629797528992,2041
1629797528996,2041
1629797529000,2040
1629797529004,2039
1629797529008,2039
1629797529012,2039
1629797529016,2040
1629797529020,2041
1629797529024,2041
1629797529028,2042
1629797529032,2042
1629797529036,2042
1629797529040,2041
1629797529044,2041
1629797529048,2041
1629797529052,2042
1629797529056,2042
1629797529060,2043
1629797529064,2043
1629797529068,2042
1629797529072,2043
1629797529076,2042
1629797529080,2042
1629797529084,2042
1629797529088,2043
1629797529092,2045
1629797529096,2047
1629797529100,2048
1629797529104,2049
1629797529108,2049
1629797529112,2048
1629797529116,2048
1629797529120,2048
1629797529124,2048
1629797529128,2049
1629797529132,2051
1629797529136,2052
1629797529140,2053
1629797529144,2054
1629797529148,2054
1629797529152,2054
1629797529156,2054
1629797529160,2054
1629797529164,2055
1629797529168,2055
1629797529172,2056
1629797529176,2056
1629797529180,2056
1629797529184,2057
1629797529188,2058
1629797529192,2059
1629797529196,2060
1629797529200,2060
1629797529204,2062
1629797529208,2062
1629797529212,2064
1629797529216,2065
1629797529220,2067
1629797529224,2069
1629797529228,2069
1629797529232,2071
1629797529236,2070
1629797529240,2070
1629797529244,2071
1629797529248,2072
1629797529252,2075
1629797529256,2078
1629797529260,2080
1629797529264,2081
1629797529268,2080
1629797529272,2080
1629797529276,2079
1629797529280,2079
1629797529284,2078
1629797529288,2078
1629797529292,2079
1629797529296,2080
1629797529300,2082
1629797529304,2083
1629797529308,2083
1629797529312,2083
1629797529316,2082
1629797529320,2082
1629797529324,2082
1629797529328,2083
1629797529332,2085
1629797529336,2086
1629797529340,2086
1629797529344,2085
1629797529348,2085
1629797529352,2086
1629797529356,2086
1629797529360,2087
1629797529364,2086
1629797529368,2089
1629797529372,2094
1629797529376,2101
1629797529380,2106
1629797529384,2109
1629797529388,2117
1629797529392,2129
1629797529396,2150
1629797529400,2177
1629797529404,2197
1629797529408,2197
1629797529412,2169
1629797529416,2118
1629797529420,2055
1629797529424,2001
1629797529428,1968
1629797529432,1961
1629797529436,1974
1629797529440,1995
1629797529444,2019
1629797529448,2038
1629797529452,2052
1629797529456,2064
1629797529460,2073
1629797529464,2080
1629797529468,2085
1629797529472,2089
1629797529476,2090
1629797529480,2089
1629797529484,2088
1629797529488,2086
1629797529492,2086
1629797529496,2088
1629797529500,2089
1629797529504,2090
1629797529508,2088
1629797529512,2087
1629797529516,2086
1629797529520,2085
1629797529524,2085
1629797529528,2085
1629797529532,2086
1629797529536,2088
1629797529540,2088
1629797529544,2089
1629797529548,2089
1629797529552,2089
1629797529556,2088
1629797529560,2087
1629797529564,2087
1629797529568,2088
1629797529572,2089
1629797529576,2090
1629797529580,2091
1629797529584,2093
1629797529588,2094
1629797529592,2095
1629797529596,2095
1629797529600,2096
1629797529604,2097
1629797529608,2098
1629797529612,2100
1629797529616,2102
1629797529620,2104
1629797529624,2106
1629797529628,2106
1629797529632,2105
1629797529636,2104
1629797529640,2102
1629797529644,2102
1629797529648,2102
1629797529652,2102
1629797529656,2102
1629797529660,2101
1629797529664,2100
1629797529668,2098
1629797529672,2096
1629797529676,2094
1629797529680,2091
1629797529684,2089
1629797529688,2086
1629797529692,2084
1629797529696,2081
1629797529700,2079
1629797529704,2077
1629797529708,2073
1629797529712,2071
1629797529716,2068
1629797529720,2066
1629797529724,2065
1629797529728,2063
1629797529732,2063
1629797529736,2062
1629797529740,2061
1629797529744,2061
1629797529748,2059
1629797529752,2057
1629797529756,2055
1629797529760,2054
1629797529764,2054
1629797529768,2054
1629797529772,2055
1629797529776,2055
1629797529780,2054
1629797529784,2053
1629797529788,2052
1629797529792,2051
1629797529796,2050
1629797529800,2049
1629797529804,2050
1629797529808,2051
1629797529812,2052
1629797529816,2052
1629797529820,2051
1629797529824,2049
1629797529828,2049
1629797529832,2049
1629797529836,2050
1629797529840,2051
1629797529844,2051
1629797529848,2050
1629797529852,2050
1629797529856,2050
1629797529860,2051
1629797529864,2053
1629797529868,2053
1629797529872,2053
1629797529876,2052
1629797529880,2051
1629797529884,2051
1629797529888,2052
1629797529892,2053
1629797529896,2054
1629797529900,2054
1629797529904,2056
1629797529908,2056
1629797529912,2056
1629797529916,2056
1629797529920,2056
1629797529924,2056
1629797529928,2057
1629797529932,2058
1629797529936,2058
1629797529940,2058
1629797529944,2058
1629797529948,2057
1629797529952,2057
1629797529956,2057
1629797529960,2058
1629797529964,2058
1629797529968,2057
1629797529972,2057
1629797529976,2057
1629797529980,2057
1629797529984,2057
1629797529988,2057
1629797529992,2057
1629797529996,2056
1629797530000,2055
1629797530004,2053
1629797530008,2050
1629797530012,2048
1629797530016,2048
1629797530020,2048
1629797530024,2049
1629797530028,2051
1629797530032,2054
1629797530036,2056
1629797530040,2057
1629797530044,2057
1629797530048,2056
1629797530052,2055
1629797530056,2054
1629797530060,2055
1629797530064,2056
1629797530068,2057
1629797530072,2057
1629797530076,2056
1629797530080,2056
1629797530084,2056
1629797530088,2056
1629797530092,2057
1629797530096,2057
1629797530100,2056
1629797530104,2056
1629797530108,2056
1629797530112,2055
1629797530116,2054
1629797530120,2053
1629797530124,2053
1629797530128,2052
1629797530132,2051
1629797530136,2053
1629797530140,2055
1629797530144,2061
1629797530148,2066
1629797530152,2071
1629797530156,2074
1629797530160,2079
1629797530164,2090
1629797530168,2109
1629797530172,2135
1629797530176,2156
1629797530180,2160
1629797530184,2138
1629797530188,2090
1629797530192,2030
1629797530196,1972
1629797530200,1935
1629797530204,1925
1629797530208,1935
1629797530212,1957
1629797530216,1981
1629797530220,2002
1629797530224,2018
1629797530228,2030
1629797530232,2041
1629797530236,2047
1629797530240,2050
1629797530244,2052
1629797530248,2052
1629797530252,2053
1629797530256,2054
1629797530260,2055
1629797530264,2056
1629797530268,2055
1629797530272,2056
1629797530276,2056
1629797530280,2057
1629797530284,2058
1629797530288,2058
1629797530292,2059
1629797530296,2058
1629797530300,2059
1629797530304,2059
1629797530308,2059
1629797530312,2061
1629797530316,2062
1629797530320,2063
1629797530324,2063
1629797530328,2064
1629797530332,2065
1629797530336,2066
1629797530340,2068
1629797530344,2068
1629797530348,2069
1629797530352,2070
1629797530356,2070
1629797530360,2072
1629797530364,2073
1629797530368,2076
1629797530372,2079
1629797530376,2081
1629797530380,2084
1629797530384,2085
1629797530388,2087
1629797530392,2089
1629797530396,2090
1629797530400,2092
1629797530404,2094
1629797530408,2095
1629797530412,2097
1629797530416,2098
1629797530420,2099
1629797530424,2099
1629797530428,2100
1629797530432,2101
1629797530436,2101
1629797530440,2100
1629797530444,2099
1629797530448,2098
1629797530452,2097
1629797530456,2095
1629797530460,2093
1629797530464,2091
1629797530468,2088
1629797530472,2088
1629797530476,2085
1629797530480,2083
1629797530484,2079
1629797530488,2076
1629797530492,2074
1629797530496,2074
1629797530500,2072
1629797530504,2070
1629797530508,2067
1629797530512,2064
1629797530516,2061
1629797530520,2061
1629797530524,2061
1629797530528,2061
1629797530532,2060
1629797530536,2059
1629797530540,2056
1629797530544,2055
1629797530548,2054
1629797530552,2055
1629797530556,2054
1629797530560,2054
1629797530564,2054
1629797530568,2053
1629797530572,2052
1629797530576,2051
1629797530580,2050
1629797530584,2051
1629797530588,2051
1629797530592,2052
1629797530596,2052
1629797530600,2051
1629797530604,2051
1629797530608,2051
1629797530612,2051
1629797530616,2051
1629797530620,2052
1629797530624,2053
1629797530628,2054
1629797530632,2055
1629797530636,2056
1629797530640,2056
1629797530644,2057
1629797530648,2057
1629797530652,2057
1629797530656,2058
1629797530660,2058
1629797530664,2058
1629797530668,2058
1629797530672,2058
1629797530676,2058
1629797530680,2058
1629797530684,2058
1629797530688,2059
1629797530692,2060
1629797530696,2060
1629797530700,2059
1629797530704,2058
1629797530708,2057
1629797530712,2056
1629797530716,2056
1629797530720,2056
1629797530724,2056
1629797530728,2057
1629797530732,2057
1629797530736,2057
1629797530740,2056
1629797530744,2057
1629797530748,2057
1629797530752,2057
1629797530756,2058
1629797530760,2058
1629797530764,2058
1629797530768,2058
1629797530772,2058
1629797530776,2058
1629797530780,2058
1629797530784,2059
1629797530788,2059
1629797530792,2058
1629797530796,2056
1629797530800,2054
1629797530804,2052
1629797530808,2050
1629797530812,2050
1629797530816,2052
1629797530820,2054
1629797530824,2056
1629797530828,2057
1629797530832,2058
1629797530836,2058
1629797530840,2058
1629797530844,2058
1629797530848,2058
1629797530852,2059
1629797530856,2061
1629797530860,2063
1629797530864,2064
1629797530868,2066
1629797530872,2067
1629797530876,2068
1629797530880,2068
1629797530884,2069
1629797530888,2069
1629797530892,2070
1629797530896,2072
1629797530900,2073
1629797530904,2074
1629797530908,2075
1629797530912,2077
1629797530916,2079
1629797530920,2080
1629797530924,2080
1629797530928,2080
1629797530932,2080
1629797530936,2083
1629797530940,2089
1629797530944,2095
1629797530948,2101
1629797530952,2106
1629797530956,2114
1629797530960,2129
1629797530964,2153
1629797530968,2183
1629797530972,2203
1629797530976,2203
1629797530980,2175
1629797530984,2125
1629797530988,2069
1629797530992,2024
1629797530996,2002
1629797531000,2004
1629797531004,2024
1629797531008,2050
1629797531012,2077
1629797531016,2098
1629797531020,2113
1629797531024,2125
1629797531028,2132
1629797531032,2138
1629797531036,2142
1629797531040,2145
1629797531044,2149
1629797531048,2152
1629797531052,2154
1629797531056,2158
1629797531060,2160
1629797531064,2161
1629797531068,2161
1629797531072,2162
1629797531076,2160
1629797531080,2158
1629797531084,2157
1629797531088,2157
1629797531092,2158
1629797531096,2160
1629797531100,2162
1629797531104,2165
1629797531108,2167
1629797531112,2171
1629797531116,2174
1629797531120,2178
1629797531124,2182
1629797531128,2185
1629797531132,2187
1629797531136,2190
1629797531140,2190
1629797531144,2191
1629797531148,2191
1629797531152,2191
1629797531156,2192
1629797531160,2193
1629797531164,2195
1629797531168,2194
1629797531172,2193
1629797531176,2191
1629797531180,2189
1629797531184,2188
1629797531188,2187
1629797531192,2187
1629797531196,2186
1629797531200,2184
1629797531204,2183
1629797531208,2180
1629797531212,2179
1629797531216,2178
1629797531220,2176
1629797531224,2176
1629797531228,2173
1629797531232,2170
1629797531236,2165
1629797531240,2159
1629797531244,2153
1629797531248,2147
1629797531252,2142
1629797531256,2136
1629797531260,2132
1629797531264,2126
1629797531268,2121
1629797531272,2117
1629797531276,2112
1629797531280,2108
1629797531284,2103
1629797531288,2098
1629797531292,2094
1629797531296,2091
1629797531300,2089
1629797531304,2085
1629797531308,2080
1629797531312,2076
1629797531316,2071
1629797531320,2068
1629797531324,2065
1629797531328,2063
1629797531332,2061
1629797531336,2058
1629797531340,2055
1629797531344,2052
1629797531348,2049
1629797531352,2048
1629797531356,2047
1629797531360,2046
1629797531364,2044
1629797531368,2043
1629797531372,2041
1629797531376,2039
1629797531380,2037
1629797531384,2034
1629797531388,2032
1629797531392,2030
1629797531396,2029
1629797531400,2028
1629797531404,2027
1629797531408,2026
1629797531412,2024
1629797531416,2023
1629797531420,2021
1629797531424,2021
1629797531428,2020
1629797531432,2019
1629797531436,2017
1629797531440,2015
1629797531444,2014
1629797531448,2014
1629797531452,2014
1629797531456,2013
1629797531460,2012
1629797531464,2011
1629797531468,2009
1629797531472,2010
1629797531476,2010
1629797531480,2010
1629797531484,2009
1629797531488,2007
1629797531492,2007
1629797531496,2007
1629797531500,2007
1629797531504,2007
1629797531508,2006
1629797531512,2005
1629797531516,2006
1629797531520,2006
1629797531524,2006
1629797531528,2005
1629797531532,2005
1629797531536,2005
1629797531540,2005
1629797531544,2006
1629797531548,2006
1629797531552,2005
1629797531556,2005
1629797531560,2004
1629797531564,2005
1629797531568,2005
1629797531572,2007
1629797531576,2007
1629797531580,2007
1629797531584,2007
1629797531588,2005
1629797531592,2005
1629797531596,2006
1629797531600,2007
1629797531604,2008
1629797531608,2008
1629797531612,2008
1629797531616,2008
1629797531620,2009
1629797531624,2009
1629797531628,2009
1629797531632,2008
1629797531636,2006
1629797531640,2005
1629797531644,2004
1629797531648,2004
1629797531652,2005
1629797531656,2006
1629797531660,2007
1629797531664,2009
1629797531668,2011
1629797531672,2011
1629797531676,2012
1629797531680,2011
1629797531684,2011
1629797531688,2010
1629797531692,2010
1629797531696,2010
1629797531700,2010
1629797531704,2011
1629797531708,2011
1629797531712,2012
1629797531716,2013
1629797531720,2014
1629797531724,2014
1629797531728,2012
1629797531732,2012
1629797531736,2013
1629797531740,2013
1629797531744,2016
1629797531748,2017
1629797531752,2017
1629797531756,2016
1629797531760,2015
1629797531764,2015
1629797531768,2016
1629797531772,2020
1629797531776,2025
1629797531780,2030
1629797531784,2036
1629797531788,2040
1629797531792,2048
1629797531796,2059
1629797531800,2079
1629797531804,2105
1629797531808,2127
1629797531812,2132
1629797531816,2111
1629797531820,2065
1629797531824,2007
1629797531828,1951
1629797531832,1916
1629797531836,1905
1629797531840,1917
1629797531844,1940
1629797531848,1965
1629797531852,1985
1629797531856,1997
1629797531860,2008
1629797531864,2017
1629797531868,2025
1629797531872,2031
1629797531876,2033
1629797531880,2033
1629797531884,2034
1629797531888,2034
1629797531892,2036
1629797531896,2039
1629797531900,2040
1629797531904,2041
1629797531908,2042
1629797531912,2042
1629797531916,2042
1629797531920,2042
1629797531924,2042
1629797531928,2041
1629797531932,2041
1629797531936,2042
1629797531940,2043
1629797531944,2045
1629797531948,2047
1629797531952,2049
1629797531956,2049
1629797531960,2049
1629797531964,2049
1629797531968,2050
1629797531972,2052
1629797531976,2054
1629797531980,2056
1629797531984,2058
1629797531988,2059
1629797531992,2061
1629797531996,2061
1629797532000,2061
1629797532004,2062
1629797532008,2063
1629797532012,2064
1629797532016,2066
1629797532020,2068
1629797532024,2069
1629797532028,2070
1629797532032,2071
1629797532036,2072
1629797532040,2072
1629797532044,2073
1629797532048,2073
1629797532052,2072
1629797532056,2073
1629797532060,2074
1629797532064,2074
1629797532068,2073
1629797532072,2073
1629797532076,2071
1629797532080,2069
1629797532084,2067
1629797532088,2065
1629797532092,2063
1629797532096,2061
1629797532100,2058
1629797532104,2055
1629797532108,2050
1629797532112,2048
1629797532116,2043
1629797532120,2040
1629797532124,2038
1629797532128,2036
1629797532132,2036
1629797532136,2035
1629797532140,2033
1629797532144,2032
1629797532148,2032
1629797532152,2031
1629797532156,2032
1629797532160,2032
1629797532164,2033
1629797532168,2032
1629797532172,2032
1629797532176,2030
1629797532180,2029
1629797532184,2029
1629797532188,2030
1629797532192,2032
1629797532196,2032
1629797532200,2032
1629797532204,2032
1629797532208,2031
1629797532212,2031
1629797532216,2031
1629797532220,2032
1629797532224,2034
1629797532228,2035
1629797532232,2035
1629797532236,2034
1629797532240,2034
1629797532244,2034
1629797532248,2034
1629797532252,2035
1629797532256,2036
1629797532260,2037
1629797532264,2037
1629797532268,2036
1629797532272,2037
1629797532276,2036
1629797532280,2037
1629797532284,2037
1629797532288,2036
1629797532292,2036
1629797532296,2037
1629797532300,2038
1629797532304,2039
1629797532308,2039
1629797532312,2040
1629797532316,2039
1629797532320,2039
1629797532324,2038
1629797532328,2037
1629797532332,2037
1629797532336,2037
1629797532340,2038
1629797532344,2038
1629797532348,2038
1629797532352,2038
1629797532356,2037
1629797532360,2038
1629797532364,2037
1629797532368,2038
1629797532372,2039
1629797532376,2039
1629797532380,2039
1629797532384,2038
1629797532388,2038
1629797532392,2039
1629797532396,2039
1629797532400,2040
1629797532404,2040
1629797532408,2040
1629797532412,2040
1629797532416,2041
1629797532420,2041
1629797532424,2041
1629797532428,2041
1629797532432,2042
1629797532436,2042
1629797532440,2041
1629797532444,2041
1629797532448,2040
1629797532452,2038
1629797532456,2037
1629797532460,2035
1629797532464,2035
1629797532468,2037
1629797532472,2040
1629797532476,2043
1629797532480,2045
1629797532484,2044
1629797532488,2042
1629797532492,2040
1629797532496,2040
1629797532500,2041
1629797532504,2042
1629797532508,2041
1629797532512,2041
1629797532516,2040
1629797532520,2040
1629797532524,2040
1629797532528,2040
1629797532532,2041
1629797532536,2043
1629797532540,2043
1629797532544,2044
1629797532548,2043
1629797532552,2042
1629797532556,2041
1629797532560,2040
1629797532564,2041
1629797532568,2041
1629797532572,2042
1629797532576,2041
1629797532580,2042
1629797532584,2044
1629797532588,2048
1629797532592,2054
1629797532596,2059
1629797532600,2062
1629797532604,2068
1629797532608,2078
1629797532612,2095
1629797532616,2119
1629797532620,2141
1629797532624,2148
1629797532628,2131
1629797532632,2088
1629797532636,2030
1629797532640,1971
1629797532644,1929
1629797532648,1912
1629797532652,1920
1629797532656,1941
1629797532660,1967
1629797532664,1991
1629797532668,2009
1629797532672,2023
1629797532676,2033
1629797532680,2038
1629797532684,2041
1629797532688,2043
1629797532692,2045
1629797532696,2046
1629797532700,2046
1629797532704,2047
1629797532708,2047
1629797532712,2048
1629797532716,2048
1629797532720,2048
1629797532724,2048
1629797532728,2047
1629797532732,2046
1629797532736,2045
1629797532740,2045
1629797532744,2047
1629797532748,2048
1629797532752,2048
1629797532756,2049
1629797532760,2049
1629797532764,2051
1629797532768,2052
1629797532772,2054
1629797532776,2055
1629797532780,2055
1629797532784,2056
1629797532788,2057
1629797532792,2057
1629797532796,2057
1629797532800,2056
1629797532804,2056
1629797532808,2056
1629797532812,2059
1629797532816,2062
1629797532820,2064
1629797532824,2066
1629797532828,2067
1629797532832,2067
1629797532836,2067
1629797532840,2068
1629797532844,2070
1629797532848,2070
1629797532852,2070
1629797532856,2070
1629797532860,2070
1629797532864,2072
1629797532868,2074
1629797532872,2076
1629797532876,2075
1629797532880,2073
1629797532884,2070
1629797532888,2067
1629797532892,2065
1629797532896,2062
1629797532900,2059
1629797532904,2057
1629797532908,2053
1629797532912,2051
1629797532916,2048
1629797532920,2045
1629797532924,2043
1629797532928,2040
1629797532932,2037
1629797532936,2034
1629797532940,2031
1629797532944,2029
1629797532948,2027
1629797532952,2027
1629797532956,2027
1629797532960,2028
1629797532964,2030
1629797532968,2033
1629797532972,2035
1629797532976,2037
1629797532980,2037
1629797532984,2038
1629797532988,2039
1629797532992,2041
1629797532996,2042
1629797533000,2044
1629797533004,2045
1629797533008,2046
1629797533012,2047
1629797533016,2048
1629797533020,2048
1629797533024,2049
1629797533028,2050
1629797533032,2052
1629797533036,2053
1629797533040,2055
1629797533044,2058
1629797533048,2060
1629797533052,2063
1629797533056,2065
1629797533060,2067
1629797533064,2069
1629797533068,2071
1629797533072,2073
1629797533076,2075
1629797533080,2075
1629797533084,2077
1629797533088,2078
1629797533092,2079
1629797533096,2079
1629797533100,2080
1629797533104,2080
1629797533108,2079
1629797533112,2080
1629797533116,2079
1629797533120,2079
1629797533124,2080
1629797533128,2081
1629797533132,2081
1629797533136,2082
1629797533140,2081
1629797533144,2080
1629797533148,2079
1629797533152,2078
1629797533156,2079
1629797533160,2079
1629797533164,2079
1629797533168,2079
1629797533172,2078
1629797533176,2079
1629797533180,2078
1629797533184,2078
1629797533188,2078
1629797533192,2079
1629797533196,2080
1629797533200,2082
1629797533204,2085
1629797533208,2086
1629797533212,2087
1629797533216,2087
1629797533220,2087
1629797533224,2089
1629797533228,2089
1629797533232,2090
1629797533236,2090
1629797533240,2089
1629797533244,2089
1629797533248,2087
1629797533252,2086
1629797533256,2086
1629797533260,2086
1629797533264,2087
1629797533268,2086
1629797533272,2085
1629797533276,2082
1629797533280,2080
1629797533284,2077
1629797533288,2073
1629797533292,2070
1629797533296,2065
1629797533300,2061
1629797533304,2056
1629797533308,2049
1629797533312,2045
1629797533316,2038
1629797533320,2034
1629797533324,2031
1629797533328,2031
1629797533332,2035
1629797533336,2040
1629797533340,2046
1629797533344,2051
1629797533348,2055
1629797533352,2060
1629797533356,2062
1629797533360,2063
1629797533364,2062
1629797533368,2062
1629797533372,2060
1629797533376,2059
1629797533380,2058
1629797533384,2056
1629797533388,2054
1629797533392,2055
1629797533396,2055
1629797533400,2057
1629797533404,2059
1629797533408,2061
1629797533412,2065
1629797533416,2071
1629797533420,2076
1629797533424,2082
1629797533428,2085
1629797533432,2089
1629797533436,2099
1629797533440,2117
1629797533444,2144
1629797533448,2168
1629797533452,2176
1629797533456,2158
1629797533460,2111
1629797533464,2049
1629797533468,1991
1629797533472,1952
1629797533476,1941
1629797533480,1955
1629797533484,1984
1629797533488,2017
1629797533492,2046
1629797533496,2066
1629797533500,2081
1629797533504,2091
1629797533508,2095
1629797533512,2097
1629797533516,2098
1629797533520,2097
1629797533524,2097
1629797533528,2096
1629797533532,2096
1629797533536,2095
1629797533540,2094
1629797533544,2094
1629797533548,2092
1629797533552,2092
1629797533556,2092
1629797533560,2093
1629797533564,2093
1629797533568,2092
1629797533572,2092
1629797533576,2091
1629797533580,2090
1629797533584,2090
1629797533588,2089
1629797533592,2091
1629797533596,2093
1629797533600,2096
1629797533604,2100
1629797533608,2103
1629797533612,2107
1629797533616,2110
1629797533620,2112
1629797533624,2114
1629797533628,2116
1629797533632,2118
1629797533636,2121
1629797533640,2124
1629797533644,2127
1629797533648,2129
1629797533652,2132
1629797533656,2134
1629797533660,2135
1629797533664,2138
1629797533668,2139
1629797533672,2139
1629797533676,2139
1629797533680,2139
1629797533684,2141
1629797533688,2142
1629797533692,2144
1629797533696,2145
1629797533700,2146
1629797533704,2145
1629797533708,2144
1629797533712,2142
1629797533716,2140
1629797533720,2138
1629797533724,2137
1629797533728,2133
1629797533732,2129
1629797533736,2125
1629797533740,2119
1629797533744,2115
1629797533748,2111
1629797533752,2107
1629797533756,2104
1629797533760,2101
1629797533764,2099
1629797533768,2097
1629797533772,2094
1629797533776,2090
1629797533780,2085
1629797533784,2083
1629797533788,2079
1629797533792,2078
1629797533796,2077
1629797533800,2076
1629797533804,2077
1629797533808,2077
1629797533812,2078
1629797533816,2078
1629797533820,2079
1629797533824,2081
1629797533828,2082
1629797533832,2083
1629797533836,2083
1629797533840,2083
1629797533844,2082
1629797533848,2079
1629797533852,2077
1629797533856,2073
1629797533860,2070
1629797533864,2068
1629797533868,2065
1629797533872,2063
1629797533876,2059
1629797533880,2055
1629797533884,2052
1629797533888,2050
1629797533892,2048
1629797533896,2046
1629797533900,2043
1629797533904,2040
1629797533908,2038
1629797533912,2037
1629797533916,2037
1629797533920,2036
1629797533924,2034
1629797533928,2032
1629797533932,2030
1629797533936,2029
1629797533940,2027
1629797533944,2027
1629797533948,2026
1629797533952,2027
1629797533956,2027
1629797533960,2028
1629797533964,2027
1629797533968,2025
1629797533972,2023
1629797533976,2021
1629797533980,2020
1629797533984,2020
1629797533988,2021
1629797533992,2022
1629797533996,2022
1629797534000,2022
1629797534004,2022
1629797534008,2021
1629797534012,2020
1629797534016,2020
1629797534020,2020
1629797534024,2021
1629797534028,2022
1629797534032,2024
1629797534036,2026
1629797534040,2026
1629797534044,2026
1629797534048,2025
1629797534052,2026
1629797534056,2026
1629797534060,2027
1629797534064,2028
1629797534068,2030
1629797534072,2032
1629797534076,2033
1629797534080,2033
1629797534084,2034
1629797534088,2035
1629797534092,2037
1629797534096,2041
1629797534100,2043
1629797534104,2044
1629797534108,2045
1629797534112,2046
1629797534116,2046
1629797534120,2047
1629797534124,2047
1629797534128,2045
1629797534132,2041
1629797534136,2037
1629797534140,2032
1629797534144,2029
1629797534148,2027
1629797534152,2027
1629797534156,2026
1629797534160,2025
1629797534164,2024
1629797534168,2022
1629797534172,2019
1629797534176,2016
1629797534180,2013
1629797534184,2009
1629797534188,2006
1629797534192,2002
1629797534196,1999
1629797534200,1995
1629797534204,1992
1629797534208,1988
1629797534212,1985
1629797534216,1984
1629797534220,1982
1629797534224,1983
1629797534228,1983
1629797534232,1983
1629797534236,1983
1629797534240,1983
1629797534244,1984
1629797534248,1984
1629797534252,1985
1629797534256,1986
1629797534260,1988
1629797534264,1992
1629797534268,1998
1629797534272,2007
1629797534276,2016
1629797534280,2027
1629797534284,2041
1629797534288,2060
1629797534292,2089
1629797534296,2126
1629797534300,2163
1629797534304,2188
1629797534308,2193
1629797534312,2180
1629797534316,2155
1629797534320,2135
1629797534324,2131
1629797534328,2152
1629797534332,2196
1629797534336,2257
1629797534340,2321
1629797534344,2378
1629797534348,2425
1629797534352,2466
1629797534356,2505
1629797534360,2548
1629797534364,2595
1629797534368,2646
1629797534372,2694
1629797534376,2737
1629797534380,2771
1629797534384,2790
1629797534388,2798
1629797534392,2797
1629797534396,2793
1629797534400,2790
1629797534404,2791
1629797534408,2795
1629797534412,2798
1629797534416,2797
1629797534420,2789
1629797534424,2776
1629797534428,2756
1629797534432,2731
1629797534436,2701
1629797534440,2665
1629797534444,2630
1629797534448,2595
1629797534452,2563
1629797534456,2534
1629797534460,2505
1629797534464,2479
1629797534468,2456
1629797534472,2438
1629797534476,2420
1629797534480,2402
1629797534484,2387
1629797534488,2378
1629797534492,2379
1629797534496,2390
1629797534500,2411
1629797534504,2438
1629797534508,2466
1629797534512,2498
1629797534516,2531
1629797534520,2560
1629797534524,2585
1629797534528,2598
1629797534532,2600
1629797534536,2591
1629797534540,2571
1629797534544,2545
1629797534548,2511
1629797534552,2472
1629797534556,2432
1629797534560,2391
1629797534564,2354
1629797534568,2322
1629797534572,2295
1629797534576,2271
1629797534580,2249
1629797534584,2228
1629797534588,2207
1629797534592,2188
1629797534596,2173
1629797534600,2160
1629797534604,2150
1629797534608,2139
1629797534612,2130
1629797534616,2119
1629797534620,2109
1629797534624,2100
1629797534628,2094
1629797534632,2090
1629797534636,2086
1629797534640,2083
1629797534644,2080
1629797534648,2074
1629797534652,2070
1629797534656,2067
1629797534660,2064
1629797534664,2063
1629797534668,2061
1629797534672,2059
1629797534676,2057
1629797534680,2054
1629797534684,2053
1629797534688,2051
1629797534692,2050
1629797534696,2048
1629797534700,2044
1629797534704,2041
1629797534708,2037
1629797534712,2033
1629797534716,2031
1629797534720,2029
1629797534724,2029
1629797534728,2027
1629797534732,2027
1629797534736,2025
1629797534740,2022
1629797534744,2021
1629797534748,2019
1629797534752,2018
1629797534756,2018
1629797534760,2017
1629797534764,2016
1629797534768,2015
1629797534772,2014
1629797534776,2013
1629797534780,2012
1629797534784,2012
1629797534788,2011
1629797534792,2010
1629797534796,2009
1629797534800,2008
1629797534804,2008
1629797534808,2007
1629797534812,2007
1629797534816,2007
1629797534820,2006
1629797534824,2006
1629797534828,2004
1629797534832,2003
1629797534836,2002
1629797534840,2001
1629797534844,2001
1629797534848,2000
1629797534852,1999
1629797534856,1999
1629797534860,2000
1629797534864,2001
1629797534868,2003
1629797534872,2007
1629797534876,2009
1629797534880,2012
1629797534884,2014
1629797534888,2014
1629797534892,2016
1629797534896,2018
1629797534900,2021
1629797534904,2025
1629797534908,2027
1629797534912,2029
1629797534916,2029
1629797534920,2029
1629797534924,2029
1629797534928,2029
1629797534932,2029
1629797534936,2028
1629797534940,2027
1629797534944,2027
1629797534948,2028
1629797534952,2029
1629797534956,2028
1629797534960,2029
1629797534964,2030
1629797534968,2030
1629797534972,2032
1629797534976,2032
1629797534980,2033
1629797534984,2033
1629797534988,2033
1629797534992,2033
1629797534996,2032
1629797535000,2031
1629797535004,2032
1629797535008,2033
1629797535012,2035
1629797535016,2038
1629797535020,2038
1629797535024,2038
1629797535028,2037
1629797535032,2035
1629797535036,2036
1629797535040,2035
1629797535044,2035
1629797535048,2034
1629797535052,2035
1629797535056,2036
1629797535060,2037
1629797535064,2038
1629797535068,2037
1629797535072,2036
1629797535076,2036
1629797535080,2037
1629797535084,2038
1629797535088,2039
1629797535092,2040
1629797535096,2039
1629797535100,2037
1629797535104,2037
1629797535108,2037
1629797535112,2038
1629797535116,2039
1629797535120,2043
1629797535124,2049
1629797535128,2056
1629797535132,2061
1629797535136,2061
1629797535140,2058
1629797535144,2059
1629797535148,2069
1629797535152,2092
1629797535156,2121
1629797535160,2141
1629797535164,2139
1629797535168,2106
1629797535172,2050
1629797535176,1989
1629797535180,1938
1629797535184,1911
1629797535188,1908
1629797535192,1920
1629797535196,1944
1629797535200,1973
1629797535204,1999
1629797535208,2016
1629797535212,2022
1629797535216,2014
1629797535220,1992
1629797535224,1968
1629797535228,1946
1629797535232,1935
1629797535236,1937
1629797535240,1954
1629797535244,1979
1629797535248,2002
1629797535252,2018
1629797535256,2019
1629797535260,2007
1629797535264,1986
1629797535268,1964
1629797535272,1947
1629797535276,1930
1629797535280,1918
1629797535284,1906
1629797535288,1895
1629797535292,1887
1629797535296,1881
1629797535300,1876
1629797535304,1872
1629797535308,1869
1629797535312,1868
1629797535316,1867
1629797535320,1865
1629797535324,1860
1629797535328,1851
1629797535332,1841
1629797535336,1833
1629797535340,1829
1629797535344,1828
1629797535348,1829
1629797535352,1828
1629797535356,1825
1629797535360,1819
1629797535364,1813
1629797535368,1811
1629797535372,1813
1629797535376,1818
1629797535380,1824
1629797535384,1827
1629797535388,1832
1629797535392,1841
1629797535396,1857
1629797535400,1880
1629797535404,1905
1629797535408,1928
1629797535412,1945
1629797535416,1955
1629797535420,1961
1629797535424,1966
1629797535428,1973
1629797535432,1981
1629797535436,1987
1629797535440,1992
1629797535444,1997
1629797535448,2002
1629797535452,2007
1629797535456,2012
1629797535460,2016
1629797535464,2020
1629797535468,2022
1629797535472,2025
1629797535476,2026
1629797535480,2026
1629797535484,2025
1629797535488,2023
1629797535492,2022
1629797535496,2023
1629797535500,2024
1629797535504,2025
1629797535508,2025
1629797535512,2026
1629797535516,2028
1629797535520,2029
1629797535524,2030
1629797535528,2030
1629797535532,2031
1629797535536,2031
1629797535540,2030
1629797535544,2029
1629797535548,2028
1629797535552,2025
1629797535556,2023
1629797535560,2021
1629797535564,2020
1629797535568,2019
1629797535572,2019
1629797535576,2020
1629797535580,2019
1629797535584,2020
1629797535588,2020
1629797535592,2021
1629797535596,2022
1629797535600,2022
1629797535604,2023
1629797535608,2023
1629797535612,2023
1629797535616,2025
1629797535620,2025
1629797535624,2026
1629797535628,2027
1629797535632,2027
1629797535636,2027
1629797535640,2027
1629797535644,2029
1629797535648,2029
1629797535652,2030
1629797535656,2030
1629797535660,2030
1629797535664,2031
1629797535668,2031
1629797535672,2032
1629797535676,2032
1629797535680,2032
1629797535684,2033
1629797535688,2034
1629797535692,2035
1629797535696,2036
1629797535700,2036
1629797535704,2036
1629797535708,2037
1629797535712,2038
1629797535716,2038
1629797535720,2039
1629797535724,2039
1629797535728,2039
1629797535732,2039
1629797535736,2039
1629797535740,2039
1629797535744,2040
1629797535748,2041
1629797535752,2042
1629797535756,2043
1629797535760,2043
1629797535764,2044
1629797535768,2044
1629797535772,2044
1629797535776,2044
1629797535780,2045
1629797535784,2046
1629797535788,2047
1629797535792,2048
1629797535796,2048
1629797535800,2046
1629797535804,2045
1629797535808,2043
1629797535812,2042
1629797535816,2042
1629797535820,2042
1629797535824,2043
1629797535828,2044
1629797535832,2046
1629797535836,2046
1629797535840,2046
1629797535844,2046
1629797535848,2045
1629797535852,2045
1629797535856,2046
1629797535860,2046
1629797535864,2047
1629797535868,2048
1629797535872,2048
1629797535876,2049
1629797535880,2049
1629797535884,2049
1629797535888,2049
1629797535892,2050
1629797535896,2051
1629797535900,2051
1629797535904,2052
1629797535908,2053
1629797535912,2054
1629797535916,2054
1629797535920,2054
1629797535924,2055
1629797535928,2055
1629797535932,2055
1629797535936,2056
1629797535940,2058
1629797535944,2064
1629797535948,2070
1629797535952,2078
1629797535956,2082
1629797535960,2087
1629797535964,2096
1629797535968,2114
1629797535972,2141
1629797535976,2167
1629797535980,2177
1629797535984,2158
1629797535988,2111
1629797535992,2047
1629797535996,1985
1629797536000,1942
1629797536004,1928
1629797536008,1938
1629797536012,1960
1629797536016,1986
1629797536020,2008
1629797536024,2026
1629797536028,2040
1629797536032,2052
1629797536036,2060
1629797536040,2065
1629797536044,2067
1629797536048,2068
1629797536052,2069
1629797536056,2070
1629797536060,2071
1629797536064,2073
1629797536068,2074
1629797536072,2075
1629797536076,2074
1629797536080,2074
1629797536084,2074
1629797536088,2076
1629797536092,2078
1629797536096,2080
1629797536100,2082
1629797536104,2082
1629797536108,2081
1629797536112,2080
1629797536116,2080
1629797536120,2080
1629797536124,2082
1629797536128,2084
1629797536132,2086
1629797536136,2088
1629797536140,2089
1629797536144,2090
1629797536148,2090
1629797536152,2091
1629797536156,2093
1629797536160,2094
1629797536164,2096
1629797536168,2098
1629797536172,2100
1629797536176,2102
1629797536180,2103
1629797536184,2105
1629797536188,2106
1629797536192,2107
1629797536196,2107
1629797536200,2108
1629797536204,2109
1629797536208,2108
1629797536212,2108
1629797536216,2108
1629797536220,2108
1629797536224,2108
1629797536228,2108
1629797536232,2108
1629797536236,2106
1629797536240,2104
1629797536244,2103
1629797536248,2100
1629797536252,2098
1629797536256,2095
1629797536260,2093
1629797536264,2089
1629797536268,2084
1629797536272,2080
1629797536276,2077
1629797536280,2075
1629797536284,2072
1629797536288,2069
1629797536292,2067
1629797536296,2065
1629797536300,2064
1629797536304,2062
1629797536308,2061
1629797536312,2061
1629797536316,2059
1629797536320,2059
1629797536324,2057
1629797536328,2056
1629797536332,2056
1629797536336,2057
1629797536340,2058
1629797536344,2057
1629797536348,2057
1629797536352,2057
1629797536356,2057
1629797536360,2057
1629797536364,2057
1629797536368,2059
1629797536372,2059
1629797536376,2060
1629797536380,2061
1629797536384,2060
1629797536388,2061
1629797536392,2061
1629797536396,2060
1629797536400,2060
1629797536404,2060
1629797536408,2060
1629797536412,2061
1629797536416,2061
1629797536420,2061
1629797536424,2060
1629797536428,2059
1629797536432,2058
1629797536436,2059
1629797536440,2060
1629797536444,2060
1629797536448,2059
1629797536452,2058
1629797536456,2058
1629797536460,2058
1629797536464,2058
1629797536468,2059
1629797536472,2060
1629797536476,2060
1629797536480,2058
1629797536484,2056
1629797536488,2054
1629797536492,2053
1629797536496,2054
1629797536500,2054
1629797536504,2053
1629797536508,2051
1629797536512,2050
1629797536516,2050
1629797536520,2050
1629797536524,2051
1629797536528,2051
1629797536532,2052
1629797536536,2054
1629797536540,2054
1629797536544,2056
1629797536548,2056
1629797536552,2056
1629797536556,2055
1629797536560,2054
1629797536564,2053
1629797536568,2052
1629797536572,2053
1629797536576,2053
1629797536580,2051
1629797536584,2051
1629797536588,2049
1629797536592,2048
1629797536596,2048
1629797536600,2047
1629797536604,2048
1629797536608,2046
1629797536612,2046
1629797536616,2045
1629797536620,2043
1629797536624,2041
1629797536628,2040
1629797536632,2039
1629797536636,2039
1629797536640,2039
1629797536644,2039
1629797536648,2038
1629797536652,2038
1629797536656,2037
1629797536660,2034
1629797536664,2033
1629797536668,2030
1629797536672,2029
1629797536676,2028
1629797536680,2028
1629797536684,2029
1629797536688,2030
1629797536692,2030
1629797536696,2029
1629797536700,2027
1629797536704,2026
1629797536708,2025
1629797536712,2024
1629797536716,2023
1629797536720,2023
1629797536724,2022
1629797536728,2019
1629797536732,2017
1629797536736,2015
1629797536740,2013
1629797536744,2013
1629797536748,2013
1629797536752,2013
1629797536756,2012
1629797536760,2012
1629797536764,2013
1629797536768,2014
1629797536772,2017
1629797536776,2020
1629797536780,2023
1629797536784,2025
1629797536788,2027
1629797536792,2030
1629797536796,2035
1629797536800,2043
1629797536804,2050
1629797536808,2056
1629797536812,2063
1629797536816,2073
1629797536820,2090
1629797536824,2118
1629797536828,2149
1629797536832,2169
1629797536836,2165
1629797536840,2131
1629797536844,2075
1629797536848,2014
1629797536852,1967
1629797536856,1947
1629797536860,1954
1629797536864,1980
1629797536868,2012
1629797536872,2042
1629797536876,2062
1629797536880,2080
1629797536884,2096
1629797536888,2109
1629797536892,2120
1629797536896,2128
1629797536900,2134
1629797536904,2141
1629797536908,2148
1629797536912,2154
1629797536916,2159
1629797536920,2164
1629797536924,2167
1629797536928,2169
1629797536932,2169
1629797536936,2171
1629797536940,2170
1629797536944,2170
1629797536948,2170
1629797536952,2168
1629797536956,2165
1629797536960,2161
1629797536964,2156
1629797536968,2153
1629797536972,2150
1629797536976,2151
1629797536980,2152
1629797536984,2155
1629797536988,2157
1629797536992,2160
1629797536996,2161
1629797537000,2162
1629797537004,2163
1629797537008,2164
1629797537012,2164
1629797537016,2165
1629797537020,2164
1629797537024,2164
1629797537028,2164
1629797537032,2164
1629797537036,2163
1629797537040,2162
1629797537044,2162
1629797537048,2162
1629797537052,2163
1629797537056,2163
1629797537060,2163
1629797537064,2162
1629797537068,2160
1629797537072,2158
1629797537076,2155
1629797537080,2152
1629797537084,2149
1629797537088,2146
1629797537092,2145
1629797537096,2142
1629797537100,2140
1629797537104,2136
1629797537108,2130
1629797537112,2125
1629797537116,2119
1629797537120,2114
1629797537124,2111
1629797537128,2107
1629797537132,2104
1629797537136,2099
1629797537140,2094
1629797537144,2090
1629797537148,2086
1629797537152,2084
1629797537156,2081
1629797537160,2078
1629797537164,2075
1629797537168,2073
1629797537172,2072
1629797537176,2072
1629797537180,2072
1629797537184,2071
1629797537188,2070
1629797537192,2068
1629797537196,2067
1629797537200,2065
1629797537204,2066
1629797537208,2065
1629797537212,2065
1629797537216,2066
1629797537220,2066
1629797537224,2066
1629797537228,2065
1629797537232,2066
1629797537236,2064
1629797537240,2063
1629797537244,2063
1629797537248,2061
1629797537252,2060
1629797537256,2060
1629797537260,2060
1629797537264,2060
1629797537268,2060
1629797537272,2060
1629797537276,2059
1629797537280,2059
1629797537284,2058
1629797537288,2058
1629797537292,2058
1629797537296,2058
1629797537300,2058
1629797537304,2058
1629797537308,2057
1629797537312,2057
1629797537316,2056
1629797537320,2056
1629797537324,2056
1629797537328,2055
1629797537332,2055
1629797537336,2055
1629797537340,2055
1629797537344,2054
1629797537348,2053
1629797537352,2053
1629797537356,2052
1629797537360,2052
1629797537364,2051
1629797537368,2051
1629797537372,2051
1629797537376,2052
1629797537380,2053
1629797537384,2053
1629797537388,2053
1629797537392,2054
1629797537396,2053
1629797537400,2052
1629797537404,2051
1629797537408,2052
1629797537412,2052
1629797537416,2052
1629797537420,2051
1629797537424,2050
1629797537428,2050
1629797537432,2051
1629797537436,2051
1629797537440,2051
1629797537444,2050
1629797537448,2049
1629797537452,2049
1629797537456,2049
1629797537460,2050
1629797537464,2051
1629797537468,2052
1629797537472,2053
1629797537476,2052
1629797537480,2050
1629797537484,2048
1629797537488,2048
1629797537492,2048
1629797537496,2050
1629797537500,2050
1629797537504,2051
1629797537508,2050
1629797537512,2049
1629797537516,2049
1629797537520,2049
1629797537524,2049
1629797537528,2048
1629797537532,2048
1629797537536,2047
1629797537540,2046
1629797537544,2046
1629797537548,2044
1629797537552,2044
1629797537556,2043
1629797537560,2045
1629797537564,2047
1629797537568,2048
1629797537572,2048
1629797537576,2048
1629797537580,2048
1629797537584,2047
1629797537588,2046
1629797537592,2045
1629797537596,2045
1629797537600,2046
1629797537604,2046
1629797537608,2046
1629797537612,2046
1629797537616,2046
1629797537620,2045
1629797537624,2045
1629797537628,2045
1629797537632,2046
1629797537636,2046
1629797537640,2046
1629797537644,2047
1629797537648,2047
1629797537652,2047
1629797537656,2046
1629797537660,2046
1629797537664,2047
1629797537668,2048
1629797537672,2052
1629797537676,2056
1629797537680,2062
1629797537684,2067
1629797537688,2073
1629797537692,2081
1629797537696,2097
1629797537700,2120
1629797537704,2150
1629797537708,2172
1629797537712,2173
1629797537716,2145
1629797537720,2090
1629797537724,2026
1629797537728,1969
1629797537732,1936
1629797537736,1931
1629797537740,1947
1629797537744,1972
1629797537748,1997
1629797537752,2018
1629797537756,2033
1629797537760,2046
1629797537764,2054
1629797537768,2060
1629797537772,2063
1629797537776,2066
1629797537780,2067
1629797537784,2068
1629797537788,2069
1629797537792,2071
1629797537796,2071
1629797537800,2072
1629797537804,2073
1629797537808,2073
1629797537812,2074
1629797537816,2075
1629797537820,2076
1629797537824,2078
1629797537828,2079
1629797537832,2081
1629797537836,2081
1629797537840,2080
1629797537844,2081
1629797537848,2082
1629797537852,2083
1629797537856,2085
1629797537860,2085
1629797537864,2085
1629797537868,2084
1629797537872,2084
1629797537876,2085
1629797537880,2086
1629797537884,2088
1629797537888,2090
1629797537892,2091
1629797537896,2092
1629797537900,2093
1629797537904,2094
1629797537908,2096
1629797537912,2098
1629797537916,2099
1629797537920,2100
1629797537924,2100
1629797537928,2098
1629797537932,2097
1629797537936,2095
1629797537940,2093
1629797537944,2093
1629797537948,2092
1629797537952,2091
1629797537956,2089
1629797537960,2086
1629797537964,2083
1629797537968,2080
1629797537972,2077
1629797537976,2075
1629797537980,2072
1629797537984,2068
1629797537988,2063
1629797537992,2058
1629797537996,2054
1629797538000,2050
1629797538004,2048
1629797538008,2046
1629797538012,2044
1629797538016,2043
1629797538020,2041
1629797538024,2040
1629797538028,2038
1629797538032,2036
1629797538036,2033
1629797538040,2030
1629797538044,2028
1629797538048,2026
1629797538052,2025
1629797538056,2023
1629797538060,2023
1629797538064,2023
1629797538068,2024
1629797538072,2024
1629797538076,2023
1629797538080,2021
1629797538084,2019
1629797538088,2020
1629797538092,2022
1629797538096,2027
1629797538100,2032
1629797538104,2036
1629797538108,2040
1629797538112,2042
1629797538116,2045
1629797538120,2048
1629797538124,2053
1629797538128,2056
1629797538132,2059
1629797538136,2060
1629797538140,2059
1629797538144,2058
1629797538148,2058
1629797538152,2060
1629797538156,2062
1629797538160,2063
1629797538164,2063
1629797538168,2061
1629797538172,2059
1629797538176,2058
1629797538180,2058
1629797538184,2060
1629797538188,2062
1629797538192,2065
1629797538196,2068
1629797538200,2070
1629797538204,2074
1629797538208,2077
1629797538212,2083
1629797538216,2091
1629797538220,2099
1629797538224,2108
1629797538228,2115
1629797538232,2121
1629797538236,2125
1629797538240,2127
1629797538244,2126
1629797538248,2123
1629797538252,2120
1629797538256,2118
1629797538260,2118
1629797538264,2120
1629797538268,2123
1629797538272,2126
1629797538276,2125
1629797538280,2124
1629797538284,2118
1629797538288,2112
1629797538292,2108
1629797538296,2106
1629797538300,2106
1629797538304,2109
1629797538308,2113
1629797538312,2119
1629797538316,2122
1629797538320,2124
1629797538324,2123
1629797538328,2122
1629797538332,2122
1629797538336,2124
1629797538340,2128
1629797538344,2132
1629797538348,2137
1629797538352,2142
1629797538356,2148
1629797538360,2154
1629797538364,2160
1629797538368,2166
1629797538372,2170
1629797538376,2173
1629797538380,2176
1629797538384,2178
1629797538388,2182
1629797538392,2191
1629797538396,2200
1629797538400,2206
1629797538404,2208
1629797538408,2204
1629797538412,2196
1629797538416,2187
1629797538420,2182
1629797538424,2181
1629797538428,2184
1629797538432,2189
1629797538436,2192
1629797538440,2191
1629797538444,2188
1629797538448,2182
1629797538452,2176
1629797538456,2169
1629797538460,2162
1629797538464,2157
1629797538468,2152
1629797538472,2148
1629797538476,2143
1629797538480,2136
1629797538484,2128
1629797538488,2119
1629797538492,2112
1629797538496,2107
1629797538500,2101
1629797538504,2097
1629797538508,2095
1629797538512,2095
1629797538516,2099
1629797538520,2104
1629797538524,2113
1629797538528,2126
1629797538532,2145
1629797538536,2171
1629797538540,2193
1629797538544,2199
1629797538548,2181
1629797538552,2139
1629797538556,2085
1629797538560,2035
1629797538564,2004
1629797538568,1997
1629797538572,2012
1629797538576,2038
1629797538580,2064
1629797538584,2088
1629797538588,2104
1629797538592,2118
1629797538596,2128
1629797538600,2136
1629797538604,2144
1629797538608,2148
1629797538612,2149
1629797538616,2147
1629797538620,2143
1629797538624,2142
1629797538628,2141
1629797538632,2143
1629797538636,2144
1629797538640,2144
1629797538644,2143
1629797538648,2141
1629797538652,2142
1629797538656,2142
1629797538660,2142
1629797538664,2142
1629797538668,2141
1629797538672,2141
1629797538676,2141
1629797538680,2141
1629797538684,2142
1629797538688,2140
1629797538692,2139
1629797538696,2137
1629797538700,2135
1629797538704,2135
1629797538708,2135
1629797538712,2134
1629797538716,2134
1629797538720,2133
1629797538724,2133
1629797538728,2129
1629797538732,2126
1629797538736,2120
1629797538740,2115
1629797538744,2115
1629797538748,2118
1629797538752,2124
1629797538756,2128
1629797538760,2131
1629797538764,2131
1629797538768,2129
1629797538772,2128
1629797538776,2129
1629797538780,2128
1629797538784,2126
1629797538788,2122
1629797538792,2117
1629797538796,2111
1629797538800,2106
1629797538804,2102
1629797538808,2098
1629797538812,2095
1629797538816,2094
1629797538820,2093
1629797538824,2090
1629797538828,2085
1629797538832,2078
1629797538836,2069
1629797538840,2061
1629797538844,2054
1629797538848,2047
1629797538852,2039
1629797538856,2031
1629797538860,2023
1629797538864,2017
1629797538868,2011
1629797538872,2006
1629797538876,1999
1629797538880,1992
1629797538884,1986
1629797538888,1979
1629797538892,1973
1629797538896,1966
1629797538900,1959
1629797538904,1954
1629797538908,1950
1629797538912,1948
1629797538916,1945
1629797538920,1942
1629797538924,1940
1629797538928,1938
1629797538932,1937
1629797538936,1937
1629797538940,1936
1629797538944,1936
1629797538948,1936
1629797538952,1936
1629797538956,1937
1629797538960,1939
1629797538964,1941
1629797538968,1944
1629797538972,1946
1629797538976,1950
1629797538980,1953
1629797538984,1958
1629797538988,1962
1629797538992,1967
1629797538996,1970
1629797539000,1973
1629797539004,1975
1629797539008,1977
1629797539012,1979
1629797539016,1981
1629797539020,1982
1629797539024,1983
1629797539028,1986
1629797539032,1988
1629797539036,1991
1629797539040,1994
1629797539044,1996
1629797539048,2000
1629797539052,2003
1629797539056,2006
1629797539060,2008
1629797539064,2010
1629797539068,2010
1629797539072,2011
1629797539076,2012
1629797539080,2014
1629797539084,2016
1629797539088,2020
1629797539092,2025
1629797539096,2029
1629797539100,2031
1629797539104,2032
1629797539108,2032
1629797539112,2032
1629797539116,2034
1629797539120,2037
1629797539124,2041
1629797539128,2045
1629797539132,2046
1629797539136,2047
1629797539140,2045
1629797539144,2043
1629797539148,2041
1629797539152,2040
1629797539156,2039
1629797539160,2038
1629797539164,2037
1629797539168,2037
1629797539172,2038
1629797539176,2038
1629797539180,2034
1629797539184,2027
1629797539188,2017
1629797539192,2006
1629797539196,1995
1629797539200,1985
1629797539204,1978
1629797539208,1971
1629797539212,1969
1629797539216,1967
1629797539220,1968
1629797539224,1971
1629797539228,1975
1629797539232,1980
1629797539236,1984
1629797539240,1988
1629797539244,1993
1629797539248,1995
1629797539252,1998
1629797539256,2000
1629797539260,2001
1629797539264,2003
1629797539268,2006
1629797539272,2010
1629797539276,2013
1629797539280,2016
1629797539284,2015
1629797539288,2012
1629797539292,2009
1629797539296,2005
1629797539300,2003
1629797539304,2002
1629797539308,2003
1629797539312,2007
1629797539316,2013
1629797539320,2021
1629797539324,2027
1629797539328,2035
1629797539332,2047
1629797539336,2064
1629797539340,2086
1629797539344,2102
1629797539348,2100
1629797539352,2074
1629797539356,2023
1629797539360,1959
1629797539364,1899
1629797539368,1859
1629797539372,1846
1629797539376,1855
1629797539380,1876
1629797539384,1899
1629797539388,1917
1629797539392,1927
1629797539396,1933
1629797539400,1938
1629797539404,1939
1629797539408,1938
1629797539412,1935
1629797539416,1929
1629797539420,1924
1629797539424,1919
1629797539428,1915
1629797539432,1911
1629797539436,1905
1629797539440,1901
1629797539444,1899
1629797539448,1899
1629797539452,1903
1629797539456,1910
1629797539460,1918
1629797539464,1927
1629797539468,1937
1629797539472,1945
1629797539476,1954
1629797539480,1960
1629797539484,1966
1629797539488,1972
1629797539492,1978
1629797539496,1983
1629797539500,1985
1629797539504,1985
1629797539508,1982
1629797539512,1980
1629797539516,1979
1629797539520,1978
1629797539524,1978
1629797539528,1976
1629797539532,1975
1629797539536,1973
1629797539540,1972
1629797539544,1972
1629797539548,1970
1629797539552,1966
1629797539556,1960
1629797539560,1952
1629797539564,1944
1629797539568,1934
1629797539572,1926
1629797539576,1917
1629797539580,1909
1629797539584,1901
1629797539588,1893
1629797539592,1887
1629797539596,1880
1629797539600,1872
1629797539604,1865
1629797539608,1857
1629797539612,1853
1629797539616,1851
1629797539620,1851
1629797539624,1853
1629797539628,1854
1629797539632,1856
1629797539636,1858
1629797539640,1860
1629797539644,1863
1629797539648,1866
1629797539652,1870
1629797539656,1874
1629797539660,1877
1629797539664,1881
1629797539668,1885
1629797539672,1889
1629797539676,1894
1629797539680,1899
1629797539684,1905
1629797539688,1910
1629797539692,1914
1629797539696,1917
1629797539700,1920
1629797539704,1926
1629797539708,1931
1629797539712,1937
1629797539716,1942
1629797539720,1947
1629797539724,1951
1629797539728,1955
1629797539732,1960
1629797539736,1965
1629797539740,1969
1629797539744,1974
1629797539748,1977
1629797539752,1982
1629797539756,1985
1629797539760,1988
1629797539764,1992
1629797539768,1995
1629797539772,1998
1629797539776,2002
1629797539780,2004
1629797539784,2008
1629797539788,2011
1629797539792,2015
1629797539796,2018
1629797539800,2020
1629797539804,2022
1629797539808,2024
1629797539812,2026
1629797539816,2028
1629797539820,2031
1629797539824,2034
1629797539828,2037
1629797539832,2040
1629797539836,2042
1629797539840,2043
1629797539844,2045
1629797539848,2045
1629797539852,2045
1629797539856,2046
1629797539860,2048
1629797539864,2049
1629797539868,2052
1629797539872,2055
1629797539876,2056
1629797539880,2055
1629797539884,2055
1629797539888,2054
1629797539892,2053
1629797539896,2052
1629797539900,2052
1629797539904,2054
1629797539908,2055
1629797539912,2057
1629797539916,2057
1629797539920,2057
1629797539924,2055
1629797539928,2054
1629797539932,2053
1629797539936,2053
1629797539940,2054
1629797539944,2055
1629797539948,2057
1629797539952,2058
1629797539956,2059
1629797539960,2059
1629797539964,2058
1629797539968,2058
1629797539972,2058
1629797539976,2058
1629797539980,2058
1629797539984,2058
1629797539988,2058
1629797539992,2060
1629797539996,2060
1629797540000,2061
1629797540004,2061
1629797540008,2061
1629797540012,2061
1629797540016,2061
1629797540020,2061
1629797540024,2061
1629797540028,2060
1629797540032,2060
1629797540036,2060
1629797540040,2060
1629797540044,2060
1629797540048,2060
1629797540052,2060
1629797540056,2060
1629797540060,2059
1629797540064,2059
1629797540068,2059
1629797540072,2060
1629797540076,2060
1629797540080,2059
1629797540084,2058
1629797540088,2057
1629797540092,2056
1629797540096,2056
1629797540100,2057
1629797540104,2059
1629797540108,2058
1629797540112,2058
1629797540116,2057
1629797540120,2058
1629797540124,2061
1629797540128,2064
1629797540132,2067
1629797540136,2069
1629797540140,2069
1629797540144,2068
1629797540148,2069
1629797540152,2070
1629797540156,2073
1629797540160,2077
1629797540164,2082
1629797540168,2087
1629797540172,2091
1629797540176,2096
1629797540180,2100
1629797540184,2104
1629797540188,2108
1629797540192,2113
1629797540196,2117
1629797540200,2122
1629797540204,2127
1629797540208,2130
1629797540212,2134
1629797540216,2140
1629797540220,2147
1629797540224,2155
1629797540228,2161
1629797540232,2166
1629797540236,2173
1629797540240,2185
1629797540244,2206
1629797540248,2234
1629797540252,2258
1629797540256,2265
1629797540260,2245
1629797540264,2198
1629797540268,2134
1629797540272,2077
1629797540276,2040
1629797540280,2032
1629797540284,2048
1629797540288,2077
1629797540292,2111
1629797540296,2140
1629797540300,2162
1629797540304,2178
1629797540308,2188
1629797540312,2194
1629797540316,2195
1629797540320,2194
1629797540324,2192
1629797540328,2189
1629797540332,2186
1629797540336,2185
1629797540340,2184
1629797540344,2182
1629797540348,2183
1629797540352,2186
1629797540356,2188
1629797540360,2191
1629797540364,2191
1629797540368,2190
1629797540372,2188
1629797540376,2187
1629797540380,2187
1629797540384,2186
1629797540388,2185
1629797540392,2184
1629797540396,2182
1629797540400,2179
1629797540404,2177
1629797540408,2175
1629797540412,2174
1629797540416,2172
1629797540420,2170
1629797540424,2169
1629797540428,2166
1629797540432,2165
1629797540436,2162
1629797540440,2161
1629797540444,2161
1629797540448,2160
1629797540452,2161
1629797540456,2160
1629797540460,2159
1629797540464,2157
1629797540468,2155
1629797540472,2155
1629797540476,2155
1629797540480,2153
1629797540484,2151
1629797540488,2148
1629797540492,2145
1629797540496,2144
1629797540500,2141
1629797540504,2138
1629797540508,2132
1629797540512,2127
1629797540516,2123
1629797540520,2119
1629797540524,2115
1629797540528,2110
1629797540532,2103
1629797540536,2097
1629797540540,2090
1629797540544,2084
1629797540548,2079
1629797540552,2073
1629797540556,2068
1629797540560,2063
1629797540564,2059
1629797540568,2055
1629797540572,2052
1629797540576,2048
1629797540580,2045
1629797540584,2042
1629797540588,2038
1629797540592,2036
1629797540596,2034
1629797540600,2031
1629797540604,2029
1629797540608,2025
1629797540612,2024
1629797540616,2023
1629797540620,2022
1629797540624,2023
1629797540628,2022
1629797540632,2021
1629797540636,2020
1629797540640,2018
1629797540644,2018
1629797540648,2018
1629797540652,2018
1629797540656,2018
1629797540660,2017
1629797540664,2018
1629797540668,2017
1629797540672,2017
1629797540676,2016
1629797540680,2015
1629797540684,2014
1629797540688,2014
1629797540692,2015
1629797540696,2016
1629797540700,2015
1629797540704,2016
1629797540708,2015
1629797540712,2015
1629797540716,2014
1629797540720,2015
1629797540724,2015
1629797540728,2014
1629797540732,2015
1629797540736,2017
1629797540740,2017
1629797540744,2019
1629797540748,2020
1629797540752,2020
1629797540756,2020
1629797540760,2020
1629797540764,2021
1629797540768,2022
1629797540772,2023
1629797540776,2024
1629797540780,2023
1629797540784,2024
1629797540788,2024
1629797540792,2024
1629797540796,2023
1629797540800,2023
1629797540804,2024
1629797540808,2025
1629797540812,2026
1629797540816,2027
1629797540820,2026
1629797540824,2026
1629797540828,2025
1629797540832,2025
1629797540836,2025
1629797540840,2025
1629797540844,2027
1629797540848,2027
1629797540852,2027
1629797540856,2027
1629797540860,2026
1629797540864,2026
1629797540868,2027
1629797540872,2027
1629797540876,2027
1629797540880,2027
1629797540884,2027
1629797540888,2027
1629797540892,2027
1629797540896,2027
1629797540900,2027
1629797540904,2027
1629797540908,2027
1629797540912,2028
1629797540916,2027
1629797540920,2026
1629797540924,2026
1629797540928,2026
1629797540932,2027
1629797540936,2028
1629797540940,2027
1629797540944,2027
1629797540948,2027
1629797540952,2028
1629797540956,2028
1629797540960,2028
1629797540964,2029
1629797540968,2029
1629797540972,2029
1629797540976,2029
1629797540980,2028
1629797540984,2028
1629797540988,2027
1629797540992,2027
1629797540996,2027
1629797541000,2027
1629797541004,2028
1629797541008,2029
1629797541012,2030
1629797541016,2030
1629797541020,2030
1629797541024,2030
1629797541028,2029
1629797541032,2029
1629797541036,2028
1629797541040,2028
1629797541044,2027
1629797541048,2027
1629797541052,2026
1629797541056,2027
1629797541060,2027
1629797541064,2027
1629797541068,2027
1629797541072,2027
1629797541076,2027
1629797541080,2026
1629797541084,2026
1629797541088,2027
1629797541092,2028
1629797541096,2029
1629797541100,2029
1629797541104,2028
1629797541108,2027
1629797541112,2027
1629797541116,2029
1629797541120,2035
1629797541124,2041
1629797541128,2046
1629797541132,2051
1629797541136,2061
1629797541140,2077
1629797541144,2103
1629797541148,2133
1629797541152,2153
1629797541156,2149
1629797541160,2115
1629797541164,2056
1629797541168,1992
1629797541172,1938
1629797541176,1910
1629797541180,1909
1629797541184,1926
1629797541188,1950
1629797541192,1974
1629797541196,1990
1629797541200,2003
1629797541204,2015
1629797541208,2022
1629797541212,2028
1629797541216,2033
1629797541220,2036
1629797541224,2038
1629797541228,2039
1629797541232,2040
1629797541236,2040
1629797541240,2041
1629797541244,2042
1629797541248,2043
1629797541252,2044
1629797541256,2045
1629797541260,2046
1629797541264,2047
1629797541268,2047
1629797541272,2048
1629797541276,2048
1629797541280,2050
1629797541284,2051
1629797541288,2051
1629797541292,2052
1629797541296,2053
1629797541300,2054
1629797541304,2055
1629797541308,2055
1629797541312,2057
1629797541316,2058
1629797541320,2060
1629797541324,2062
1629797541328,2064
1629797541332,2066
1629797541336,2067
1629797541340,2070
1629797541344,2070
1629797541348,2072
1629797541352,2074
1629797541356,2075
1629797541360,2077
1629797541364,2079
1629797541368,2081
1629797541372,2082
1629797541376,2083
1629797541380,2084
1629797541384,2084
1629797541388,2085
1629797541392,2085
1629797541396,2085
1629797541400,2084
1629797541404,2084
1629797541408,2084
1629797541412,2084
1629797541416,2083
1629797541420,2081
1629797541424,2079
1629797541428,2077
1629797541432,2075
1629797541436,2072
1629797541440,2069
1629797541444,2066
1629797541448,2063
1629797541452,2060
1629797541456,2058
1629797541460,2055
1629797541464,2052
1629797541468,2050
1629797541472,2048
1629797541476,2048
1629797541480,2046
1629797541484,2043
1629797541488,2041
1629797541492,2040
1629797541496,2040
1629797541500,2040
1629797541504,2040
1629797541508,2039
1629797541512,2039
1629797541516,2038
1629797541520,2038
1629797541524,2038
1629797541528,2037
1629797541532,2038
1629797541536,2038
1629797541540,2037
1629797541544,2038
1629797541548,2038
1629797541552,2037
1629797541556,2037
1629797541560,2037
1629797541564,2037
1629797541568,2037
1629797541572,2038
1629797541576,2038
1629797541580,2037
1629797541584,2038
1629797541588,2038
1629797541592,2038
1629797541596,2038
1629797541600,2038
1629797541604,2039
1629797541608,2038
1629797541612,2038
1629797541616,2039
1629797541620,2038
1629797541624,2039
1629797541628,2039
1629797541632,2039
1629797541636,2039
1629797541640,2038
1629797541644,2039
1629797541648,2038
1629797541652,2039
1629797541656,2039
1629797541660,2039
1629797541664,2039
1629797541668,2037
1629797541672,2038
1629797541676,2038
1629797541680,2038
1629797541684,2038
1629797541688,2037
1629797541692,2036
1629797541696,2036
1629797541700,2036
1629797541704,2037
1629797541708,2037
1629797541712,2038
1629797541716,2038
1629797541720,2037
1629797541724,2038
1629797541728,2038
1629797541732,2039
1629797541736,2039
1629797541740,2038
1629797541744,2038
1629797541748,2038
1629797541752,2037
1629797541756,2038
1629797541760,2037
1629797541764,2038
1629797541768,2038
1629797541772,2038
1629797541776,2038
1629797541780,2038
1629797541784,2038
1629797541788,2038
1629797541792,2038
1629797541796,2038
1629797541800,2038
1629797541804,2039
1629797541808,2038
1629797541812,2040
1629797541816,2040
1629797541820,2041
1629797541824,2042
1629797541828,2042
1629797541832,2042
1629797541836,2041
1629797541840,2040
1629797541844,2040
1629797541848,2039
1629797541852,2039
1629797541856,2039
1629797541860,2040
1629797541864,2042
1629797541868,2043
1629797541872,2043
1629797541876,2042
1629797541880,2041
1629797541884,2041
1629797541888,2041
1629797541892,2042
1629797541896,2042
1629797541900,2042
1629797541904,2042
1629797541908,2041
1629797541912,2040
1629797541916,2039
1629797541920,2040
1629797541924,2041
1629797541928,2041
1629797541932,2041
1629797541936,2041
1629797541940,2040
1629797541944,2041
1629797541948,2042
1629797541952,2044
1629797541956,2043
1629797541960,2043
1629797541964,2042
1629797541968,2042
1629797541972,2043
1629797541976,2046
1629797541980,2051
1629797541984,2058
1629797541988,2064
1629797541992,2069
1629797541996,2076
1629797542000,2089
1629797542004,2111
1629797542008,2140
1629797542012,2161
1629797542016,2162
1629797542020,2133
1629797542024,2078
1629797542028,2013
1629797542032,1956
1629797542036,1923
1629797542040,1917
1629797542044,1932
1629797542048,1956
1629797542052,1981
1629797542056,2001
1629797542060,2016
1629797542064,2030
1629797542068,2040
1629797542072,2047
1629797542076,2050
1629797542080,2052
1629797542084,2053
1629797542088,2055
1629797542092,2057
1629797542096,2059
1629797542100,2061
1629797542104,2061
1629797542108,2061
1629797542112,2060
1629797542116,2059
1629797542120,2059
1629797542124,2061
1629797542128,2062
1629797542132,2063
1629797542136,2064
1629797542140,2065
1629797542144,2065
1629797542148,2066
1629797542152,2066
1629797542156,2067
1629797542160,2067
1629797542164,2068
1629797542168,2069
1629797542172,2071
1629797542176,2071
1629797542180,2072
1629797542184,2074
1629797542188,2076
1629797542192,2078
1629797542196,2080
1629797542200,2081
1629797542204,2082
1629797542208,2083
1629797542212,2084
1629797542216,2086
1629797542220,2088
1629797542224,2091
1629797542228,2092
1629797542232,2093
1629797542236,2093
1629797542240,2093
1629797542244,2093
1629797542248,2093
1629797542252,2093
1629797542256,2093
1629797542260,2093
1629797542264,2092
1629797542268,2090
1629797542272,2090
1629797542276,2087
1629797542280,2086
1629797542284,2083
1629797542288,2080
1629797542292,2077
1629797542296,2073
1629797542300,2070
1629797542304,2067
1629797542308,2063
1629797542312,2060
1629797542316,2057
1629797542320,2054
1629797542324,2051
1629797542328,2049
1629797542332,2048
1629797542336,2046
1629797542340,2045
1629797542344,2043
1629797542348,2042
1629797542352,2041
1629797542356,2039
1629797542360,2038
1629797542364,2037
1629797542368,2038
1629797542372,2039
1629797542376,2040
1629797542380,2040
1629797542384,2039
1629797542388,2039
1629797542392,2039
1629797542396,2038
1629797542400,2038
1629797542404,2038
1629797542408,2039
1629797542412,2039
1629797542416,2039
1629797542420,2039
1629797542424,2040
1629797542428,2040
1629797542432,2041
1629797542436,2041
1629797542440,2040
1629797542444,2040
1629797542448,2040
1629797542452,2041
1629797542456,2041
1629797542460,2040
1629797542464,2040
1629797542468,2040
1629797542472,2041
1629797542476,2043
1629797542480,2043
1629797542484,2043
1629797542488,2042
1629797542492,2042
1629797542496,2042
1629797542500,2042
1629797542504,2043
1629797542508,2043
1629797542512,2042
1629797542516,2042
1629797542520,2042
1629797542524,2042
1629797542528,2042
1629797542532,2042
1629797542536,2043
1629797542540,2042
1629797542544,2042
1629797542548,2042
1629797542552,2042
1629797542556,2042
1629797542560,2041
1629797542564,2041
1629797542568,2040
1629797542572,2040
1629797542576,2041
1629797542580,2040
1629797542584,2041
1629797542588,2041
1629797542592,2041
1629797542596,2041
1629797542600,2041
1629797542604,2042
1629797542608,2042
1629797542612,2042
1629797542616,2042
1629797542620,2041
1629797542624,2041
1629797542628,2041
1629797542632,2041
1629797542636,2041
1629797542640,2041
1629797542644,2041
1629797542648,2041
1629797542652,2042
1629797542656,2042
1629797542660,2042
1629797542664,2043
1629797542668,2043
1629797542672,2043
1629797542676,2042
1629797542680,2043
1629797542684,2045
1629797542688,2045
1629797542692,2045
1629797542696,2043
1629797542700,2042
1629797542704,2041
1629797542708,2041
1629797542712,2041
1629797542716,2041
1629797542720,2042
1629797542724,2043
1629797542728,2045
1629797542732,2045
1629797542736,2045
1629797542740,2044
1629797542744,2043
1629797542748,2043
1629797542752,2043
1629797542756,2042
1629797542760,2042
1629797542764,2041
1629797542768,2041
1629797542772,2040
1629797542776,2041
1629797542780,2041
1629797542784,2041
1629797542788,2041
1629797542792,2042
1629797542796,2042
1629797542800,2041
1629797542804,2041
1629797542808,2041
1629797542812,2041
1629797542816,2041
1629797542820,2041
1629797542824,2041
1629797542828,2041
1629797542832,2042
1629797542836,2045
1629797542840,2050
1629797542844,2057
1629797542848,2062
1629797542852,2067
1629797542856,2076
1629797542860,2090
1629797542864,2113
1629797542868,2141
1629797542872,2160
1629797542876,2157
1629797542880,2124
1629797542884,2067
1629797542888,2001
1629797542892,1945
1629797542896,1914
1629797542900,1910
1629797542904,1928
1629797542908,1954
1629797542912,1980
1629797542916,2001
1629797542920,2016
1629797542924,2029
1629797542928,2038
1629797542932,2044
1629797542936,2048
1629797542940,2049
1629797542944,2050
1629797542948,2051
1629797542952,2053
1629797542956,2053
1629797542960,2054
1629797542964,2055
1629797542968,2056
1629797542972,2057
1629797542976,2057
1629797542980,2057
1629797542984,2058
1629797542988,2058
1629797542992,2060
1629797542996,2060
1629797543000,2061
1629797543004,2062
1629797543008,2063
1629797543012,2063
1629797543016,2064
1629797543020,2065
1629797543024,2065
1629797543028,2066
1629797543032,2068
1629797543036,2069
1629797543040,2070
1629797543044,2071
1629797543048,2072
1629797543052,2073
1629797543056,2075
1629797543060,2076
1629797543064,2078
1629797543068,2080
1629797543072,2082
1629797543076,2083
1629797543080,2084
1629797543084,2085
1629797543088,2087
1629797543092,2089
1629797543096,2090
1629797543100,2091
1629797543104,2091
1629797543108,2089
1629797543112,2088
1629797543116,2087
1629797543120,2086
1629797543124,2087
1629797543128,2087
1629797543132,2087
1629797543136,2086
1629797543140,2084
1629797543144,2082
1629797543148,2079
1629797543152,2076
1629797543156,2072
1629797543160,2068
1629797543164,2065
1629797543168,2062
1629797543172,2060
1629797543176,2057
1629797543180,2055
1629797543184,2052
1629797543188,2050
1629797543192,2048
1629797543196,2047
1629797543200,2045
1629797543204,2045
1629797543208,2043
1629797543212,2043
1629797543216,2042
1629797543220,2042
1629797543224,2043
1629797543228,2042
1629797543232,2042
1629797543236,2041
1629797543240,2041
1629797543244,2041
1629797543248,2040
1629797543252,2040
1629797543256,2040
1629797543260,2041
1629797543264,2041
1629797543268,2040
1629797543272,2041
1629797543276,2041
1629797543280,2042
1629797543284,2042
1629797543288,2041
1629797543292,2041
1629797543296,2042
1629797543300,2043
1629797543304,2043
1629797543308,2043
1629797543312,2044
1629797543316,2043
1629797543320,2044
1629797543324,2043
1629797543328,2043
1629797543332,2043
1629797543336,2043
1629797543340,2044
1629797543344,2044
1629797543348,2044
1629797543352,2045
1629797543356,2044
1629797543360,2044
1629797543364,2043
1629797543368,2044
1629797543372,2044
1629797543376,2045
1629797543380,2046
1629797543384,2045
1629797543388,2045
1629797543392,2045
1629797543396,2045
1629797543400,2044
1629797543404,2044
1629797543408,2044
1629797543412,2044
1629797543416,2044
1629797543420,2044
1629797543424,2044
1629797543428,2044
1629797543432,2045
1629797543436,2044
1629797543440,2044
1629797543444,2044
1629797543448,2044
1629797543452,2045
1629797543456,2045
1629797543460,2044
1629797543464,2044
1629797543468,2044
1629797543472,2046
1629797543476,2047
1629797543480,2046
1629797543484,2045
1629797543488,2043
1629797543492,2043
1629797543496,2044
1629797543500,2045
1629797543504,2046
1629797543508,2046
1629797543512,2045
1629797543516,2045
1629797543520,2044
1629797543524,2045
1629797543528,2046
1629797543532,2047
1629797543536,2047
1629797543540,2046
1629797543544,2047
1629797543548,2046
1629797543552,2046
1629797543556,2046
1629797543560,2046
1629797543564,2046
1629797543568,2046
1629797543572,2047
1629797543576,2048
1629797543580,2048
1629797543584,2048
1629797543588,2048
1629797543592,2048
1629797543596,2048
1629797543600,2047
1629797543604,2047
1629797543608,2046
1629797543612,2046
1629797543616,2046
1629797543620,2046
1629797543624,2048
1629797543628,2048
1629797543632,2049
1629797543636,2049
1629797543640,2048
1629797543644,2048
1629797543648,2046
1629797543652,2047
1629797543656,2047
1629797543660,2047
1629797543664,2047
1629797543668,2046
1629797543672,2045
1629797543676,2044
1629797543680,2045
1629797543684,2045
1629797543688,2045
1629797543692,2046
1629797543696,2046
1629797543700,2046
1629797543704,2046
1629797543708,2045
1629797543712,2045
1629797543716,2045
1629797543720,2046
1629797543724,2046
1629797543728,2045
1629797543732,2045
1629797543736,2046
1629797543740,2049
1629797543744,2055
1629797543748,2060
1629797543752,2065
1629797543756,2070
1629797543760,2080
1629797543764,2097
1629797543768,2123
1629797543772,2152
1629797543776,2170
1629797543780,2161
1629797543784,2124
1629797543788,2062
1629797543792,1995
1629797543796,1942
1629797543800,1915
1629797543804,1918
1629797543808,1939
1629797543812,1966
1629797543816,1993
1629797543820,2011
1629797543824,2026
1629797543828,2037
1629797543832,2044
1629797543836,2048
1629797543840,2050
1629797543844,2052
1629797543848,2053
1629797543852,2054
1629797543856,2055
1629797543860,2056
1629797543864,2058
1629797543868,2058
1629797543872,2059
1629797543876,2059
1629797543880,2060
1629797543884,2061
1629797543888,2061
1629797543892,2062
1629797543896,2062
1629797543900,2062
1629797543904,2063
1629797543908,2063
1629797543912,2064
1629797543916,2065
1629797543920,2065
1629797543924,2066
1629797543928,2067
1629797543932,2068
1629797543936,2069
1629797543940,2070
1629797543944,2071
1629797543948,2073
1629797543952,2074
1629797543956,2074
1629797543960,2075
1629797543964,2077
1629797543968,2078
1629797543972,2080
1629797543976,2082
1629797543980,2084
1629797543984,2085
1629797543988,2086
1629797543992,2088
1629797543996,2089
1629797544000,2089
1629797544004,2089
1629797544008,2088
1629797544012,2088
1629797544016,2088
1629797544020,2088
1629797544024,2089
1629797544028,2088
1629797544032,2087
1629797544036,2086
1629797544040,2085
1629797544044,2084
1629797544048,2082
1629797544052,2080
1629797544056,2077
1629797544060,2073
1629797544064,2070
1629797544068,2067
1629797544072,2063
1629797544076,2060
1629797544080,2057
1629797544084,2055
1629797544088,2052
1629797544092,2050
1629797544096,2048
1629797544100,2048
1629797544104,2048
1629797544108,2047
1629797544112,2046
1629797544116,2044
1629797544120,2042
1629797544124,2040
1629797544128,2039
1629797544132,2040
1629797544136,2041
1629797544140,2041
1629797544144,2042
1629797544148,2042
1629797544152,2041
1629797544156,2041
1629797544160,2040
1629797544164,2041
1629797544168,2041
1629797544172,2041
1629797544176,2041
1629797544180,2041
1629797544184,2041
1629797544188,2042
1629797544192,2043
1629797544196,2043
1629797544200,2042
1629797544204,2043
1629797544208,2041
1629797544212,2042
1629797544216,2043
1629797544220,2044
1629797544224,2045
1629797544228,2044
1629797544232,2044
1629797544236,2043
1629797544240,2042
1629797544244,2043
1629797544248,2042
1629797544252,2043
1629797544256,2043
1629797544260,2044
1629797544264,2045
1629797544268,2044
1629797544272,2044
1629797544276,2044
1629797544280,2044
1629797544284,2044
1629797544288,2043
1629797544292,2044
1629797544296,2044
1629797544300,2043
1629797544304,2043
1629797544308,2043
1629797544312,2043
1629797544316,2042
1629797544320,2043
1629797544324,2043
1629797544328,2043
1629797544332,2044
1629797544336,2043
1629797544340,2043
1629797544344,2042
1629797544348,2042
1629797544352,2042
1629797544356,2042
1629797544360,2043
1629797544364,2043
1629797544368,2042
1629797544372,2042
1629797544376,2042
1629797544380,2042
1629797544384,2043
1629797544388,2043
1629797544392,2043
1629797544396,2043
1629797544400,2042
1629797544404,2042
1629797544408,2042
1629797544412,2042
1629797544416,2042
1629797544420,2042
1629797544424,2043
1629797544428,2043
1629797544432,2043
1629797544436,2041
1629797544440,2041
1629797544444,2042
1629797544448,2042
1629797544452,2043
1629797544456,2041
1629797544460,2041
1629797544464,2040
1629797544468,2041
1629797544472,2043
1629797544476,2044
1629797544480,2044
1629797544484,2043
1629797544488,2042
1629797544492,2041
1629797544496,2042
1629797544500,2043
1629797544504,2043
1629797544508,2043
1629797544512,2042
1629797544516,2042
1629797544520,2042
1629797544524,2043
1629797544528,2045
1629797544532,2045
1629797544536,2046
1629797544540,2046
1629797544544,2046
1629797544548,2045
1629797544552,2044
1629797544556,2043
1629797544560,2041
1629797544564,2041
1629797544568,2041
1629797544572,2043
1629797544576,2045
1629797544580,2046
1629797544584,2046
1629797544588,2045
1629797544592,2044
1629797544596,2043
1629797544600,2042
1629797544604,2043
1629797544608,2042
1629797544612,2042
1629797544616,2042
1629797544620,2042
1629797544624,2042
1629797544628,2042
1629797544632,2042
1629797544636,2042
1629797544640,2041
1629797544644,2042
1629797544648,2042
1629797544652,2042
1629797544656,2043
1629797544660,2043
1629797544664,2044
1629797544668,2044
1629797544672,2044
1629797544676,2043
1629797544680,2042
1629797544684,2042
1629797544688,2045
1629797544692,2050
1629797544696,2057
1629797544700,2063
1629797544704,2069
1629797544708,2076
1629797544712,2090
1629797544716,2113
1629797544720,2143
1629797544724,2166
1629797544728,2167
1629797544732,2139
1629797544736,2083
1629797544740,2017
1629797544744,1958
1629797544748,1924
1629797544752,1919
1629797544756,1935
1629797544760,1960
1629797544764,1986
1629797544768,2006
1629797544772,2020
1629797544776,2033
1629797544780,2041
1629797544784,2048
1629797544788,2051
1629797544792,2053
1629797544796,2054
1629797544800,2055
1629797544804,2056
1629797544808,2057
1629797544812,2059
1629797544816,2060
1629797544820,2060
1629797544824,2061
1629797544828,2061
1629797544832,2061
1629797544836,2062
1629797544840,2062
1629797544844,2064
1629797544848,2065
1629797544852,2066
1629797544856,2067
1629797544860,2067
1629797544864,2067
1629797544868,2068
1629797544872,2069
1629797544876,2069
1629797544880,2070
1629797544884,2072
1629797544888,2072
1629797544892,2074
1629797544896,2075
1629797544900,2075
1629797544904,2077
1629797544908,2078
1629797544912,2080
1629797544916,2082
1629797544920,2083
1629797544924,2085
1629797544928,2085
1629797544932,2087
1629797544936,2088
1629797544940,2090
1629797544944,2092
1629797544948,2093
1629797544952,2094
1629797544956,2094
1629797544960,2093
1629797544964,2093
1629797544968,2092
1629797544972,2092
1629797544976,2092
1629797544980,2092
1629797544984,2091
1629797544988,2090
1629797544992,2089
1629797544996,2087
1629797545000,2084
1629797545004,2082
1629797545008,2078
1629797545012,2075
1629797545016,2073
1629797545020,2070
1629797545024,2067
1629797545028,2063
1629797545032,2060
1629797545036,2057
1629797545040,2054
1629797545044,2053
1629797545048,2051
1629797545052,2050
1629797545056,2049
1629797545060,2048
1629797545064,2048
1629797545068,2048
1629797545072,2046
1629797545076,2045
1629797545080,2044
1629797545084,2044
1629797545088,2044
1629797545092,2044
1629797545096,2044
1629797545100,2044
1629797545104,2044
1629797545108,2044
1629797545112,2044
1629797545116,2043
1629797545120,2043
1629797545124,2042
1629797545128,2041
1629797545132,2043
1629797545136,2044
1629797545140,2045
1629797545144,2046
1629797545148,2045
1629797545152,2044
1629797545156,2045
1629797545160,2044
1629797545164,2045
1629797545168,2046
1629797545172,2046
1629797545176,2046
1629797545180,2045
1629797545184,2046
1629797545188,2046
1629797545192,2045
1629797545196,2044
1629797545200,2044
1629797545204,2046
1629797545208,2045
1629797545212,2046
1629797545216,2045
1629797545220,2044
1629797545224,2046
1629797545228,2046
1629797545232,2046
1629797545236,2045
1629797545240,2044
1629797545244,2044
1629797545248,2043
1629797545252,2043
1629797545256,2043
1629797545260,2044
1629797545264,2043
1629797545268,2042
1629797545272,2042
1629797545276,2042
1629797545280,2042
1629797545284,2042
1629797545288,2042
1629797545292,2042
1629797545296,2042
1629797545300,2042
1629797545304,2041
1629797545308,2041
1629797545312,2041
1629797545316,2041
1629797545320,2042
1629797545324,2042
1629797545328,2042
1629797545332,2042
1629797545336,2041
1629797545340,2041
1629797545344,2041
1629797545348,2040
1629797545352,2040
1629797545356,2040
1629797545360,2041
1629797545364,2040
1629797545368,2041
1629797545372,2041
1629797545376,2042
1629797545380,2042
1629797545384,2041
1629797545388,2041
1629797545392,2042
1629797545396,2042
1629797545400,2041
1629797545404,2041
1629797545408,2041
1629797545412,2040
1629797545416,2041
1629797545420,2041
1629797545424,2041
1629797545428,2040
1629797545432,2041
1629797545436,2040
1629797545440,2040
1629797545444,2040
1629797545448,2040
1629797545452,2040
1629797545456,2041
1629797545460,2040
1629797545464,2041
1629797545468,2040
1629797545472,2041
1629797545476,2042
1629797545480,2041
1629797545484,2040
1629797545488,2039
1629797545492,2039
1629797545496,2040
1629797545500,2040
1629797545504,2040
1629797545508,2038
1629797545512,2038
1629797545516,2039
1629797545520,2040
1629797545524,2042
1629797545528,2041
1629797545532,2041
1629797545536,2041
1629797545540,2039
1629797545544,2039
1629797545548,2039
1629797545552,2038
1629797545556,2038
1629797545560,2037
1629797545564,2037
1629797545568,2037
1629797545572,2037
1629797545576,2038
1629797545580,2037
1629797545584,2037
1629797545588,2037
1629797545592,2037
1629797545596,2036
1629797545600,2036
1629797545604,2037
1629797545608,2037
1629797545612,2038
1629797545616,2038
1629797545620,2038
1629797545624,2038
1629797545628,2037
1629797545632,2039
1629797545636,2043
1629797545640,2048
1629797545644,2055
1629797545648,2059
1629797545652,2066
1629797545656,2076
1629797545660,2093
1629797545664,2120
1629797545668,2145
1629797545672,2158
1629797545676,2145
1629797545680,2103
1629797545684,2042
1629797545688,1977
1629797545692,1929
1629797545696,1908
1629797545700,1913
1629797545704,1934
1629797545708,1961
1629797545712,1985
1629797545716,2002
1629797545720,2016
1629797545724,2028
1629797545728,2036
1629797545732,2042
1629797545736,2045
1629797545740,2046
1629797545744,2048
1629797545748,2048
1629797545752,2049
1629797545756,2050
1629797545760,2051
1629797545764,2052
1629797545768,2052
1629797545772,2053
1629797545776,2054
1629797545780,2055
1629797545784,2056
1629797545788,2056
1629797545792,2057
1629797545796,2057
1629797545800,2057
1629797545804,2057
1629797545808,2058
1629797545812,2059
1629797545816,2060
1629797545820,2060
1629797545824,2061
1629797545828,2062
1629797545832,2063
1629797545836,2064
1629797545840,2065
1629797545844,2066
1629797545848,2067
1629797545852,2069
1629797545856,2070
1629797545860,2072
1629797545864,2074
1629797545868,2075
1629797545872,2077
1629797545876,2078
1629797545880,2079
1629797545884,2081
1629797545888,2082
1629797545892,2083
1629797545896,2084
1629797545900,2084
1629797545904,2084
1629797545908,2083
1629797545912,2084
1629797545916,2084
1629797545920,2084
1629797545924,2083
1629797545928,2082
1629797545932,2081
1629797545936,2079
1629797545940,2077
1629797545944,2075
1629797545948,2072
1629797545952,2070
1629797545956,2066
1629797545960,2062
1629797545964,2059
1629797545968,2055
1629797545972,2052
1629797545976,2050
1629797545980,2048
1629797545984,2045
1629797545988,2042
1629797545992,2040
1629797545996,2038
1629797546000,2037
1629797546004,2036
1629797546008,2035
1629797546012,2034
1629797546016,2034
1629797546020,2033
1629797546024,2032
1629797546028,2031
1629797546032,2031
1629797546036,2031
1629797546040,2031
1629797546044,2031
1629797546048,2031
1629797546052,2031
1629797546056,2032
1629797546060,2032
1629797546064,2032
1629797546068,2031
1629797546072,2031
1629797546076,2032
1629797546080,2032
1629797546084,2032
1629797546088,2032
1629797546092,2032
1629797546096,2032
1629797546100,2032
1629797546104,2033
1629797546108,2033
1629797546112,2034
1629797546116,2032
1629797546120,2032
1629797546124,2032
1629797546128,2032
1629797546132,2033
1629797546136,2033
1629797546140,2033
1629797546144,2033
1629797546148,2033
1629797546152,2033
1629797546156,2033
1629797546160,2033
1629797546164,2034
1629797546168,2034
1629797546172,2033
1629797546176,2033
1629797546180,2033
1629797546184,2033
1629797546188,2032
1629797546192,2033
1629797546196,2032
1629797546200,2032
1629797546204,2032
1629797546208,2032
1629797546212,2032
1629797546216,2032
1629797546220,2032
1629797546224,2033
1629797546228,2032
1629797546232,2032
1629797546236,2031
1629797546240,2030
1629797546244,2030
1629797546248,2029
1629797546252,2029
1629797546256,2030
1629797546260,2031
1629797546264,2030
1629797546268,2030
1629797546272,2030
1629797546276,2030
1629797546280,2031
1629797546284,2030
1629797546288,2030
1629797546292,2030
1629797546296,2030
1629797546300,2031
1629797546304,2031
1629797546308,2031
1629797546312,2031
1629797546316,2030
1629797546320,2030
1629797546324,2030
1629797546328,2030
1629797546332,2030
1629797546336,2031
1629797546340,2032
1629797546344,2031
1629797546348,2031
1629797546352,2031
1629797546356,2030
1629797546360,2031
1629797546364,2030
1629797546368,2031
1629797546372,2031
1629797546376,2032
1629797546380,2033
1629797546384,2032
1629797546388,2032
1629797546392,2032
1629797546396,2032
1629797546400,2032
1629797546404,2032
1629797546408,2032
1629797546412,2033
1629797546416,2034
1629797546420,2034
1629797546424,2035
1629797546428,2035
1629797546432,2036
1629797546436,2035
1629797546440,2035
1629797546444,2035
1629797546448,2034
1629797546452,2034
1629797546456,2033
1629797546460,2032
1629797546464,2033
1629797546468,2034
1629797546472,2037
1629797546476,2038
1629797546480,2038
1629797546484,2037
1629797546488,2035
1629797546492,2034
1629797546496,2034
1629797546500,2035
1629797546504,2036
1629797546508,2035
1629797546512,2034
1629797546516,2032
1629797546520,2031
1629797546524,2031
1629797546528,2032
1629797546532,2033
1629797546536,2034
1629797546540,2033
1629797546544,2034
1629797546548,2034
1629797546552,2034
1629797546556,2034
1629797546560,2034
1629797546564,2034
1629797546568,2034
1629797546572,2034
1629797546576,2034
1629797546580,2033
1629797546584,2036
1629797546588,2040
1629797546592,2047
1629797546596,2052
1629797546600,2056
1629797546604,2063
1629797546608,2075
1629797546612,2095
1629797546616,2124
1629797546620,2150
1629797546624,2160
1629797546628,2143
1629797546632,2096
1629797546636,2031
1629797546640,1966
1629797546644,1921
1629797546648,1904
1629797546652,1914
1629797546656,1938
1629797546660,1965
1629797546664,1990
1629797546668,2006
1629797546672,2020
1629797546676,2030
1629797546680,2037
1629797546684,2041
1629797546688,2044
1629797546692,2046
1629797546696,2047
1629797546700,2048
1629797546704,2048
1629797546708,2049
1629797546712,2051
1629797546716,2051
1629797546720,2052
1629797546724,2053
1629797546728,2053
1629797546732,2054
1629797546736,2054
1629797546740,2055
1629797546744,2056
1629797546748,2056
1629797546752,2057
1629797546756,2057
1629797546760,2058
1629797546764,2059
1629797546768,2060
1629797546772,2061
1629797546776,2062
1629797546780,2063
1629797546784,2064
1629797546788,2065
1629797546792,2066
1629797546796,2067
1629797546800,2068
1629797546804,2069
1629797546808,2071
1629797546812,2073
1629797546816,2075
1629797546820,2076
1629797546824,2077
1629797546828,2079
1629797546832,2081
1629797546836,2081
1629797546840,2082
1629797546844,2083
1629797546848,2084
1629797546852,2085
1629797546856,2085
1629797546860,2084
1629797546864,2084
1629797546868,2084
1629797546872,2084
1629797546876,2084
1629797546880,2083
1629797546884,2082
1629797546888,2081
1629797546892,2078
1629797546896,2076
1629797546900,2073
1629797546904,2071
1629797546908,2068
1629797546912,2065
1629797546916,2061
1629797546920,2058
1629797546924,2054
1629797546928,2051
1629797546932,2048
1629797546936,2047
1629797546940,2044
1629797546944,2042
1629797546948,2040
1629797546952,2039
1629797546956,2037
1629797546960,2036
1629797546964,2035
1629797546968,2035
1629797546972,2034
1629797546976,2034
1629797546980,2034
1629797546984,2033
1629797546988,2033
1629797546992,2033
1629797546996,2033
1629797547000,2032
1629797547004,2032
1629797547008,2032
1629797547012,2032
1629797547016,2033
1629797547020,2033
1629797547024,2033
1629797547028,2032
1629797547032,2033
1629797547036,2032
1629797547040,2033
1629797547044,2033
1629797547048,2034
1629797547052,2034
1629797547056,2034
1629797547060,2034
1629797547064,2034
1629797547068,2034
1629797547072,2034
1629797547076,2034
1629797547080,2034
1629797547084,2034
1629797547088,2034
1629797547092,2035
1629797547096,2036
1629797547100,2036
1629797547104,2036
1629797547108,2035
1629797547112,2034
1629797547116,2033
1629797547120,2033
1629797547124,2034
1629797547128,2035
1629797547132,2035
1629797547136,2035
1629797547140,2035
1629797547144,2034
1629797547148,2034
1629797547152,2034
1629797547156,2034
1629797547160,2034
1629797547164,2034
1629797547168,2033
1629797547172,2033
1629797547176,2033
1629797547180,2033
1629797547184,2033
1629797547188,2033
1629797547192,2033
1629797547196,2033
1629797547200,2033
1629797547204,2033
1629797547208,2033
1629797547212,2033
1629797547216,2033
1629797547220,2033
1629797547224,2034
1629797547228,2033
1629797547232,2034
1629797547236,2033
1629797547240,2032
1629797547244,2032
1629797547248,2032
1629797547252,2032
1629797547256,2033
1629797547260,2033
1629797547264,2033
1629797547268,2033
1629797547272,2033
1629797547276,2033
1629797547280,2033
1629797547284,2033
1629797547288,2033
1629797547292,2033
1629797547296,2033
1629797547300,2034
1629797547304,2033
1629797547308,2033
1629797547312,2033
1629797547316,2033
1629797547320,2034
1629797547324,2034
1629797547328,2034
1629797547332,2035
1629797547336,2035
1629797547340,2036
1629797547344,2036
1629797547348,2035
1629797547352,2035
1629797547356,2035
1629797547360,2035
1629797547364,2035
1629797547368,2036
1629797547372,2036
1629797547376,2037
1629797547380,2038
1629797547384,2038
1629797547388,2037
1629797547392,2038
1629797547396,2037
1629797547400,2037
1629797547404,2037
1629797547408,2037
1629797547412,2037
1629797547416,2038
1629797547420,2038
1629797547424,2039
1629797547428,2039
1629797547432,2040
1629797547436,2040
1629797547440,2040
1629797547444,2040
1629797547448,2039
1629797547452,2038
1629797547456,2037
1629797547460,2036
1629797547464,2037
1629797547468,2038
1629797547472,2042
1629797547476,2043
1629797547480,2043
1629797547484,2041
1629797547488,2038
1629797547492,2036
1629797547496,2037
1629797547500,2038
1629797547504,2039
1629797547508,2038
1629797547512,2037
1629797547516,2037
1629797547520,2036
1629797547524,2036
1629797547528,2037
1629797547532,2037
1629797547536,2037
1629797547540,2037
1629797547544,2038
1629797547548,2038
1629797547552,2037
1629797547556,2037
1629797547560,2037
1629797547564,2038
1629797547568,2038
1629797547572,2038
1629797547576,2038
1629797547580,2038
1629797547584,2040
1629797547588,2043
1629797547592,2048
1629797547596,2053
1629797547600,2057
1629797547604,2063
1629797547608,2072
1629797547612,2090
1629797547616,2116
1629797547620,2145
1629797547624,2165
1629797547628,2159
1629797547632,2124
1629797547636,2064
1629797547640,1996
1629797547644,1941
1629797547648,1911
1629797547652,1911
1629797547656,1931
1629797547660,1959
1629797547664,1986
1629797547668,2006
1629797547672,2020
1629797547676,2030
1629797547680,2037
1629797547684,2043
1629797547688,2046
1629797547692,2048
1629797547696,2048
1629797547700,2049
1629797547704,2050
1629797547708,2051
1629797547712,2053
1629797547716,2053
1629797547720,2054
1629797547724,2056
1629797547728,2056
1629797547732,2057
1629797547736,2057
1629797547740,2057
1629797547744,2058
1629797547748,2060
1629797547752,2061
1629797547756,2061
1629797547760,2061
1629797547764,2062
1629797547768,2063
1629797547772,2063
1629797547776,2065
1629797547780,2065
1629797547784,2066
1629797547788,2067
1629797547792,2068
1629797547796,2069
1629797547800,2070
1629797547804,2072
1629797547808,2074
1629797547812,2075
1629797547816,2077
1629797547820,2078
1629797547824,2079
1629797547828,2081
1629797547832,2083
1629797547836,2084
1629797547840,2085
1629797547844,2086
1629797547848,2087
1629797547852,2087
1629797547856,2088
1629797547860,2088
1629797547864,2088
1629797547868,2088
1629797547872,2088
1629797547876,2087
1629797547880,2086
1629797547884,2085
1629797547888,2084
1629797547892,2083
1629797547896,2082
1629797547900,2079
1629797547904,2077
1629797547908,2073
1629797547912,2071
1629797547916,2067
1629797547920,2064
1629797547924,2061
1629797547928,2058
1629797547932,2054
1629797547936,2052
1629797547940,2049
1629797547944,2048
1629797547948,2047
1629797547952,2046
1629797547956,2045
1629797547960,2043
1629797547964,2042
1629797547968,2041
1629797547972,2040
1629797547976,2040
1629797547980,2039
1629797547984,2039
1629797547988,2038
1629797547992,2039
1629797547996,2038
1629797548000,2038
1629797548004,2038
1629797548008,2038
1629797548012,2039
1629797548016,2038
1629797548020,2038
1629797548024,2039
1629797548028,2039
1629797548032,2040
1629797548036,2040
1629797548040,2040
1629797548044,2040
1629797548048,2040
1629797548052,2040
1629797548056,2040
1629797548060,2040
1629797548064,2040
1629797548068,2040
1629797548072,2040
1629797548076,2041
1629797548080,2040
1629797548084,2040
1629797548088,2040
1629797548092,2041
1629797548096,2042
1629797548100,2042
1629797548104,2042
1629797548108,2041
1629797548112,2041
1629797548116,2039
1629797548120,2039
1629797548124,2040
1629797548128,2041
1629797548132,2041
1629797548136,2041
1629797548140,2041
1629797548144,2041
1629797548148,2040
1629797548152,2041
1629797548156,2040
1629797548160,2040
1629797548164,2040
1629797548168,2040
1629797548172,2040
1629797548176,2040
1629797548180,2040
1629797548184,2039
1629797548188,2039
1629797548192,2039
1629797548196,2039
1629797548200,2038
1629797548204,2039
1629797548208,2039
1629797548212,2039
1629797548216,2039
1629797548220,2039
1629797548224,2040
1629797548228,2039
1629797548232,2040
1629797548236,2039
1629797548240,2038
1629797548244,2038
1629797548248,2037
1629797548252,2037
1629797548256,2037
1629797548260,2038
1629797548264,2037
1629797548268,2037
1629797548272,2036
1629797548276,2036
1629797548280,2036
1629797548284,2036
1629797548288,2036
1629797548292,2036
1629797548296,2036
1629797548300,2037
1629797548304,2036
1629797548308,2036
1629797548312,2035
1629797548316,2035
1629797548320,2036
1629797548324,2036
1629797548328,2035
1629797548332,2036
1629797548336,2036
1629797548340,2037
1629797548344,2037
1629797548348,2036
1629797548352,2036
1629797548356,2035
1629797548360,2035
1629797548364,2035
1629797548368,2036
1629797548372,2036
1629797548376,2037
1629797548380,2037
1629797548384,2037
1629797548388,2037
1629797548392,2037
1629797548396,2037
1629797548400,2037
1629797548404,2037
1629797548408,2037
1629797548412,2037
1629797548416,2037
1629797548420,2037
1629797548424,2037
1629797548428,2037
1629797548432,2038
1629797548436,2039
1629797548440,2039
1629797548444,2039
1629797548448,2039
1629797548452,2040
1629797548456,2040
1629797548460,2041
1629797548464,2040
1629797548468,2040
1629797548472,2039
1629797548476,2039
1629797548480,2038
1629797548484,2038
1629797548488,2038
1629797548492,2040
1629797548496,2042
1629797548500,2042
1629797548504,2042
1629797548508,2041
1629797548512,2039
1629797548516,2038
1629797548520,2038
1629797548524,2039
1629797548528,2039
1629797548532,2039
1629797548536,2039
1629797548540,2038
1629797548544,2038
1629797548548,2038
1629797548552,2038
1629797548556,2037
1629797548560,2037
1629797548564,2038
1629797548568,2038
1629797548572,2038
1629797548576,2039
1629797548580,2039
1629797548584,2040
1629797548588,2040
1629797548592,2040
1629797548596,2040
1629797548600,2039
1629797548604,2040
1629797548608,2044
1629797548612,2048
1629797548616,2055
1629797548620,2059
1629797548624,2065
1629797548628,2074
1629797548632,2091
1629797548636,2116
1629797548640,2145
1629797548644,2164
1629797548648,2159
1629797548652,2124
1629797548656,2065
1629797548660,2000
1629797548664,1946
1629797548668,1918
1629797548672,1918
1629797548676,1936
1629797548680,1960
1629797548684,1985
1629797548688,2003
1629797548692,2017
1629797548696,2030
1629797548700,2038
1629797548704,2044
1629797548708,2048
1629797548712,2050
1629797548716,2051
1629797548720,2052
1629797548724,2053
1629797548728,2054
1629797548732,2056
1629797548736,2056
1629797548740,2057
1629797548744,2057
1629797548748,2058
1629797548752,2059
1629797548756,2059
1629797548760,2060
1629797548764,2060
1629797548768,2061
1629797548772,2061
1629797548776,2062
1629797548780,2063
1629797548784,2063
1629797548788,2064
1629797548792,2065
1629797548796,2066
1629797548800,2066
1629797548804,2067
1629797548808,2067
1629797548812,2068
1629797548816,2070
1629797548820,2072
1629797548824,2074
1629797548828,2075
1629797548832,2077
1629797548836,2077
1629797548840,2078
1629797548844,2080
1629797548848,2082
1629797548852,2084
1629797548856,2086
1629797548860,2087
1629797548864,2088
1629797548868,2088
1629797548872,2089
1629797548876,2089
1629797548880,2089
1629797548884,2089
1629797548888,2089
1629797548892,2088
1629797548896,2089
1629797548900,2088
1629797548904,2088
1629797548908,2087
1629797548912,2086
1629797548916,2083
1629797548920,2081
1629797548924,2078
1629797548928,2074
1629797548932,2071
1629797548936,2068
1629797548940,2064
1629797548944,2062
1629797548948,2058
1629797548952,2056
1629797548956,2054
1629797548960,2051
1629797548964,2048
1629797548968,2047
1629797548972,2045
1629797548976,2043
1629797548980,2042
1629797548984,2042
1629797548988,2041
1629797548992,2042
1629797548996,2041
1629797549000,2040
1629797549004,2039
1629797549008,2039
1629797549012,2039
1629797549016,2040
1629797549020,2040
1629797549024,2039
1629797549028,2039
1629797549032,2039
1629797549036,2039
1629797549040,2039
1629797549044,2039
1629797549048,2040
1629797549052,2040
1629797549056,2040
1629797549060,2040
1629797549064,2040
1629797549068,2040
1629797549072,2041
1629797549076,2041
1629797549080,2041
1629797549084,2040
1629797549088,2041
1629797549092,2042
1629797549096,2043
1629797549100,2044
1629797549104,2044
1629797549108,2042
1629797549112,2041
1629797549116,2039
1629797549120,2040
1629797549124,2041
1629797549128,2043
1629797549132,2043
1629797549136,2043
1629797549140,2042
1629797549144,2042
1629797549148,2042
1629797549152,2042
1629797549156,2042
1629797549160,2042
1629797549164,2042
1629797549168,2041
1629797549172,2041
1629797549176,2041
1629797549180,2041
1629797549184,2041
1629797549188,2042
1629797549192,2042
1629797549196,2041
1629797549200,2041
1629797549204,2041
1629797549208,2040
1629797549212,2040
1629797549216,2040
1629797549220,2040
1629797549224,2041
1629797549228,2041
1629797549232,2041
1629797549236,2042
1629797549240,2041
1629797549244,2040
1629797549248,2038
1629797549252,2039
1629797549256,2039
1629797549260,2040
1629797549264,2040
1629797549268,2039
1629797549272,2039
1629797549276,2039
1629797549280,2040
1629797549284,2041
1629797549288,2040
1629797549292,2041
1629797549296,2041
1629797549300,2041
1629797549304,2041
1629797549308,2040
1629797549312,2040
1629797549316,2040
1629797549320,2041
1629797549324,2041
1629797549328,2041
1629797549332,2041
1629797549336,2041
1629797549340,2041
1629797549344,2041
1629797549348,2040
1629797549352,2041
1629797549356,2041
1629797549360,2043
1629797549364,2043
1629797549368,2042
1629797549372,2042
1629797549376,2042
1629797549380,2042
1629797549384,2043
1629797549388,2043
1629797549392,2043
1629797549396,2042
1629797549400,2041
1629797549404,2041
1629797549408,2041
1629797549412,2042
1629797549416,2043
1629797549420,2044
1629797549424,2045
1629797549428,2044
1629797549432,2045
1629797549436,2044
1629797549440,2044
1629797549444,2045
1629797549448,2044
1629797549452,2044
1629797549456,2042
1629797549460,2041
1629797549464,2042
1629797549468,2042
1629797549472,2043
1629797549476,2043
1629797549480,2044
1629797549484,2044
1629797549488,2044
1629797549492,2044
1629797549496,2043
1629797549500,2042
1629797549504,2042
1629797549508,2042
1629797549512,2042
1629797549516,2041
1629797549520,2041
1629797549524,2040
1629797549528,2040
1629797549532,2040
1629797549536,2040
1629797549540,2039
1629797549544,2040
1629797549548,2040
1629797549552,2041
1629797549556,2041
1629797549560,2040
1629797549564,2041
1629797549568,2041
1629797549572,2040
1629797549576,2041
1629797549580,2040
1629797549584,2040
1629797549588,2041
1629797549592,2045
1629797549596,2050
1629797549600,2057
1629797549604,2063
1629797549608,2068
1629797549612,2078
1629797549616,2093
1629797549620,2117
1629797549624,2144
1629797549628,2160
1629797549632,2152
1629797549636,2115
1629797549640,2054
1629797549644,1989
1629797549648,1937
1629797549652,1911
1629797549656,1912
1629797549660,1931
1629797549664,1957
1629797549668,1982
1629797549672,2001
1629797549676,2015
1629797549680,2027
1629797549684,2036
1629797549688,2043
1629797549692,2047
1629797549696,2049
1629797549700,2050
1629797549704,2051
1629797549708,2052
1629797549712,2053
1629797549716,2054
1629797549720,2054
1629797549724,2055
1629797549728,2055
1629797549732,2056
1629797549736,2057
1629797549740,2058
1629797549744,2058
1629797549748,2059
1629797549752,2060
1629797549756,2060
1629797549760,2060
1629797549764,2060
1629797549768,2060
1629797549772,2061
1629797549776,2062
1629797549780,2063
1629797549784,2064
1629797549788,2065
1629797549792,2067
1629797549796,2068
1629797549800,2070
1629797549804,2071
1629797549808,2073
1629797549812,2074
1629797549816,2075
1629797549820,2076
1629797549824,2078
1629797549828,2080
1629797549832,2082
1629797549836,2083
1629797549840,2085
1629797549844,2086
1629797549848,2087
1629797549852,2088
1629797549856,2089
1629797549860,2088
1629797549864,2088
1629797549868,2088
1629797549872,2089
1629797549876,2088
1629797549880,2088
1629797549884,2087
1629797549888,2086
1629797549892,2084
1629797549896,2083
1629797549900,2080
1629797549904,2077
1629797549908,2073
1629797549912,2070
1629797549916,2067
1629797549920,2063
1629797549924,2059
1629797549928,2056
1629797549932,2052
1629797549936,2050
1629797549940,2048
1629797549944,2045
1629797549948,2043
1629797549952,2041
1629797549956,2039
1629797549960,2037
1629797549964,2036
1629797549968,2036
1629797549972,2035
1629797549976,2035
1629797549980,2034
1629797549984,2034
1629797549988,2033
1629797549992,2033
1629797549996,2033
1629797550000,2032
1629797550004,2032
1629797550008,2032
1629797550012,2032
1629797550016,2032
1629797550020,2033
1629797550024,2033
1629797550028,2033
1629797550032,2034
1629797550036,2033
1629797550040,2033
1629797550044,2033
1629797550048,2032
1629797550052,2033
1629797550056,2034
1629797550060,2034
1629797550064,2035
1629797550068,2035
1629797550072,2035
1629797550076,2035
1629797550080,2035
1629797550084,2035
1629797550088,2035
1629797550092,2036
1629797550096,2037
1629797550100,2037
1629797550104,2037
1629797550108,2035
1629797550112,2035
1629797550116,2034
1629797550120,2034
1629797550124,2035
1629797550128,2036
1629797550132,2036
1629797550136,2036
1629797550140,2035
1629797550144,2036
1629797550148,2036
1629797550152,2036
1629797550156,2036
1629797550160,2035
1629797550164,2034
1629797550168,2034
1629797550172,2034
1629797550176,2034
1629797550180,2034
1629797550184,2034
1629797550188,2034
1629797550192,2034
1629797550196,2034
1629797550200,2033
1629797550204,2034
1629797550208,2033
1629797550212,2033
1629797550216,2034
1629797550220,2034
1629797550224,2035
1629797550228,2034
1629797550232,2035
1629797550236,2034
1629797550240,2034
1629797550244,2034
1629797550248,2033
1629797550252,2034
1629797550256,2033
1629797550260,2034
1629797550264,2034
1629797550268,2033
1629797550272,2034
1629797550276,2034
1629797550280,2034
1629797550284,2034
1629797550288,2034
1629797550292,2034
1629797550296,2034
1629797550300,2034
1629797550304,2034
1629797550308,2033
1629797550312,2034
1629797550316,2034
1629797550320,2035
1629797550324,2035
1629797550328,2034
1629797550332,2034
1629797550336,2034
1629797550340,2035
1629797550344,2034
1629797550348,2034
1629797550352,2034
1629797550356,2033
1629797550360,2034
1629797550364,2033
1629797550368,2034
1629797550372,2034
1629797550376,2035
1629797550380,2036
1629797550384,2035
1629797550388,2035
1629797550392,2036
1629797550396,2035
1629797550400,2035
1629797550404,2036
1629797550408,2036
1629797550412,2037
1629797550416,2038
1629797550420,2038
1629797550424,2038
1629797550428,2038
1629797550432,2038
1629797550436,2038
1629797550440,2037
1629797550444,2036
1629797550448,2035
1629797550452,2035
1629797550456,2035
1629797550460,2037
1629797550464,2038
1629797550468,2039
1629797550472,2040
1629797550476,2040
1629797550480,2039
1629797550484,2037
1629797550488,2036
1629797550492,2036
1629797550496,2037
1629797550500,2037
1629797550504,2037
1629797550508,2035
1629797550512,2034
1629797550516,2034
1629797550520,2034
1629797550524,2034
1629797550528,2035
1629797550532,2036
1629797550536,2037
1629797550540,2037
1629797550544,2037
1629797550548,2036
1629797550552,2036
1629797550556,2036
1629797550560,2036
1629797550564,2037
1629797550568,2036
1629797550572,2037
1629797550576,2039
1629797550580,2044
1629797550584,2049
1629797550588,2055
1629797550592,2060
1629797550596,2066
1629797550600,2077
1629797550604,2097
1629797550608,2125
1629797550612,2151
1629797550616,2161
1629797550620,2144
1629797550624,2098
1629797550628,2034
1629797550632,1970
1629797550636,1924
1629797550640,1906
1629797550644,1915
1629797550648,1938
1629797550652,1966
1629797550656,1991
1629797550660,2008
1629797550664,2022
1629797550668,2032
1629797550672,2039
1629797550676,2044
1629797550680,2046
1629797550684,2048
1629797550688,2048
1629797550692,2049
1629797550696,2051
1629797550700,2052
1629797550704,2054
1629797550708,2054
1629797550712,2055
1629797550716,2056
1629797550720,2056
1629797550724,2057
1629797550728,2057
1629797550732,2058
1629797550736,2058
1629797550740,2060
1629797550744,2061
1629797550748,2062
1629797550752,2062
1629797550756,2062
1629797550760,2062
1629797550764,2063
1629797550768,2064
1629797550772,2066
1629797550776,2067
1629797550780,2068
1629797550784,2070
1629797550788,2071
1629797550792,2072
1629797550796,2073
1629797550800,2074
1629797550804,2076
1629797550808,2078
1629797550812,2080
1629797550816,2082
1629797550820,2083
1629797550824,2085
1629797550828,2086
1629797550832,2088
1629797550836,2089
1629797550840,2090
1629797550844,2090
1629797550848,2090
1629797550852,2090
1629797550856,2090
1629797550860,2090
1629797550864,2090
1629797550868,2090
1629797550872,2090
1629797550876,2089
1629797550880,2087
1629797550884,2085
1629797550888,2083
1629797550892,2080
1629797550896,2078
1629797550900,2074
1629797550904,2071
1629797550908,2067
1629797550912,2064
1629797550916,2060
1629797550920,2057
1629797550924,2054
1629797550928,2051
1629797550932,2050
1629797550936,2048
1629797550940,2047
1629797550944,2046
1629797550948,2044
1629797550952,2043
1629797550956,2042
1629797550960,2040
1629797550964,2040
1629797550968,2039
1629797550972,2039
1629797550976,2039
1629797550980,2038
1629797550984,2038
1629797550988,2038
1629797550992,2039
1629797550996,2038
1629797551000,2038
1629797551004,2038
1629797551008,2038
1629797551012,2039
1629797551016,2039
1629797551020,2039
1629797551024,2039
1629797551028,2039
1629797551032,2040
1629797551036,2040
1629797551040,2040
1629797551044,2040
1629797551048,2040
1629797551052,2040
1629797551056,2041
1629797551060,2041
1629797551064,2042
1629797551068,2042
1629797551072,2042
1629797551076,2042
1629797551080,2042
1629797551084,2042
1629797551088,2042
1629797551092,2043
1629797551096,2044
1629797551100,2044
1629797551104,2044
1629797551108,2043
1629797551112,2042
1629797551116,2041
1629797551120,2041
1629797551124,2042
1629797551128,2043
1629797551132,2044
1629797551136,2044
1629797551140,2044
1629797551144,2043
1629797551148,2043
1629797551152,2043
1629797551156,2042
1629797551160,2041
1629797551164,2042
1629797551168,2042
1629797551172,2042
1629797551176,2042
1629797551180,2042
1629797551184,2042
1629797551188,2041
1629797551192,2042
1629797551196,2041
1629797551200,2041
1629797551204,2042
1629797551208,2041
1629797551212,2041
1629797551216,2041
1629797551220,2041
1629797551224,2043
1629797551228,2042
1629797551232,2043
1629797551236,2042
1629797551240,2042
1629797551244,2042
1629797551248,2041
1629797551252,2042
1629797551256,2042
1629797551260,2043
1629797551264,2042
1629797551268,2042
1629797551272,2042
1629797551276,2042
1629797551280,2042
1629797551284,2042
1629797551288,2041
1629797551292,2041
1629797551296,2042
1629797551300,2042
1629797551304,2043
1629797551308,2042
1629797551312,2043
1629797551316,2043
1629797551320,2043
1629797551324,2043
1629797551328,2043
1629797551332,2043
1629797551336,2043
1629797551340,2043
1629797551344,2043
1629797551348,2043
1629797551352,2043
1629797551356,2042
1629797551360,2042
1629797551364,2042
1629797551368,2043
1629797551372,2043
1629797551376,2044
1629797551380,2045
1629797551384,2044
1629797551388,2044
1629797551392,2044
1629797551396,2044
1629797551400,2043
1629797551404,2043
1629797551408,2044
1629797551412,2044
1629797551416,2044
1629797551420,2044
1629797551424,2045
1629797551428,2045
1629797551432,2046
1629797551436,2046
1629797551440,2046
1629797551444,2046
1629797551448,2046
1629797551452,2046
1629797551456,2045
1629797551460,2044
1629797551464,2043
1629797551468,2043
1629797551472,2044
1629797551476,2046
1629797551480,2046
1629797551484,2046
1629797551488,2045
1629797551492,2044
1629797551496,2044
1629797551500,2044
1629797551504,2044
1629797551508,2044
1629797551512,2043
1629797551516,2042
1629797551520,2041
1629797551524,2041
1629797551528,2041
1629797551532,2041
1629797551536,2041
1629797551540,2041
1629797551544,2041
1629797551548,2041
1629797551552,2042
1629797551556,2041
1629797551560,2041
1629797551564,2041
1629797551568,2041
1629797551572,2041
1629797551576,2042
1629797551580,2042
1629797551584,2042
1629797551588,2041
1629797551592,2043
1629797551596,2047
1629797551600,2051
1629797551604,2057
1629797551608,2063
1629797551612,2069
1629797551616,2081
1629797551620,2100
1629797551624,2129
1629797551628,2156
1629797551632,2169
1629797551636,2155
1629797551640,2111
1629797551644,2047
1629797551648,1981
1629797551652,1932
1629797551656,1912
1629797551660,1919
1629797551664,1942
1629797551668,1970
1629797551672,1996
1629797551676,2014
1629797551680,2027
1629797551684,2037
1629797551688,2044
1629797551692,2048
1629797551696,2050
1629797551700,2051
1629797551704,2052
1629797551708,2053
1629797551712,2054
1629797551716,2055
1629797551720,2056
1629797551724,2057
1629797551728,2058
1629797551732,2058
1629797551736,2059
1629797551740,2059
1629797551744,2060
1629797551748,2060
1629797551752,2061
1629797551756,2062
1629797551760,2063
1629797551764,2063
1629797551768,2064
1629797551772,2064
1629797551776,2065
1629797551780,2066
1629797551784,2067
1629797551788,2068
1629797551792,2069
1629797551796,2070
1629797551800,2071
1629797551804,2072
1629797551808,2073
1629797551812,2075
1629797551816,2076
1629797551820,2077
1629797551824,2079
1629797551828,2080
1629797551832,2083
1629797551836,2084
1629797551840,2085
1629797551844,2086
1629797551848,2087
1629797551852,2088
1629797551856,2089
1629797551860,2090
1629797551864,2090
1629797551868,2090
1629797551872,2091
1629797551876,2090
1629797551880,2090
1629797551884,2090
1629797551888,2089
1629797551892,2089
1629797551896,2088
1629797551900,2086
1629797551904,2084
1629797551908,2081
1629797551912,2079
1629797551916,2076
1629797551920,2072
1629797551924,2069
1629797551928,2065
1629797551932,2062
1629797551936,2059
1629797551940,2056
1629797551944,2054
1629797551948,2051
1629797551952,2049
1629797551956,2048
1629797551960,2046
1629797551964,2045
1629797551968,2044
1629797551972,2044
1629797551976,2044
1629797551980,2043
1629797551984,2043
1629797551988,2042
1629797551992,2042
1629797551996,2041
1629797552000,2041
1629797552004,2041
1629797552008,2041
1629797552012,2042
1629797552016,2042
1629797552020,2042
1629797552024,2043
1629797552028,2043
1629797552032,2043
1629797552036,2043
1629797552040,2043
1629797552044,2042
1629797552048,2042
1629797552052,2042
1629797552056,2043
1629797552060,2044
1629797552064,2045
1629797552068,2045
1629797552072,2045
1629797552076,2045
1629797552080,2045
1629797552084,2045
1629797552088,2045
1629797552092,2046
1629797552096,2047
1629797552100,2048
1629797552104,2048
1629797552108,2046
1629797552112,2045
1629797552116,2044
1629797552120,2044
1629797552124,2045
1629797552128,2046
1629797552132,2047
1629797552136,2048
1629797552140,2047
1629797552144,2047
1629797552148,2047
1629797552152,2048
1629797552156,2047
1629797552160,2047
1629797552164,2047
1629797552168,2046
1629797552172,2046
1629797552176,2046
1629797552180,2046
1629797552184,2046
1629797552188,2046
1629797552192,2046
1629797552196,2046
1629797552200,2046
1629797552204,2046
1629797552208,2045
1629797552212,2044
1629797552216,2045
1629797552220,2045
1629797552224,2046
1629797552228,2046
1629797552232,2046
1629797552236,2045
1629797552240,2045
1629797552244,2045
1629797552248,2045
1629797552252,2045
1629797552256,2045
1629797552260,2046
1629797552264,2046
1629797552268,2045
1629797552272,2046
1629797552276,2045
1629797552280,2045
1629797552284,2045
1629797552288,2045
1629797552292,2045
1629797552296,2045
1629797552300,2046
1629797552304,2046
1629797552308,2046
1629797552312,2046
1629797552316,2046
1629797552320,2046
1629797552324,2046
1629797552328,2046
1629797552332,2046
1629797552336,2047
1629797552340,2047
1629797552344,2047
1629797552348,2046
1629797552352,2046
1629797552356,2045
1629797552360,2046
1629797552364,2046
1629797552368,2047
1629797552372,2047
1629797552376,2048
1629797552380,2048
1629797552384,2048
1629797552388,2048
1629797552392,2048
1629797552396,2048
1629797552400,2048
1629797552404,2048
1629797552408,2048
1629797552412,2047
1629797552416,2047
1629797552420,2047
1629797552424,2047
1629797552428,2047
1629797552432,2048
1629797552436,2048
1629797552440,2047
1629797552444,2047
1629797552448,2047
1629797552452,2048
1629797552456,2047
1629797552460,2047
1629797552464,2047
1629797552468,2047
1629797552472,2048
1629797552476,2049
1629797552480,2049
1629797552484,2048
1629797552488,2046
1629797552492,2045
1629797552496,2044
1629797552500,2045
1629797552504,2046
1629797552508,2046
1629797552512,2047
1629797552516,2048
1629797552520,2048
1629797552524,2048
1629797552528,2046
1629797552532,2045
1629797552536,2045
1629797552540,2046
1629797552544,2046
1629797552548,2045
1629797552552,2045
1629797552556,2044
1629797552560,2043
1629797552564,2043
1629797552568,2043
1629797552572,2043
1629797552576,2043
1629797552580,2043
1629797552584,2045
1629797552588,2045
1629797552592,2045
1629797552596,2045
1629797552600,2045
1629797552604,2046
1629797552608,2046
1629797552612,2046
1629797552616,2046
1629797552620,2046
1629797552624,2048
1629797552628,2054
1629797552632,2060
1629797552636,2064
1629797552640,2069
1629797552644,2078
1629797552648,2093
1629797552652,2118
1629797552656,2148
1629797552660,2170
1629797552664,2171
1629797552668,2140
1629797552672,2083
1629797552676,2016
1629797552680,1958
1629797552684,1925
1629797552688,1919
1629797552692,1937
1629797552696,1963
1629797552700,1989
1629797552704,2009
1629797552708,2023
1629797552712,2035
1629797552716,2044
1629797552720,2049
1629797552724,2053
1629797552728,2055
1629797552732,2056
1629797552736,2057
1629797552740,2058
1629797552744,2059
1629797552748,2061
1629797552752,2062
1629797552756,2061
1629797552760,2062
1629797552764,2063
1629797552768,2063
1629797552772,2064
1629797552776,2064
1629797552780,2065
1629797552784,2066
1629797552788,2067
1629797552792,2068
1629797552796,2068
1629797552800,2068
1629797552804,2069
1629797552808,2070
1629797552812,2071
1629797552816,2072
1629797552820,2073
1629797552824,2074
1629797552828,2074
1629797552832,2075
1629797552836,2076
1629797552840,2077
1629797552844,2079
1629797552848,2080
1629797552852,2082
1629797552856,2084
1629797552860,2085
1629797552864,2087
1629797552868,2088
1629797552872,2090
1629797552876,2091
1629797552880,2093
1629797552884,2094
1629797552888,2094
1629797552892,2095
1629797552896,2095
1629797552900,2095
1629797552904,2095
1629797552908,2095
1629797552912,2095
1629797552916,2095
1629797552920,2094
1629797552924,2093
1629797552928,2092
1629797552932,2090
1629797552936,2088
1629797552940,2085
1629797552944,2082
1629797552948,2079
1629797552952,2076
1629797552956,2072
1629797552960,2068
1629797552964,2065
1629797552968,2062
1629797552972,2059
1629797552976,2057
1629797552980,2054
1629797552984,2052
1629797552988,2050
1629797552992,2048
1629797552996,2048
1629797553000,2047
1629797553004,2047
1629797553008,2046
1629797553012,2045
1629797553016,2045
1629797553020,2045
1629797553024,2045
1629797553028,2044
1629797553032,2044
1629797553036,2043
1629797553040,2043
1629797553044,2043
1629797553048,2044
1629797553052,2044
1629797553056,2044
1629797553060,2044
1629797553064,2044
1629797553068,2043
1629797553072,2045
1629797553076,2045
1629797553080,2045
1629797553084,2044
1629797553088,2044
1629797553092,2045
1629797553096,2046
1629797553100,2047
1629797553104,2047
1629797553108,2046
1629797553112,2045
1629797553116,2044
1629797553120,2044
1629797553124,2045
1629797553128,2046
1629797553132,2047
1629797553136,2047
1629797553140,2047
1629797553144,2047
1629797553148,2047
1629797553152,2047
1629797553156,2047
1629797553160,2047
1629797553164,2047
1629797553168,2046
1629797553172,2046
1629797553176,2046
1629797553180,2046
1629797553184,2046
1629797553188,2046
1629797553192,2047
1629797553196,2046
1629797553200,2046
1629797553204,2046
1629797553208,2044
1629797553212,2044
1629797553216,2044
1629797553220,2045
1629797553224,2046
1629797553228,2046
1629797553232,2045
1629797553236,2044
1629797553240,2043
1629797553244,2044
1629797553248,2043
1629797553252,2044
1629797553256,2044
1629797553260,2045
1629797553264,2044
1629797553268,2044
1629797553272,2044
1629797553276,2044
1629797553280,2044
1629797553284,2044
1629797553288,2044
1629797553292,2044
1629797553296,2045
1629797553300,2046
1629797553304,2045
1629797553308,2044
1629797553312,2044
1629797553316,2044
1629797553320,2044
1629797553324,2044
