timestamp,green,ir,red
1629797528074,16326,232460,153732
1629797528084,16330,232493,153741
1629797528094,16327,232498,153726
1629797528104,16327,232483,153754
1629797528114,16331,232492,153724
1629797528124,16336,232532,153733
1629797528134,16331,232500,153722
1629797528144,16335,232522,153698
1629797528154,16343,232514,153720
1629797528164,16341,232544,153730
1629797528174,16346,232546,153731
1629797528184,16349,232533,153732
1629797528194,16349,232552,153714
1629797528204,16353,232584,153714
1629797528214,16354,232601,153729
1629797528224,16366,232591,153712
1629797528234,16366,232586,153735
1629797528244,16362,232594,153737
1629797528254,16363,232589,153725
1629797528264,16365,232617,153752
1629797528274,16384,232651,153754
1629797528284,16387,232685,153754
1629797528294,16396,232697,153743
1629797528304,16401,232703,153784
1629797528314,16407,232718,153780
1629797528324,16412,232732,153783
1629797528334,16413,232753,153775
1629797528344,16425,232800,153788
1629797528354,16426,232786,153802
1629797528364,16435,232814,153822
1629797528374,16437,232794,153810
1629797528384,16443,232811,153837
1629797528394,16453,232853,153847
1629797528404,16461,232906,153876
1629797528414,16468,232857,153864
1629797528424,16470,232888,153869
1629797528434,16484,232890,153875
1629797528444,16497,232950,153912
1629797528454,16496,232971,153912
1629797528464,16506,232972,153944
1629797528474,16520,232981,153971
1629797528484,16532,233006,153990
1629797528494,16543,233020,154007
1629797528504,16550,233006,154066
1629797528514,16557,233010,154061
1629797528524,16564,233034,154088
1629797528534,16566,233011,154100
1629797528544,16568,233018,154114
1629797528554,16564,233015,154139
1629797528564,16570,233022,154168
1629797528574,16579,232978,154183
1629797528584,16575,233016,154204
1629797528594,16578,233024,154224
1629797528604,16583,233000,154250
1629797528614,16576,232992,154254
1629797528624,16576,232942,154235
1629797528634,16571,232974,154275
1629797528644,16567,232976,154280
1629797528654,16566,232932,154277
1629797528664,16557,232927,154284
1629797528674,16552,232914,154279
1629797528684,16553,232917,154273
1629797528694,16547,232869,154296
1629797528704,16549,232917,154283
1629797528714,16545,232900,154284
1629797528724,16535,232890,154296
1629797528734,16530,232893,154302
1629797528744,16529,232901,154297
1629797528754,16523,232878,154293
1629797528764,16519,232866,154304
1629797528774,16516,232854,154286
1629797528784,16514,232864,154295
1629797528794,16509,232859,154269
1629797528804,16512,232837,154265
1629797528814,16500,232835,154254
1629797528824,16498,232809,154256
1629797528834,16494,232836,154235
1629797528844,16486,232833,154239
1629797528854,16488,232826,154219
1629797528864,16475,232830,154184
1629797528874,16479,232781,154183
1629797528884,16464,232763,154151
1629797528894,16457,232775,154118
1629797528904,16456,232730,154097
1629797528914,16449,232713,154075
1629797528924,16446,232721,154050
1629797528934,16438,232694,154034
1629797528944,16424,232665,154002
1629797528954,16421,232665,153968
1629797528964,16412,232631,153941
1629797528974,16407,232627,153891
1629797528984,16396,232617,153859
1629797528994,16391,232586,153820
1629797529004,16379,232562,153792
1629797529014,16371,232550,153736
1629797529024,16357,232489,153686
1629797529034,16344,232463,153623
1629797529044,16321,232423,153526
1629797529054,16313,232398,153497
1629797529064,16302,232351,153410
1629797529074,16284,232305,153372
1629797529084,16271,232283,153340
1629797529094,16267,232290,153249
1629797529104,16255,232267,153233
1629797529114,16238,232247,153196
1629797529124,16234,232229,153148
1629797529134,16223,232234,153110
1629797529144,16221,232227,153053
1629797529154,16209,232240,153002
1629797529164,16202,232202,152984
1629797529174,16202,232215,152948
1629797529184,16201,232215,152934
1629797529194,16201,232236,152928
1629797529204,16202,232258,152919
1629797529214,16214,232255,152929
1629797529224,16220,232309,152959
1629797529234,16226,232328,152977
1629797529244,16243,232387,153004
1629797529254,16254,232431,153014
1629797529264,16263,232425,153060
1629797529274,16274,232488,153066
1629797529284,16289,232553,153098
1629797529294,16307,232544,153150
1629797529304,16318,232629,153179
1629797529314,16332,232654,153187
1629797529324,16349,232691,153252
1629797529334,16362,232754,153278
1629797529344,16384,232779,153317
1629797529354,16392,232846,153352
1629797529364,16426,232890,153442
1629797529374,16434,232901,153501
1629797529384,16458,232915,153551
1629797529394,16474,232945,153567
1629797529404,16487,232945,153608
1629797529414,16498,232964,153635
1629797529424,16506,232979,153686
1629797529434,16518,232976,153735
1629797529444,16531,233028,153785
1629797529454,16544,233062,153785
1629797529464,16541,233039,153815
1629797529474,16536,233022,153824
1629797529484,16535,232992,153813
1629797529494,16533,232967,153798
1629797529504,16529,232972,153820
1629797529514,16531,232938,153816
1629797529524,16524,232927,153823
1629797529534,16519,232916,153800
1629797529544,16512,232912,153819
1629797529554,16508,232917,153807
1629797529564,16498,232885,153814
1629797529574,16493,232825,153783
1629797529584,16488,232809,153770
1629797529594,16479,232782,153771
1629797529604,16475,232785,153761
1629797529614,16463,232730,153735
1629797529624,16449,232737,153706
1629797529634,16439,232723,153665
1629797529644,16425,232650,153639
1629797529654,16415,232637,153614
1629797529664,16404,232623,153580
1629797529674,16389,232545,153530
1629797529684,16381,232524,153510
1629797529694,16375,232524,153455
1629797529704,16359,232504,153419
1629797529714,16351,232428,153374
1629797529724,16335,232421,153318
1629797529734,16319,232390,153296
1629797529744,16314,232352,153242
1629797529754,16305,232361,153234
1629797529764,16297,232343,153197
1629797529774,16290,232275,153179
1629797529784,16285,232319,153138
1629797529794,16276,232265,153138
1629797529804,16267,232229,153078
1629797529814,16259,232292,153036
1629797529824,16256,232247,153042
1629797529834,16251,232258,153019
1629797529844,16246,232218,152990
1629797529854,16252,232216,152969
1629797529864,16240,232221,152953
1629797529874,16236,232226,152916
1629797529884,16228,232228,152894
1629797529894,16235,232185,152909
1629797529904,16232,232245,152887
1629797529914,16229,232224,152888
1629797529924,16232,232217,152864
1629797529934,16238,232276,152873
1629797529944,16237,232252,152868
1629797529954,16238,232247,152848
1629797529964,16243,232292,152866
1629797529974,16244,232292,152859
1629797529984,16254,232335,152870
1629797529994,16257,232313,152864
1629797530004,16269,232343,152896
1629797530014,16266,232344,152891
1629797530024,16276,232408,152904
1629797530034,16283,232363,152890
1629797530044,16283,232454,152905
1629797530054,16287,232400,152887
1629797530064,16295,232416,152887
1629797530074,16294,232425,152912
1629797530084,16304,232431,152911
1629797530094,16310,232440,152912
1629797530104,16307,232472,152917
1629797530114,16318,232485,152931
1629797530124,16320,232468,152927
1629797530134,16319,232495,152911
1629797530144,16325,232496,152928
1629797530154,16326,232509,152917
1629797530164,16330,232564,152891
1629797530174,16337,232554,152896
1629797530184,16331,232562,152871
1629797530194,16331,232509,152877
1629797530204,16330,232546,152869
1629797530214,16341,232526,152847
1629797530224,16339,232504,152846
1629797530234,16345,232543,152857
1629797530244,16345,232560,152854
1629797530254,16353,232529,152845
1629797530264,16357,232512,152849
1629797530274,16354,232505,152841
1629797530284,16354,232487,152833
1629797530294,16351,232465,152826
1629797530304,16345,232428,152809
1629797530314,16343,232407,152804
1629797530324,16336,232392,152775
1629797530334,16336,232440,152797
1629797530344,16319,232374,152765
1629797530354,16302,232354,152726
1629797530364,16305,232311,152713
1629797530374,16293,232273,152679
1629797530384,16283,232255,152666
1629797530394,16271,232251,152662
1629797530404,16259,232208,152635
1629797530414,16254,232183,152609
1629797530424,16235,232178,152558
1629797530434,16224,232126,152521
1629797530444,16205,232094,152504
1629797530454,16193,232075,152458
1629797530464,16182,232040,152421
1629797530474,16164,232010,152375
1629797530484,16151,231972,152334
1629797530494,16134,231955,152301
1629797530504,16123,231925,152266
1629797530514,16115,231929,152239
1629797530524,16093,231880,152201
1629797530534,16086,231834,152151
1629797530544,16066,231835,152113
1629797530554,16061,231801,152069
1629797530564,16052,231813,152047
1629797530574,16039,231811,152003
1629797530584,16028,231750,151980
1629797530594,16024,231758,151975
1629797530604,16016,231765,151934
1629797530614,16007,231734,151922
1629797530624,16009,231709,151915
1629797530634,16000,231724,151878
1629797530644,15991,231686,151848
1629797530654,15987,231681,151830
1629797530664,15974,231687,151816
1629797530674,15974,231667,151779
1629797530684,15974,231659,151751
1629797530694,15966,231661,151743
1629797530704,15959,231643,151722
1629797530714,15958,231654,151706
1629797530724,15965,231637,151668
1629797530734,15955,231644,151662
1629797530744,15949,231647,151654
1629797530754,15948,231643,151622
1629797530764,15949,231619,151604
1629797530774,15944,231642,151609
1629797530784,15942,231638,151573
1629797530794,15943,231620,151578
1629797530804,15949,231612,151555
1629797530814,15939,231628,151532
1629797530824,15939,231624,151542
1629797530834,15939,231660,151522
1629797530844,15944,231680,151498
1629797530854,15947,231669,151517
1629797530864,15946,231638,151493
1629797530874,15951,231663,151510
1629797530884,15948,231692,151470
1629797530894,15951,231714,151510
1629797530904,15956,231710,151517
1629797530914,15955,231727,151501
1629797530924,15967,231758,151499
1629797530934,15972,231741,151516
1629797530944,15970,231759,151502
1629797530954,15978,231797,151508
1629797530964,15980,231819,151510
1629797530974,15985,231780,151524
1629797530984,15993,231809,151508
1629797530994,16002,231835,151515
1629797531004,15991,231826,151532
1629797531014,16004,231877,151497
1629797531024,15996,231841,151502
1629797531034,16003,231826,151477
1629797531044,16009,231856,151475
1629797531054,16008,231835,151461
1629797531064,16011,231814,151465
1629797531074,16010,231809,151470
1629797531084,16005,231776,151459
1629797531094,16003,231784,151456
1629797531104,16004,231781,151453
1629797531114,16004,231778,151453
1629797531124,16000,231716,151447
1629797531134,15995,231751,151410
1629797531144,15992,231685,151450
1629797531154,15982,231686,151457
1629797531164,15975,231684,151408
1629797531174,15976,231656,151404
1629797531184,15962,231670,151415
1629797531194,15950,231591,151382
1629797531204,15941,231604,151367
1629797531214,15931,231552,151367
1629797531224,15921,231535,151336
1629797531234,15916,231521,151329
1629797531244,15896,231501,151295
1629797531254,15883,231485,151288
1629797531264,15870,231424,151265
1629797531274,15857,231431,151221
1629797531284,15846,231417,151191
1629797531294,15837,231432,151178
1629797531304,15830,231374,151140
1629797531314,15817,231371,151117
1629797531324,15805,231363,151072
1629797531334,15800,231313,151022
1629797531344,15773,231293,151008
1629797531354,15754,231289,150952
1629797531364,15747,231268,150927
1629797531374,15738,231237,150897
1629797531384,15735,231227,150864
1629797531394,15723,231192,150864
1629797531404,15718,231217,150831
1629797531414,15708,231219,150810
1629797531424,15700,231179,150784
1629797531434,15693,231210,150778
1629797531444,15688,231216,150747
1629797531454,15681,231222,150725
1629797531464,15682,231181,150704
1629797531474,15676,231197,150696
1629797531484,15676,231210,150697
1629797531494,15670,231189,150670
1629797531504,15663,231204,150633
1629797531514,15646,231199,150602
1629797531524,15648,231193,150589
1629797531534,15649,231190,150564
1629797531544,15643,231206,150565
1629797531554,15639,231190,150518
1629797531564,15635,231181,150515
1629797531574,15634,231207,150502
1629797531584,15631,231172,150467
1629797531594,15629,231188,150471
1629797531604,15630,231223,150451
1629797531614,15624,231173,150439
1629797531624,15627,231206,150441
1629797531634,15626,231240,150424
1629797531644,15635,231206,150448
1629797531654,15628,231274,150437
1629797531664,15633,231234,150428
1629797531674,15640,231268,150426
1629797531684,15639,231245,150395
1629797531694,15631,231282,150404
1629797531704,15636,231258,150395
1629797531714,15631,231292,150390
1629797531724,15640,231299,150389
1629797531734,15640,231337,150371
1629797531744,15638,231334,150370
1629797531754,15640,231330,150361
1629797531764,15643,231324,150343
1629797531774,15645,231345,150338
1629797531784,15650,231339,150349
1629797531794,15649,231339,150328
1629797531804,15646,231320,150319
1629797531814,15651,231325,150313
1629797531824,15658,231304,150327
1629797531834,15657,231306,150292
1629797531844,15653,231300,150294
1629797531854,15656,231288,150295
1629797531864,15660,231261,150289
1629797531874,15652,231272,150286
1629797531884,15639,231226,150278
1629797531894,15646,231218,150263
1629797531904,15632,231213,150262
1629797531914,15625,231188,150271
1629797531924,15621,231198,150256
1629797531934,15612,231145,150243
1629797531944,15607,231179,150235
1629797531954,15596,231102,150218
1629797531964,15584,231101,150225
1629797531974,15579,231076,150203
1629797531984,15561,231055,150205
1629797531994,15560,231024,150191
1629797532004,15546,231036,150184
1629797532014,15543,231006,150187
1629797532024,15533,231007,150182
1629797532034,15522,230966,150169
1629797532044,15519,230930,150165
1629797532054,15505,230949,150164
1629797532064,15502,230919,150157
1629797532074,15495,230919,150152
1629797532084,15489,230913,150145
1629797532094,15491,230893,150130
1629797532104,15481,230873,150141
1629797532114,15479,230893,150119
1629797532124,15475,230918,150124
1629797532134,15476,230885,150108
1629797532144,15466,230873,150104
1629797532154,15472,230869,150119
1629797532164,15466,230835,150100
1629797532174,15463,230859,150097
1629797532184,15459,230843,150092
1629797532194,15461,230875,150088
1629797532204,15458,230865,150083
1629797532214,15458,230862,150084
1629797532224,15455,230851,150083
1629797532234,15453,230867,150070
1629797532244,15459,230855,150087
1629797532254,15459,230871,150078
1629797532264,15457,230873,150092
1629797532274,15457,230857,150056
1629797532284,15450,230845,150084
1629797532294,15459,230879,150059
1629797532304,15461,230889,150060
1629797532314,15468,230898,150068
1629797532324,15470,230874,150080
1629797532334,15465,230892,150101
1629797532344,15473,230901,150097
1629797532354,15473,230888,150078
1629797532364,15481,230906,150116
1629797532374,15488,230916,150123
1629797532384,15488,230916,150118
1629797532394,15495,230903,150124
1629797532404,15503,230965,150132
1629797532414,15509,230954,150137
1629797532424,15513,230974,150141
1629797532434,15518,230995,150155
1629797532444,15527,230974,150158
1629797532454,15531,231003,150204
1629797532464,15537,230979,150195
1629797532474,15539,231015,150190
1629797532484,15542,231030,150198
1629797532494,15544,231014,150222
1629797532504,15556,231071,150214
1629797532514,15567,231072,150234
1629797532524,15576,231054,150246
1629797532534,15575,231124,150257
1629797532544,15582,231127,150275
1629797532554,15591,231098,150263
1629797532564,15593,231107,150275
1629797532574,15594,231085,150258
1629797532584,15599,231082,150256
1629797532594,15597,231120,150233
1629797532604,15605,231086,150256
1629797532614,15609,231072,150264
1629797532624,15613,231056,150243
1629797532634,15612,231050,150273
1629797532644,15608,231030,150271
1629797532654,15602,230978,150259
1629797532664,15600,230948,150253
1629797532674,15591,230971,150256
1629797532684,15590,230937,150245
1629797532694,15582,230917,150256
1629797532704,15572,230868,150244
1629797532714,15563,230869,150241
1629797532724,15553,230837,150232
1629797532734,15542,230839,150220
1629797532744,15530,230829,150216
1629797532754,15523,230766,150225
1629797532764,15521,230741,150194
1629797532774,15498,230703,150207
1629797532784,15489,230671,150215
1629797532794,15482,230642,150190
1629797532804,15462,230671,150174
1629797532814,15458,230632,150161
1629797532824,15444,230594,150179
1629797532834,15445,230558,150164
1629797532844,15437,230561,150131
1629797532854,15427,230558,150139
1629797532864,15420,230537,150127
1629797532874,15407,230513,150110
1629797532884,15408,230497,150111
1629797532894,15400,230478,150111
1629797532904,15392,230482,150102
1629797532914,15389,230458,150104
1629797532924,15387,230474,150072
1629797532934,15385,230439,150054
1629797532944,15377,230424,150060
1629797532954,15372,230429,150062
1629797532964,15359,230409,150049
1629797532974,15368,230392,150028
1629797532984,15369,230405,150039
1629797532994,15368,230391,150021
1629797533004,15370,230375,150016
1629797533014,15364,230359,150012
1629797533024,15358,230365,150009
1629797533034,15356,230351,149986
1629797533044,15356,230374,150009
1629797533054,15356,230380,150006
1629797533064,15353,230394,149997
1629797533074,15352,230391,149967
1629797533084,15348,230376,149995
1629797533094,15354,230396,149968
1629797533104,15356,230390,149961
1629797533114,15348,230396,149974
1629797533124,15359,230408,149977
1629797533134,15356,230388,149981
1629797533144,15358,230349,149979
1629797533154,15357,230437,149967
1629797533164,15362,230407,149968
1629797533174,15370,230408,149965
1629797533184,15364,230398,149953
1629797533194,15367,230411,149956
1629797533204,15365,230448,149947
1629797533214,15373,230460,149951
1629797533224,15378,230465,149950
1629797533234,15374,230446,149956
1629797533244,15380,230433,149950
1629797533254,15377,230444,149937
1629797533264,15390,230466,149952
1629797533274,15386,230472,149932
1629797533284,15394,230483,149946
1629797533294,15402,230490,149935
1629797533304,15400,230506,149919
1629797533314,15405,230521,149936
1629797533324,15405,230526,149945
1629797533334,15413,230521,149941
1629797533344,15414,230543,149956
1629797533354,15418,230535,149932
1629797533364,15422,230576,149940
1629797533374,15427,230572,149945
1629797533384,15428,230607,149936
1629797533394,15438,230592,149952
1629797533404,15441,230640,149949
1629797533414,15442,230608,149948
1629797533424,15460,230628,149940
1629797533434,15456,230572,149955
1629797533444,15458,230610,149975
1629797533454,15462,230565,149960
1629797533464,15470,230557,149958
1629797533474,15464,230553,149979
1629797533484,15462,230559,149949
1629797533494,15457,230549,149953
1629797533504,15457,230483,149953
1629797533514,15449,230473,149946
1629797533524,15442,230492,149956
1629797533534,15436,230474,149933
1629797533544,15429,230426,149921
1629797533554,15422,230402,149920
1629797533564,15414,230381,149899
1629797533574,15403,230352,149926
1629797533584,15401,230336,149910
1629797533594,15388,230344,149906
1629797533604,15382,230306,149890
1629797533614,15367,230309,149883
1629797533624,15364,230302,149894
1629797533634,15362,230252,149893
1629797533644,15347,230244,149893
1629797533654,15347,230249,149875
1629797533664,15333,230195,149856
1629797533674,15327,230176,149871
1629797533684,15323,230152,149859
1629797533694,15318,230178,149845
1629797533704,15313,230172,149835
1629797533714,15308,230128,149841
1629797533724,15307,230128,149842
1629797533734,15300,230122,149839
1629797533744,15294,230146,149832
1629797533754,15300,230122,149827
1629797533764,15296,230098,149814
1629797533774,15291,230117,149816
1629797533784,15297,230092,149815
1629797533794,15289,230089,149814
1629797533804,15287,230072,149788
1629797533814,15291,230092,149799
1629797533824,15285,230091,149791
1629797533834,15283,230038,149797
1629797533844,15278,230031,149801
1629797533854,15284,230072,149786
1629797533864,15283,230092,149796
1629797533874,15283,230067,149783
1629797533884,15285,230057,149749
1629797533894,15283,230071,149764
1629797533904,15285,230071,149768
1629797533914,15288,230074,149759
1629797533924,15285,230062,149757
1629797533934,15285,230097,149774
1629797533944,15285,230111,149742
1629797533954,15285,230082,149751
1629797533964,15288,230087,149773
1629797533974,15285,230074,149743
1629797533984,15293,230075,149730
1629797533994,15296,230095,149735
1629797534004,15291,230090,149725
1629797534014,15296,230093,149714
1629797534024,15301,230097,149733
1629797534034,15306,230109,149726
1629797534044,15307,230103,149713
1629797534054,15306,230123,149719
1629797534064,15302,230122,149708
1629797534074,15315,230140,149715
1629797534084,15316,230124,149714
1629797534094,15315,230117,149724
1629797534104,15328,230149,149711
1629797534114,15320,230119,149697
1629797534124,15332,230122,149700
1629797534134,15332,230148,149700
1629797534144,15334,230179,149687
1629797534154,15336,230167,149691
1629797534164,15344,230195,149718
1629797534174,15353,230251,149721
1629797534184,15354,230258,149724
1629797534194,15363,230292,149750
1629797534204,15367,230286,149751
1629797534214,15375,230304,149747
1629797534224,15378,230321,149766
1629797534234,15385,230368,149776
1629797534244,15390,230398,149810
1629797534254,15412,230379,149820
1629797534264,15420,230392,149854
1629797534274,15423,230413,149866
1629797534284,15428,230411,149848
1629797534294,15425,230375,149867
1629797534304,15421,230372,149861
1629797534314,15418,230356,149836
1629797534324,15410,230350,149819
1629797534334,15407,230335,149847
1629797534344,15402,230297,149832
1629797534354,15395,230286,149852
1629797534364,15393,230316,149839
1629797534374,15388,230277,149831
1629797534384,15374,230281,149827
1629797534394,15370,230232,149808
1629797534404,15362,230234,149830
1629797534414,15364,230206,149816
1629797534424,15352,230188,149825
1629797534434,15352,230172,149838
1629797534444,15349,230221,149852
1629797534454,15345,230172,149869
1629797534464,15344,230174,149868
1629797534474,15339,230153,149851
1629797534484,15342,230162,149854
1629797534494,15332,230148,149879
1629797534504,15328,230179,149891
1629797534514,15325,230174,149873
1629797534524,15321,230140,149867
1629797534534,15322,230168,149879
1629797534544,15322,230159,149896
1629797534554,15328,230201,149912
1629797534564,15325,230219,149872
1629797534574,15320,230144,149882
1629797534584,15325,230119,149876
1629797534594,15311,230159,149853
1629797534604,15314,230127,149847
1629797534614,15309,230147,149838
1629797534624,15306,230137,149829
1629797534634,15305,230137,149814
1629797534644,15306,230169,149839
1629797534654,15307,230160,149845
1629797534664,15303,230169,149847
1629797534674,15310,230199,149843
1629797534684,15310,230175,149850
1629797534694,15313,230204,149856
1629797534704,15321,230240,149871
1629797534714,15308,230207,149865
1629797534724,15331,230241,149861
1629797534734,15330,230226,149882
1629797534744,15337,230291,149889
1629797534754,15338,230282,149896
1629797534764,15351,230313,149919
1629797534774,15354,230297,149926
1629797534784,15359,230327,149935
1629797534794,15364,230390,149962
1629797534804,15369,230380,149972
1629797534814,15381,230384,149973
1629797534824,15382,230397,149995
1629797534834,15391,230433,149995
1629797534844,15392,230407,149987
1629797534854,15400,230433,150008
1629797534864,15401,230442,150007
1629797534874,15413,230456,150002
1629797534884,15410,230514,150021
1629797534894,15423,230473,150034
1629797534904,15432,230492,150041
1629797534914,15439,230545,150056
1629797534924,15442,230505,150061
1629797534934,15451,230528,150060
1629797534944,15458,230539,150066
1629797534954,15456,230580,150069
1629797534964,15459,230610,150056
1629797534974,15465,230575,150051
1629797534984,15469,230614,150057
1629797534994,15469,230590,150049
1629797535004,15474,230630,150055
1629797535014,15482,230644,150052
1629797535024,15482,230635,150033
1629797535034,15491,230683,150048
1629797535044,15493,230692,150070
1629797535054,15496,230684,150060
1629797535064,15506,230726,150080
1629797535074,15512,230735,150079
1629797535084,15527,230713,150093
1629797535094,15529,230717,150127
1629797535104,15539,230737,150118
1629797535114,15550,230730,150124
1629797535124,15550,230694,150168
1629797535134,15550,230667,150158
1629797535144,15546,230692,150138
1629797535154,15542,230696,150133
1629797535164,15537,230648,150141
1629797535174,15541,230663,150170
1629797535184,15535,230683,150135
1629797535194,15531,230578,150146
1629797535204,15535,230586,150135
1629797535214,15521,230619,150139
1629797535224,15527,230578,150163
1629797535234,15528,230591,150172
1629797535244,15528,230610,150195
1629797535254,15531,230606,150206
1629797535264,15522,230571,150258
1629797535274,15521,230605,150254
1629797535284,15531,230593,150284
1629797535294,15534,230620,150296
1629797535304,15529,230642,150307
1629797535314,15523,230590,150314
1629797535324,15527,230607,150307
1629797535334,15516,230614,150317
1629797535344,15513,230611,150312
1629797535354,15516,230639,150322
1629797535364,15510,230599,150320
1629797535374,15515,230643,150324
1629797535384,15510,230602,150295
1629797535394,15509,230594,150312
1629797535404,15517,230608,150301
1629797535414,15508,230602,150336
1629797535424,15517,230643,150331
1629797535434,15519,230608,150338
1629797535444,15513,230633,150312
1629797535454,15513,230609,150306
1629797535464,15511,230616,150298
1629797535474,15515,230633,150289
1629797535484,15514,230598,150278
1629797535494,15510,230615,150296
1629797535504,15509,230627,150287
1629797535514,15513,230618,150304
1629797535524,15517,230603,150285
1629797535534,15507,230628,150284
1629797535544,15511,230654,150254
1629797535554,15515,230654,150268
1629797535564,15522,230650,150280
1629797535574,15521,230667,150270
1629797535584,15521,230671,150280
1629797535594,15534,230694,150280
1629797535604,15528,230673,150268
1629797535614,15536,230662,150286
1629797535624,15535,230675,150269
1629797535634,15539,230693,150252
1629797535644,15545,230747,150296
1629797535654,15548,230749,150288
1629797535664,15554,230755,150290
1629797535674,15554,230751,150281
1629797535684,15559,230755,150270
1629797535694,15560,230760,150284
1629797535704,15568,230754,150284
1629797535714,15572,230810,150284
1629797535724,15574,230830,150296
1629797535734,15581,230839,150279
1629797535744,15584,230802,150316
1629797535754,15586,230855,150266
1629797535764,15587,230849,150295
1629797535774,15594,230849,150268
1629797535784,15596,230871,150261
1629797535794,15600,230879,150273
1629797535804,15607,230894,150267
1629797535814,15606,230883,150262
1629797535824,15608,230934,150250
1629797535834,15613,230916,150276
1629797535844,15612,230906,150259
1629797535854,15613,230939,150258
1629797535864,15632,230973,150255
1629797535874,15639,230989,150259
1629797535884,15637,230986,150273
1629797535894,15641,230995,150273
1629797535904,15649,231030,150247
1629797535914,15654,231039,150254
1629797535924,15662,230992,150283
1629797535934,15669,231024,150297
1629797535944,15677,231050,150292
1629797535954,15679,231047,150292
1629797535964,15681,231046,150296
1629797535974,15688,231072,150307
1629797535984,15691,231059,150318
1629797535994,15690,231051,150309
1629797536004,15685,231045,150313
1629797536014,15693,231024,150322
1629797536024,15690,231019,150326
1629797536034,15692,230982,150347
1629797536044,15686,231027,150346
1629797536054,15678,231008,150363
1629797536064,15684,231009,150358
1629797536074,15683,230996,150358
1629797536084,15675,230967,150384
1629797536094,15674,230978,150369
1629797536104,15673,230966,150374
1629797536114,15669,230950,150376
1629797536124,15664,230952,150369
1629797536134,15665,230967,150380
1629797536144,15657,230892,150385
1629797536154,15653,230922,150397
1629797536164,15651,230905,150398
1629797536174,15644,230905,150386
1629797536184,15646,230933,150405
1629797536194,15638,230943,150406
1629797536204,15639,230951,150399
1629797536214,15637,230926,150407
1629797536224,15647,230937,150425
1629797536234,15649,230960,150435
1629797536244,15650,230956,150430
1629797536254,15650,230977,150441
1629797536264,15654,230977,150452
1629797536274,15651,230985,150447
1629797536284,15650,230970,150452
1629797536294,15654,230979,150466
1629797536304,15658,230998,150480
1629797536314,15661,231005,150493
1629797536324,15662,230992,150486
1629797536334,15670,231003,150506
1629797536344,15665,231024,150518
1629797536354,15670,231041,150522
1629797536364,15676,231002,150502
1629797536374,15672,231035,150508
1629797536384,15673,231014,150488
1629797536394,15669,230999,150517
1629797536404,15670,231025,150510
1629797536414,15675,231044,150505
1629797536424,15679,231030,150524
1629797536434,15679,231077,150504
1629797536444,15682,231054,150511
1629797536454,15683,231071,150517
1629797536464,15683,231048,150514
1629797536474,15685,231112,150509
1629797536484,15688,231087,150517
1629797536494,15699,231062,150502
1629797536504,15689,231070,150501
1629797536514,15687,231103,150461
1629797536524,15694,231088,150463
1629797536534,15693,231076,150445
1629797536544,15699,231121,150455
1629797536554,15694,231129,150471
1629797536564,15697,231101,150463
1629797536574,15696,231119,150454
1629797536584,15694,231154,150420
1629797536594,15700,231133,150440
1629797536604,15695,231146,150401
1629797536614,15700,231142,150412
1629797536624,15700,231177,150408
1629797536634,15702,231182,150425
1629797536644,15709,231203,150410
1629797536654,15719,231215,150414
1629797536664,15728,231199,150428
1629797536674,15714,231251,150408
1629797536684,15727,231294,150442
1629797536694,15731,231227,150434
1629797536704,15736,231288,150450
1629797536714,15740,231270,150418
1629797536724,15749,231359,150425
1629797536734,15759,231348,150422
1629797536744,15763,231352,150447
1629797536754,15765,231329,150453
1629797536764,15772,231333,150464
1629797536774,15773,231416,150445
1629797536784,15783,231402,150484
1629797536794,15797,231400,150493
1629797536804,15799,231435,150503
1629797536814,15813,231475,150515
1629797536824,15821,231403,150546
1629797536834,15826,231423,150555
1629797536844,15835,231448,150554
1629797536854,15834,231447,150555
1629797536864,15837,231448,150600
1629797536874,15832,231416,150596
1629797536884,15835,231424,150598
1629797536894,15835,231399,150588
1629797536904,15832,231442,150604
1629797536914,15831,231423,150603
1629797536924,15833,231406,150626
1629797536934,15832,231408,150640
1629797536944,15827,231403,150626
1629797536954,15824,231385,150615
1629797536964,15817,231372,150618
1629797536974,15813,231362,150601
1629797536984,15810,231341,150616
1629797536994,15812,231350,150614
1629797537004,15815,231369,150647
1629797537014,15813,231385,150638
1629797537024,15802,231391,150659
1629797537034,15801,231369,150655
1629797537044,15800,231382,150667
1629797537054,15805,231344,150638
1629797537064,15798,231392,150680
1629797537074,15801,231354,150680
1629797537084,15801,231402,150668
1629797537094,15797,231361,150685
1629797537104,15800,231382,150687
1629797537114,15800,231390,150676
1629797537124,15795,231427,150690
1629797537134,15796,231428,150678
1629797537144,15797,231412,150675
1629797537154,15793,231425,150699
1629797537164,15803,231418,150694
1629797537174,15798,231386,150683
1629797537184,15801,231440,150691
1629797537194,15803,231455,150715
1629797537204,15814,231460,150722
1629797537214,15799,231428,150726
1629797537224,15801,231454,150698
1629797537234,15805,231488,150722
1629797537244,15804,231478,150702
1629797537254,15803,231460,150696
1629797537264,15804,231488,150713
1629797537274,15805,231495,150705
1629797537284,15812,231503,150726
1629797537294,15819,231562,150740
1629797537304,15828,231528,150762
1629797537314,15823,231609,150758
1629797537324,15845,231630,150797
1629797537334,15847,231643,150813
1629797537344,15857,231679,150834
1629797537354,15868,231664,150846
1629797537364,15874,231698,150896
1629797537374,15885,231744,150927
1629797537384,15895,231771,150946
1629797537394,15906,231809,151001
1629797537404,15921,231856,151029
1629797537414,15932,231889,151059
1629797537424,15937,231913,151088
1629797537434,15948,231888,151106
1629797537444,15959,231938,151129
1629797537454,15966,232008,151139
1629797537464,15975,231965,151168
1629797537474,15989,231986,151206
1629797537484,16002,232031,151210
1629797537494,15999,232047,151260
1629797537504,16006,232079,151280
1629797537514,16010,232056,151282
1629797537524,16028,232133,151305
1629797537534,16038,232104,151308
1629797537544,16033,232123,151314
1629797537554,16034,232133,151310
1629797537564,16044,232145,151307
1629797537574,16052,232187,151323
1629797537584,16055,232165,151346
1629797537594,16066,232203,151358
1629797537604,16078,232218,151347
1629797537614,16082,232192,151390
1629797537624,16093,232178,151398
1629797537634,16099,232194,151415
1629797537644,16109,232222,151429
1629797537654,16103,232210,151449
1629797537664,16119,232200,151469
1629797537674,16127,232237,151508
1629797537684,16112,232190,151505
1629797537694,16119,232211,151506
1629797537704,16113,232171,151534
1629797537714,16115,232180,151511
1629797537724,16103,232160,151509
1629797537734,16106,232152,151539
1629797537744,16101,232131,151525
1629797537754,16103,232119,151548
1629797537764,16092,232111,151545
1629797537774,16088,232069,151516
1629797537784,16075,232081,151531
1629797537794,16068,232039,151523
1629797537804,16058,232036,151509
1629797537814,16052,232013,151473
1629797537824,16039,231960,151484
1629797537834,16032,231960,151452
1629797537844,16023,231940,151458
1629797537854,16021,231958,151441
1629797537864,16012,231942,151436
1629797537874,16001,231930,151409
1629797537884,15991,231909,151418
1629797537894,15989,231908,151389
1629797537904,15987,231895,151402
1629797537914,15982,231900,151403
1629797537924,15976,231886,151384
1629797537934,15972,231880,151384
1629797537944,15966,231881,151365
1629797537954,15963,231888,151370
1629797537964,15962,231880,151354
1629797537974,15965,231849,151359
1629797537984,15965,231852,151337
1629797537994,15960,231853,151349
1629797538004,15967,231832,151334
1629797538014,15955,231888,151295
1629797538024,15948,231834,151287
1629797538034,15944,231856,151272
1629797538044,15941,231845,151247
1629797538054,15939,231856,151261
1629797538064,15939,231879,151250
1629797538074,15938,231875,151253
1629797538084,15940,231874,151254
1629797538094,15938,231863,151223
1629797538104,15934,231842,151236
1629797538114,15939,231891,151211
1629797538124,15948,231895,151215
1629797538134,15952,231861,151237
1629797538144,15941,231891,151235
1629797538154,15949,231927,151224
1629797538164,15950,231963,151220
1629797538174,15949,231940,151225
1629797538184,15957,231953,151235
1629797538194,15966,231982,151234
1629797538204,15971,232020,151260
1629797538214,15976,232011,151253
1629797538224,15982,232036,151275
1629797538234,15990,232054,151298
1629797538244,15994,232092,151301
1629797538254,16004,232132,151312
1629797538264,16008,232158,151359
1629797538274,16020,232182,151363
1629797538284,16031,232191,151373
1629797538294,16037,232187,151394
1629797538304,16044,232275,151435
1629797538314,16057,232282,151457
1629797538324,16067,232309,151484
1629797538334,16074,232373,151513
1629797538344,16086,232359,151534
1629797538354,16099,232382,151564
1629797538364,16108,232428,151593
1629797538374,16116,232430,151626
1629797538384,16131,232504,151641
1629797538394,16133,232500,151686
1629797538404,16145,232516,151688
1629797538414,16159,232495,151717
1629797538424,16165,232577,151754
1629797538434,16183,232594,151773
1629797538444,16199,232629,151798
1629797538454,16203,232625,151816
1629797538464,16220,232675,151888
1629797538474,16232,232652,151902
1629797538484,16248,232710,151936
1629797538494,16262,232718,151948
1629797538504,16267,232723,151980
1629797538514,16273,232679,152005
1629797538524,16281,232689,152006
1629797538534,16281,232699,152032
1629797538544,16280,232728,152024
1629797538554,16279,232721,152052
1629797538564,16280,232670,152062
1629797538574,16279,232699,152057
1629797538584,16275,232681,152082
1629797538594,16275,232668,152087
1629797538604,16274,232663,152085
1629797538614,16263,232664,152097
1629797538624,16260,232677,152117
1629797538634,16274,232643,152117
1629797538644,16266,232623,152135
1629797538654,16255,232606,152120
1629797538664,16245,232590,152113
1629797538674,16240,232597,152116
1629797538684,16239,232590,152135
1629797538694,16234,232570,152120
1629797538704,16227,232558,152130
1629797538714,16217,232521,152126
1629797538724,16219,232587,152119
1629797538734,16210,232560,152111
1629797538744,16210,232560,152121
1629797538754,16210,232574,152129
1629797538764,16201,232564,152122
1629797538774,16201,232579,152125
1629797538784,16199,232586,152124
1629797538794,16196,232577,152128
1629797538804,16203,232595,152139
1629797538814,16193,232580,152137
1629797538824,16206,232570,152141
1629797538834,16196,232597,152144
1629797538844,16198,232604,152139
1629797538854,16197,232617,152146
1629797538864,16196,232614,152146
1629797538874,16193,232612,152149
1629797538884,16194,232607,152147
1629797538894,16198,232587,152158
1629797538904,16196,232606,152137
1629797538914,16198,232637,152164
1629797538924,16201,232624,152137
1629797538934,16198,232644,152162
1629797538944,16207,232670,152163
1629797538954,16205,232652,152145
1629797538964,16209,232695,152133
1629797538974,16205,232674,152156
1629797538984,16205,232682,152145
1629797538994,16207,232689,152132
1629797539004,16204,232676,152150
1629797539014,16209,232723,152136
1629797539024,16209,232686,152154
1629797539034,16213,232725,152155
1629797539044,16217,232758,152152
1629797539054,16224,232747,152149
1629797539064,16223,232718,152166
1629797539074,16230,232739,152160
1629797539084,16229,232771,152170
1629797539094,16232,232787,152162
1629797539104,16232,232788,152178
1629797539114,16238,232808,152188
1629797539124,16245,232795,152155
1629797539134,16243,232843,152149
1629797539144,16251,232830,152183
1629797539154,16259,232851,152170
1629797539164,16259,232841,152192
1629797539174,16262,232891,152190
1629797539184,16266,232899,152171
1629797539194,16273,232936,152200
1629797539204,16277,232910,152204
1629797539214,16287,232946,152222
1629797539224,16290,232940,152201
1629797539234,16299,232957,152209
1629797539244,16301,232976,152228
1629797539254,16305,232996,152235
1629797539264,16313,233026,152237
1629797539274,16313,233031,152247
1629797539284,16323,233097,152259
1629797539294,16335,233040,152274
1629797539304,16340,233118,152285
1629797539314,16348,233104,152275
1629797539324,16357,233123,152290
1629797539334,16359,233105,152311
1629797539344,16377,233125,152322
1629797539354,16382,233153,152331
1629797539364,16395,233135,152357
1629797539374,16396,233150,152368
1629797539384,16407,233146,152388
1629797539394,16414,233144,152401
1629797539404,16415,233150,152419
1629797539414,16420,233147,152433
1629797539424,16423,233138,152427
1629797539434,16422,233114,152449
1629797539444,16429,233111,152463
1629797539454,16416,233135,152456
1629797539464,16417,233110,152467
1629797539474,16413,233117,152468
1629797539484,16411,233063,152464
1629797539494,16410,233064,152479
1629797539504,16398,233014,152458
1629797539514,16385,233012,152436
1629797539524,16384,232977,152445
1629797539534,16378,232974,152428
1629797539544,16365,232929,152413
1629797539554,16356,232949,152396
1629797539564,16349,232881,152367
1629797539574,16340,232881,152381
1629797539584,16326,232868,152345
1629797539594,16316,232859,152314
1629797539604,16301,232788,152295
1629797539614,16292,232823,152278
1629797539624,16287,232798,152238
1629797539634,16278,232775,152226
1629797539644,16278,232732,152206
1629797539654,16258,232735,152196
1629797539664,16257,232732,152154
1629797539674,16253,232708,152146
1629797539684,16248,232752,152128
1629797539694,16241,232678,152109
1629797539704,16235,232686,152090
1629797539714,16226,232659,152043
1629797539724,16218,232647,152038
1629797539734,16214,232620,152009
1629797539744,16207,232626,151982
1629797539754,16192,232616,151996
1629797539764,16193,232655,151943
1629797539774,16193,232645,151952
1629797539784,16188,232597,151944
1629797539794,16184,232634,151924
1629797539804,16181,232605,151909
1629797539814,16185,232584,151894
1629797539824,16181,232606,151894
1629797539834,16180,232607,151868
1629797539844,16182,232603,151858
1629797539854,16179,232595,151863
1629797539864,16173,232597,151822
1629797539874,16174,232597,151820
1629797539884,16169,232614,151806
1629797539894,16169,232584,151801
1629797539904,16167,232615,151770
1629797539914,16161,232572,151746
1629797539924,16159,232533,151715
1629797539934,16153,232566,151693
1629797539944,16141,232551,151653
1629797539954,16130,232503,151618
1629797539964,16135,232503,151570
1629797539974,16119,232506,151560
1629797539984,16114,232506,151516
1629797539994,16113,232481,151514
1629797540004,16110,232493,151490
1629797540014,16121,232520,151479
1629797540024,16122,232478,151483
1629797540034,16117,232499,151463
1629797540044,16118,232533,151460
1629797540054,16123,232518,151452
1629797540064,16121,232522,151461
1629797540074,16120,232532,151408
1629797540084,16124,232527,151401
1629797540094,16122,232496,151402
1629797540104,16122,232507,151392
1629797540114,16125,232572,151376
1629797540124,16119,232541,151372
1629797540134,16126,232545,151346
1629797540144,16126,232573,151371
1629797540154,16129,232566,151339
1629797540164,16133,232558,151349
1629797540174,16132,232588,151330
1629797540184,16140,232572,151321
1629797540194,16142,232572,151319
1629797540204,16141,232559,151330
1629797540214,16143,232561,151318
1629797540224,16140,232523,151328
1629797540234,16146,232504,151316
1629797540244,16145,232530,151313
1629797540254,16145,232515,151317
1629797540264,16138,232475,151309
1629797540274,16136,232456,151291
1629797540284,16128,232459,151269
1629797540294,16130,232447,151278
1629797540304,16121,232423,151233
1629797540314,16115,232414,151258
1629797540324,16108,232389,151254
1629797540334,16105,232401,151238
1629797540344,16102,232336,151253
1629797540354,16099,232386,151238
1629797540364,16094,232352,151235
1629797540374,16088,232373,151252
1629797540384,16084,232351,151251
1629797540394,16083,232369,151233
1629797540404,16080,232352,151256
1629797540414,16073,232349,151270
1629797540424,16073,232376,151250
1629797540434,16070,232353,151240
1629797540444,16076,232337,151265
1629797540454,16065,232366,151244
1629797540464,16075,232325,151235
1629797540474,16065,232316,151246
1629797540484,16066,232343,151262
1629797540494,16062,232322,151255
1629797540504,16065,232346,151251
1629797540514,16062,232348,151253
1629797540524,16064,232349,151249
1629797540534,16064,232350,151257
1629797540544,16064,232406,151244
1629797540554,16057,232367,151242
1629797540564,16073,232358,151271
1629797540574,16064,232393,151236
1629797540584,16057,232347,151265
1629797540594,16068,232378,151251
1629797540604,16068,232400,151238
1629797540614,16074,232382,151291
1629797540624,16077,232440,151275
1629797540634,16074,232408,151287
1629797540644,16081,232416,151289
1629797540654,16083,232470,151309
1629797540664,16091,232481,151320
1629797540674,16098,232480,151298
1629797540684,16095,232458,151310
1629797540694,16105,232507,151311
1629797540704,16108,232527,151340
1629797540714,16106,232510,151328
1629797540724,16119,232523,151331
1629797540734,16117,232549,151354
1629797540744,16119,232547,151368
1629797540754,16130,232571,151367
1629797540764,16126,232570,151364
1629797540774,16128,232566,151373
1629797540784,16129,232588,151377
1629797540794,16135,232620,151376
1629797540804,16149,232624,151386
1629797540814,16151,232613,151380
1629797540824,16152,232642,151399
1629797540834,16158,232681,151424
1629797540844,16166,232681,151407
1629797540854,16176,232701,151430
1629797540864,16175,232719,151434
1629797540874,16181,232723,151460
1629797540884,16185,232758,151474
1629797540894,16190,232752,151471
1629797540904,16207,232762,151459
1629797540914,16207,232791,151459
1629797540924,16210,232803,151484
1629797540934,16216,232809,151492
1629797540944,16221,232824,151514
1629797540954,16229,232844,151505
1629797540964,16237,232838,151525
1629797540974,16249,232872,151543
1629797540984,16257,232858,151571
1629797540994,16268,232887,151592
1629797541004,16272,232885,151597
1629797541014,16280,232918,151620
1629797541024,16285,232866,151606
1629797541034,16287,232875,151618
1629797541044,16288,232882,151631
1629797541054,16284,232852,151639
1629797541064,16278,232834,151646
1629797541074,16278,232860,151662
1629797541084,16279,232851,151683
1629797541094,16280,232849,151691
1629797541104,16281,232876,151693
1629797541114,16278,232839,151696
1629797541124,16276,232861,151733
1629797541134,16274,232831,151746
1629797541144,16269,232832,151739
1629797541154,16266,232811,151734
1629797541164,16267,232815,151757
1629797541174,16262,232780,151780
1629797541184,16263,232801,151778
1629797541194,16258,232768,151779
1629797541204,16251,232783,151808
1629797541214,16251,232782,151826
1629797541224,16251,232812,151830
1629797541234,16241,232789,151824
1629797541244,16245,232745,151830
1629797541254,16250,232804,151858
1629797541264,16249,232836,151883
1629797541274,16253,232825,151892
1629797541284,16255,232823,151879
1629797541294,16257,232838,151915
1629797541304,16258,232799,151921
1629797541314,16260,232827,151937
1629797541324,16260,232837,151970
1629797541334,16268,232858,151983
1629797541344,16269,232886,151999
1629797541354,16273,232862,152005
1629797541364,16285,232859,152031
1629797541374,16274,232890,152057
1629797541384,16278,232900,152087
1629797541394,16278,232885,152066
1629797541404,16290,232906,152103
1629797541414,16295,232906,152105
1629797541424,16294,232917,152111
1629797541434,16300,232920,152127
1629797541444,16306,232932,152138
1629797541454,16309,232971,152161
1629797541464,16315,233009,152161
1629797541474,16318,233020,152195
1629797541484,16329,233023,152212
1629797541494,16337,233027,152239
1629797541504,16341,233023,152224
1629797541514,16348,233056,152241
1629797541524,16350,233033,152270
1629797541534,16346,233064,152248
1629797541544,16357,233088,152259
1629797541554,16365,233100,152270
1629797541564,16364,233113,152280
1629797541574,16371,233160,152307
1629797541584,16379,233127,152330
1629797541594,16387,233166,152327
1629797541604,16396,233191,152362
1629797541614,16398,233172,152366
1629797541624,16402,233183,152376
1629797541634,16407,233212,152380
1629797541644,16406,233236,152370
1629797541654,16408,233185,152386
1629797541664,16413,233255,152376
1629797541674,16416,233273,152371
1629797541684,16417,233254,152402
1629797541694,16422,233281,152395
1629797541704,16427,233315,152380
1629797541714,16427,233285,152405
1629797541724,16441,233285,152407
1629797541734,16442,233322,152401
1629797541744,16444,233365,152435
1629797541754,16457,233337,152424
1629797541764,16456,233335,152425
1629797541774,16461,233374,152425
1629797541784,16466,233390,152437
1629797541794,16464,233398,152447
1629797541804,16469,233397,152441
1629797541814,16476,233408,152453
1629797541824,16481,233443,152457
1629797541834,16483,233408,152458
1629797541844,16491,233433,152467
1629797541854,16489,233442,152443
1629797541864,16503,233498,152446
1629797541874,16496,233437,152472
1629797541884,16520,233460,152509
1629797541894,16520,233436,152526
1629797541904,16527,233425,152508
1629797541914,16534,233394,152531
1629797541924,16540,233401,152534
1629797541934,16541,233440,152566
1629797541944,16546,233405,152561
1629797541954,16540,233381,152580
1629797541964,16535,233317,152571
1629797541974,16533,233351,152566
1629797541984,16523,233314,152581
1629797541994,16517,233279,152587
1629797542004,16512,233269,152587
1629797542014,16511,233221,152601
1629797542024,16509,233239,152632
1629797542034,16503,233246,152628
1629797542044,16497,233191,152657
1629797542054,16487,233208,152652
1629797542064,16485,233189,152662
1629797542074,16483,233174,152688
1629797542084,16479,233152,152707
1629797542094,16469,233137,152716
1629797542104,16464,233116,152725
1629797542114,16453,233122,152692
1629797542124,16447,233056,152681
1629797542134,16431,233082,152691
1629797542144,16423,233026,152687
1629797542154,16424,233060,152673
1629797542164,16417,233035,152691
1629797542174,16407,233013,152697
1629797542184,16412,233001,152688
1629797542194,16409,233010,152703
1629797542204,16397,232996,152695
1629797542214,16409,232987,152713
1629797542224,16392,233003,152708
1629797542234,16391,232951,152705
1629797542244,16390,232977,152687
1629797542254,16384,232939,152709
1629797542264,16383,232938,152701
1629797542274,16376,232937,152732
1629797542284,16374,232932,152714
1629797542294,16368,232919,152696
1629797542304,16361,232904,152684
1629797542314,16360,232908,152689
1629797542324,16357,232868,152676
1629797542334,16354,232889,152676
1629797542344,16354,232874,152680
1629797542354,16342,232835,152663
1629797542364,16346,232863,152669
1629797542374,16346,232831,152661
1629797542384,16342,232838,152656
1629797542394,16340,232840,152631
1629797542404,16335,232826,152621
1629797542414,16333,232826,152607
1629797542424,16330,232801,152598
1629797542434,16326,232786,152618
1629797542444,16326,232809,152586
1629797542454,16330,232807,152588
1629797542464,16326,232768,152577
1629797542474,16324,232784,152567
1629797542484,16324,232785,152560
1629797542494,16319,232819,152547
1629797542504,16315,232793,152568
1629797542514,16325,232776,152551
1629797542524,16319,232778,152530
1629797542534,16323,232763,152528
1629797542544,16312,232777,152532
1629797542554,16319,232761,152521
1629797542564,16315,232764,152508
1629797542574,16316,232762,152518
1629797542584,16319,232773,152498
1629797542594,16320,232742,152492
1629797542604,16315,232727,152469
1629797542614,16324,232769,152479
1629797542624,16319,232742,152485
1629797542634,16312,232740,152464
1629797542644,16313,232704,152433
1629797542654,16316,232702,152429
1629797542664,16315,232710,152416
1629797542674,16303,232728,152386
1629797542684,16311,232680,152361
1629797542694,16299,232684,152365
1629797542704,16299,232655,152324
1629797542714,16298,232661,152313
1629797542724,16297,232676,152304
1629797542734,16296,232633,152301
1629797542744,16298,232658,152287
1629797542754,16289,232617,152248
1629797542764,16297,232643,152236
1629797542774,16293,232599,152217
1629797542784,16295,232570,152216
1629797542794,16299,232545,152209
1629797542804,16291,232542,152204
1629797542814,16289,232497,152200
1629797542824,16293,232488,152194
1629797542834,16281,232488,152182
1629797542844,16276,232397,152134
1629797542854,16264,232357,152143
1629797542864,16258,232349,152119
1629797542874,16242,232271,152098
1629797542884,16232,232280,152090
1629797542894,16221,232248,152066
1629797542904,16210,232227,152050
1629797542914,16200,232203,152039
1629797542924,16186,232151,152036
1629797542934,16173,232154,151987
1629797542944,16160,232086,151984
1629797542954,16149,232048,151954
1629797542964,16135,231992,151943
1629797542974,16123,231989,151911
1629797542984,16108,231922,151903
1629797542994,16102,231917,151889
1629797543004,16085,231880,151877
1629797543014,16074,231858,151856
1629797543024,16066,231817,151826
1629797543034,16053,231798,151816
1629797543044,16042,231769,151789
1629797543054,16038,231756,151797
1629797543064,16031,231722,151793
1629797543074,16025,231737,151770
1629797543084,16022,231721,151753
1629797543094,16011,231692,151773
1629797543104,16006,231654,151726
1629797543114,15996,231658,151726
1629797543124,15991,231625,151724
1629797543134,15982,231644,151703
1629797543144,15982,231607,151689
1629797543154,15977,231569,151659
1629797543164,15973,231593,151658
1629797543174,15975,231529,151680
1629797543184,15967,231580,151666
1629797543194,15959,231563,151674
1629797543204,15959,231604,151668
1629797543214,15955,231542,151644
1629797543224,15948,231499,151647
1629797543234,15947,231508,151615
1629797543244,15941,231518,151621
1629797543254,15941,231550,151624
1629797543264,15938,231492,151627
1629797543274,15936,231506,151617
1629797543284,15937,231518,151606
1629797543294,15939,231510,151604
1629797543304,15935,231524,151615
1629797543314,15939,231505,151605
1629797543324,15932,231523,151606
1629797543334,15940,231511,151593
1629797543344,15937,231506,151555
1629797543354,15935,231503,151576
1629797543364,15934,231502,151570
1629797543374,15943,231522,151581
1629797543384,15939,231520,151577
1629797543394,15944,231519,151589
1629797543404,15941,231530,151580
1629797543414,15944,231515,151593
1629797543424,15945,231503,151580
1629797543434,15947,231574,151575
1629797543444,15950,231589,151583
1629797543454,15952,231541,151592
1629797543464,15953,231580,151599
1629797543474,15961,231575,151586
1629797543484,15961,231559,151603
1629797543494,15959,231583,151589
1629797543504,15962,231590,151597
1629797543514,15966,231600,151609
1629797543524,15972,231627,151629
1629797543534,15974,231619,151605
1629797543544,15974,231629,151638
1629797543554,15980,231648,151606
1629797543564,15981,231620,151627
1629797543574,15987,231656,151637
1629797543584,15989,231642,151634
1629797543594,15994,231678,151631
1629797543604,16007,231671,151643
1629797543614,15998,231691,151635
1629797543624,16003,231709,151635
1629797543634,16012,231662,151668
1629797543644,16021,231695,151673
1629797543654,16024,231707,151661
1629797543664,16021,231677,151674
1629797543674,16026,231636,151692
1629797543684,16024,231639,151690
1629797543694,16021,231608,151687
1629797543704,16015,231614,151693
1629797543714,16008,231626,151703
1629797543724,16004,231553,151718
1629797543734,15994,231506,151690
1629797543744,15988,231518,151693
1629797543754,15983,231500,151713
1629797543764,15975,231475,151716
1629797543774,15964,231415,151716
1629797543784,15952,231422,151712
1629797543794,15944,231392,151698
1629797543804,15933,231370,151724
1629797543814,15926,231343,151710
1629797543824,15917,231271,151697
1629797543834,15912,231289,151686
1629797543844,15894,231257,151689
1629797543854,15888,231276,151687
1629797543864,15880,231192,151681
1629797543874,15865,231198,151691
1629797543884,15857,231188,151676
1629797543894,15849,231174,151664
1629797543904,15841,231127,151676
1629797543914,15843,231120,151657
1629797543924,15833,231121,151674
1629797543934,15830,231125,151695
1629797543944,15827,231123,151690
1629797543954,15823,231118,151691
1629797543964,15830,231113,151697
1629797543974,15824,231077,151693
1629797543984,15811,231093,151696
1629797543994,15819,231069,151712
1629797544004,15810,231067,151687
1629797544014,15805,231063,151688
1629797544024,15796,231067,151703
1629797544034,15798,231041,151696
1629797544044,15797,231026,151704
1629797544054,15794,231040,151697
1629797544064,15787,231054,151692
1629797544074,15787,231015,151711
1629797544084,15787,231046,151690
1629797544094,15781,231011,151696
1629797544104,15780,231005,151688
1629797544114,15777,231034,151701
1629797544124,15785,231053,151708
1629797544134,15773,231043,151706
1629797544144,15783,231011,151702
1629797544154,15778,231014,151717
1629797544164,15777,230996,151690
1629797544174,15782,231025,151709
1629797544184,15779,230992,151725
1629797544194,15778,231026,151716
1629797544204,15782,231022,151723
1629797544214,15780,231036,151720
1629797544224,15786,231015,151726
1629797544234,15786,231013,151737
1629797544244,15789,231066,151716
1629797544254,15787,231059,151739
1629797544264,15792,231067,151739
1629797544274,15794,231040,151731
1629797544284,15803,231041,151722
1629797544294,15792,231075,151723
1629797544304,15806,231093,151739
1629797544314,15811,231081,151754
1629797544324,15802,231089,151756
1629797544334,15809,231074,151765
1629797544344,15812,231104,151758
1629797544354,15816,231105,151755
1629797544364,15818,231117,151766
1629797544374,15818,231090,151763
1629797544384,15826,231129,151774
1629797544394,15827,231153,151768
1629797544404,15826,231137,151778
1629797544414,15836,231153,151778
1629797544424,15838,231162,151778
1629797544434,15841,231176,151779
1629797544444,15833,231148,151794
1629797544454,15848,231179,151795
1629797544464,15854,231164,151784
1629797544474,15844,231204,151807
1629797544484,15845,231191,151792
1629797544494,15866,231187,151785
1629797544504,15865,231144,151801
1629797544514,15869,231161,151820
1629797544524,15870,231180,151821
1629797544534,15868,231140,151828
1629797544544,15862,231094,151818
1629797544554,15851,231097,151805
1629797544564,15846,231041,151806
1629797544574,15837,230991,151816
1629797544584,15828,230967,151789
1629797544594,15819,230955,151800
1629797544604,15811,230896,151802
1629797544614,15795,230898,151809
1629797544624,15788,230843,151787
1629797544634,15780,230816,151779
1629797544644,15768,230797,151773
1629797544654,15755,230767,151769
1629797544664,15741,230715,151768
1629797544674,15728,230723,151759
1629797544684,15715,230684,151755
1629797544694,15706,230636,151744
1629797544704,15695,230630,151750
1629797544714,15687,230577,151730
1629797544724,15674,230558,151714
1629797544734,15661,230501,151718
1629797544744,15655,230545,151745
1629797544754,15646,230500,151718
1629797544764,15643,230491,151716
1629797544774,15631,230473,151693
1629797544784,15628,230481,151708
1629797544794,15631,230444,151690
1629797544804,15619,230422,151686
1629797544814,15610,230406,151713
1629797544824,15612,230377,151685
1629797544834,15612,230381,151702
1629797544844,15608,230339,151692
1629797544854,15603,230313,151692
1629797544864,15599,230346,151687
1629797544874,15598,230347,151682
1629797544884,15595,230301,151704
1629797544894,15596,230327,151694
1629797544904,15592,230342,151712
1629797544914,15589,230328,151710
1629797544924,15585,230332,151716
1629797544934,15584,230329,151702
1629797544944,15584,230338,151707
1629797544954,15586,230308,151718
1629797544964,15588,230346,151708
1629797544974,15581,230311,151712
1629797544984,15581,230294,151691
1629797544994,15588,230312,151710
1629797545004,15587,230342,151745
1629797545014,15588,230358,151740
1629797545024,15588,230342,151733
1629797545034,15594,230331,151737
1629797545044,15594,230327,151731
1629797545054,15599,230313,151743
1629797545064,15598,230366,151736
1629797545074,15601,230343,151729
1629797545084,15601,230324,151753
1629797545094,15607,230397,151739
1629797545104,15607,230407,151751
1629797545114,15607,230394,151744
1629797545124,15618,230393,151753
1629797545134,15620,230441,151754
1629797545144,15621,230381,151760
1629797545154,15623,230422,151761
1629797545164,15634,230444,151803
1629797545174,15640,230463,151791
1629797545184,15639,230450,151796
1629797545194,15648,230476,151804
1629797545204,15644,230518,151839
1629797545214,15658,230502,151825
1629797545224,15663,230539,151845
1629797545234,15667,230519,151860
1629797545244,15670,230560,151867
1629797545254,15683,230557,151874
1629797545264,15687,230579,151876
1629797545274,15685,230590,151896
1629797545284,15702,230605,151909
1629797545294,15702,230633,151904
1629797545304,15703,230628,151928
1629797545314,15713,230647,151941
1629797545324,15717,230690,151951
1629797545334,15718,230663,151945
1629797545344,15724,230679,151945
1629797545354,15728,230699,151961
1629797545364,15735,230718,151954
1629797545374,15746,230714,151961
1629797545384,15748,230722,151967
1629797545394,15748,230719,151976
1629797545404,15758,230745,152001
1629797545414,15766,230717,152010
1629797545424,15763,230688,152041
1629797545434,15772,230705,152020
1629797545444,15773,230652,152026
1629797545454,15760,230649,152037
1629797545464,15758,230620,152039
1629797545474,15743,230559,152041
1629797545484,15740,230584,152029
1629797545494,15730,230509,152030
1629797545504,15723,230521,152039
1629797545514,15713,230506,152033
1629797545524,15707,230441,152035
1629797545534,15697,230445,152035
1629797545544,15685,230403,152040
1629797545554,15677,230372,152040
1629797545564,15669,230349,152029
1629797545574,15666,230316,152025
1629797545584,15651,230279,152030
1629797545594,15652,230250,152035
1629797545604,15632,230204,152028
1629797545614,15624,230169,152013
1629797545624,15623,230139,152008
1629797545634,15611,230166,152013
1629797545644,15598,230144,152018
1629797545654,15590,230142,152006
1629797545664,15580,230093,151980
1629797545674,15576,230101,151991
1629797545684,15571,230092,151986
1629797545694,15571,230044,151991
1629797545704,15570,230052,151982
1629797545714,15566,230041,151981
1629797545724,15558,230013,151976
1629797545734,15561,230026,151976
1629797545744,15565,229997,151993
1629797545754,15561,229999,151993
1629797545764,15559,230010,151969
1629797545774,15556,229982,151988
1629797545784,15552,229974,151987
1629797545794,15554,229981,151987
1629797545804,15549,229949,151976
1629797545814,15549,229960,151976
1629797545824,15548,229960,151966
1629797545834,15548,229991,151971
1629797545844,15550,229932,151969
1629797545854,15548,229925,151972
1629797545864,15547,229946,151965
1629797545874,15546,229979,151977
1629797545884,15548,229947,151977
1629797545894,15554,229891,151973
1629797545904,15557,229984,151971
1629797545914,15561,229947,151984
1629797545924,15568,229954,151983
1629797545934,15564,229920,151969
1629797545944,15567,229993,151981
1629797545954,15568,229968,151983
1629797545964,15570,229984,151993
1629797545974,15577,229962,151997
1629797545984,15578,229971,151992
1629797545994,15583,230025,152011
1629797546004,15585,229985,152001
1629797546014,15591,230021,152008
1629797546024,15599,230013,152005
1629797546034,15603,230056,152022
1629797546044,15606,230025,152017
1629797546054,15606,230074,152011
1629797546064,15612,230054,152041
1629797546074,15617,230053,152018
1629797546084,15626,230073,152035
1629797546094,15619,230079,152021
1629797546104,15616,230078,152047
1629797546114,15629,230055,152031
1629797546124,15633,230097,152029
1629797546134,15632,230051,152034
1629797546144,15637,230124,152030
1629797546154,15646,230089,152035
1629797546164,15647,230147,152036
1629797546174,15652,230155,152048
1629797546184,15658,230131,152053
1629797546194,15660,230142,152039
1629797546204,15662,230173,152034
1629797546214,15666,230187,152034
1629797546224,15676,230184,152031
1629797546234,15667,230184,152060
1629797546244,15687,230202,152054
1629797546254,15682,230191,152033
1629797546264,15685,230230,152052
1629797546274,15693,230235,152049
1629797546284,15699,230237,152053
1629797546294,15702,230212,152046
1629797546304,15705,230250,152056
1629797546314,15714,230237,152064
1629797546324,15710,230290,152058
1629797546334,15718,230306,152077
1629797546344,15728,230291,152084
1629797546354,15736,230271,152081
1629797546364,15740,230288,152097
1629797546374,15744,230256,152103
1629797546384,15749,230251,152107
1629797546394,15745,230203,152094
1629797546404,15741,230195,152126
1629797546414,15726,230177,152130
1629797546424,15725,230165,152109
1629797546434,15715,230104,152110
1629797546444,15720,230096,152103
1629797546454,15709,230076,152093
1629797546464,15700,230084,152091
1629797546474,15695,230036,152075
1629797546484,15685,230024,152108
1629797546494,15675,229941,152082
1629797546504,15670,229965,152090
1629797546514,15664,229925,152076
1629797546524,15657,229886,152057
1629797546534,15646,229861,152060
1629797546544,15638,229862,152049
1629797546554,15629,229842,152042
1629797546564,15624,229806,152056
1629797546574,15618,229756,152048
1629797546584,15611,229761,152054
1629797546594,15608,229734,152025
1629797546604,15597,229697,152028
1629797546614,15593,229716,152022
1629797546624,15591,229703,152007
1629797546634,15583,229679,152017
1629797546644,15580,229671,152016
1629797546654,15580,229671,152007
1629797546664,15577,229657,151996
1629797546674,15576,229632,152003
1629797546684,15573,229594,151981
1629797546694,15567,229656,151973
1629797546704,15567,229589,151983
1629797546714,15566,229598,151976
1629797546724,15562,229596,151979
1629797546734,15558,229579,151949
1629797546744,15557,229595,151968
1629797546754,15559,229583,151956
1629797546764,15553,229566,151972
1629797546774,15555,229567,151951
1629797546784,15553,229566,151949
1629797546794,15559,229544,151947
1629797546804,15554,229570,151941
1629797546814,15554,229540,151943
1629797546824,15553,229567,151936
1629797546834,15553,229538,151921
1629797546844,15555,229518,151931
1629797546854,15556,229542,151926
1629797546864,15555,229545,151919
1629797546874,15558,229572,151917
1629797546884,15560,229577,151937
1629797546894,15560,229543,151908
1629797546904,15572,229576,151928
1629797546914,15570,229559,151942
1629797546924,15562,229557,151911
1629797546934,15570,229553,151928
1629797546944,15572,229581,151913
1629797546954,15571,229580,151914
1629797546964,15575,229582,151925
1629797546974,15579,229605,151910
1629797546984,15583,229575,151899
1629797546994,15581,229594,151930
1629797547004,15587,229620,151917
1629797547014,15593,229638,151933
1629797547024,15597,229647,151929
1629797547034,15605,229614,151919
1629797547044,15598,229637,151925
1629797547054,15611,229650,151913
1629797547064,15604,229657,151933
1629797547074,15607,229693,151941
1629797547084,15620,229674,151922
1629797547094,15618,229703,151926
1629797547104,15620,229697,151921
1629797547114,15632,229705,151938
1629797547124,15626,229692,151940
1629797547134,15635,229726,151952
1629797547144,15637,229750,151937
1629797547154,15648,229744,151934
1629797547164,15651,229744,151967
1629797547174,15655,229762,151960
1629797547184,15661,229790,151960
1629797547194,15666,229801,151966
1629797547204,15675,229793,151960
1629797547214,15670,229793,151979
1629797547224,15674,229850,151995
1629797547234,15685,229879,151977
1629797547244,15682,229827,151974
1629797547254,15691,229864,151979
1629797547264,15694,229865,151973
1629797547274,15700,229881,151980
1629797547284,15702,229890,151979
1629797547294,15710,229864,151982
1629797547304,15713,229877,152005
1629797547314,15716,229912,152003
1629797547324,15720,229865,152010
1629797547334,15721,229863,152023
1629797547344,15721,229839,151997
1629797547354,15708,229800,151987
1629797547364,15713,229790,151988
1629797547374,15699,229730,152007
1629797547384,15698,229714,151982
1629797547394,15697,229708,151990
1629797547404,15685,229658,151973
1629797547414,15676,229632,151971
1629797547424,15669,229662,151966
1629797547434,15663,229579,151991
1629797547444,15657,229558,151969
1629797547454,15648,229588,151954
1629797547464,15637,229523,151964
1629797547474,15633,229485,151970
1629797547484,15626,229481,151931
1629797547494,15615,229481,151941
1629797547504,15611,229448,151944
1629797547514,15602,229406,151932
1629797547524,15600,229422,151911
1629797547534,15593,229396,151913
1629797547544,15588,229354,151913
1629797547554,15581,229344,151889
1629797547564,15569,229343,151885
1629797547574,15564,229329,151886
1629797547584,15564,229301,151889
1629797547594,15565,229314,151871
1629797547604,15559,229319,151885
1629797547614,15559,229292,151884
1629797547624,15559,229325,151881
1629797547634,15557,229274,151857
1629797547644,15551,229265,151881
1629797547654,15553,229285,151858
1629797547664,15545,229261,151858
1629797547674,15543,229253,151851
1629797547684,15541,229247,151847
1629797547694,15544,229224,151838
1629797547704,15544,229220,151826
1629797547714,15540,229180,151853
1629797547724,15538,229199,151833
1629797547734,15542,229211,151815
1629797547744,15535,229238,151820
1629797547754,15540,229217,151829
1629797547764,15536,229235,151819
1629797547774,15540,229222,151816
1629797547784,15538,229221,151809
1629797547794,15542,229238,151809
1629797547804,15543,229247,151799
1629797547814,15544,229239,151822
1629797547824,15544,229250,151790
1629797547834,15546,229227,151822
1629797547844,15544,229281,151804
1629797547854,15557,229244,151812
1629797547864,15540,229223,151797
1629797547874,15548,229266,151804
1629797547884,15555,229277,151791
1629797547894,15557,229282,151799
1629797547904,15556,229270,151800
1629797547914,15559,229281,151815
1629797547924,15563,229311,151831
1629797547934,15573,229313,151817
1629797547944,15574,229304,151805
1629797547954,15576,229339,151820
1629797547964,15579,229361,151819
1629797547974,15578,229362,151820
1629797547984,15586,229342,151843
1629797547994,15587,229368,151814
1629797548004,15596,229377,151837
1629797548014,15595,229406,151851
1629797548024,15602,229407,151827
1629797548034,15599,229410,151843
1629797548044,15611,229449,151831
1629797548054,15612,229464,151851
1629797548064,15613,229466,151839
1629797548074,15622,229463,151841
1629797548084,15624,229435,151853
1629797548094,15629,229463,151870
1629797548104,15634,229518,151828
1629797548114,15633,229481,151863
1629797548124,15639,229535,151864
1629797548134,15641,229514,151880
1629797548144,15645,229533,151871
1629797548154,15650,229541,151867
1629797548164,15652,229561,151860
1629797548174,15653,229558,151848
1629797548184,15652,229577,151876
1629797548194,15664,229592,151871
1629797548204,15666,229599,151872
1629797548214,15665,229605,151862
1629797548224,15673,229636,151858
1629797548234,15677,229615,151854
1629797548244,15687,229602,151885
1629797548254,15689,229650,151899
1629797548264,15692,229647,151894
1629797548274,15700,229630,151894
1629797548284,15697,229627,151891
1629797548294,15695,229557,151888
1629797548304,15691,229551,151901
1629797548314,15688,229521,151913
1629797548324,15683,229510,151889
1629797548334,15676,229522,151888
1629797548344,15669,229508,151891
1629797548354,15658,229446,151890
1629797548364,15665,229410,151902
1629797548374,15652,229388,151861
1629797548384,15647,229402,151882
1629797548394,15636,229359,151873
1629797548404,15624,229360,151862
1629797548414,15624,229315,151879
1629797548424,15613,229270,151865
1629797548434,15608,229256,151845
1629797548444,15594,229256,151848
1629797548454,15589,229226,151840
1629797548464,15583,229242,151838
1629797548474,15571,229162,151838
1629797548484,15566,229192,151826
1629797548494,15556,229149,151834
1629797548504,15563,229113,151817
1629797548514,15545,229138,151821
1629797548524,15552,229149,151802
1629797548534,15544,229126,151793
1629797548544,15545,229116,151802
1629797548554,15537,229115,151807
1629797548564,15533,229120,151791
1629797548574,15529,229082,151800
1629797548584,15530,229055,151792
1629797548594,15526,229028,151782
1629797548604,15525,229059,151786
1629797548614,15520,229027,151785
1629797548624,15522,229069,151780
1629797548634,15519,229034,151779
1629797548644,15520,229057,151795
1629797548654,15520,229046,151779
1629797548664,15512,229042,151795
1629797548674,15521,229026,151798
1629797548684,15525,229022,151775
1629797548694,15517,229049,151795
1629797548704,15516,229049,151774
1629797548714,15514,229053,151771
1629797548724,15514,229053,151763
1629797548734,15514,229070,151775
1629797548744,15515,229041,151766
1629797548754,15519,229087,151770
1629797548764,15522,229054,151762
1629797548774,15518,229067,151767
1629797548784,15520,229053,151782
1629797548794,15522,229069,151759
1629797548804,15526,229076,151749
1629797548814,15527,229090,151765
1629797548824,15523,229082,151788
1629797548834,15532,229099,151751
1629797548844,15534,229128,151761
1629797548854,15524,229107,151766
1629797548864,15534,229110,151750
1629797548874,15541,229121,151772
1629797548884,15540,229120,151761
1629797548894,15547,229141,151753
1629797548904,15545,229132,151750
1629797548914,15545,229122,151759
1629797548924,15548,229153,151754
1629797548934,15551,229151,151742
1629797548944,15553,229186,151739
1629797548954,15558,229177,151749
1629797548964,15557,229182,151763
1629797548974,15561,229211,151752
1629797548984,15572,229244,151739
1629797548994,15569,229191,151751
1629797549004,15567,229214,151756
1629797549014,15581,229233,151753
1629797549024,15571,229266,151773
1629797549034,15585,229255,151752
1629797549044,15587,229258,151752
1629797549054,15587,229268,151765
1629797549064,15590,229276,151762
1629797549074,15597,229283,151756
1629797549084,15597,229310,151760
1629797549094,15603,229312,151770
1629797549104,15607,229326,151779
1629797549114,15608,229363,151760
1629797549124,15616,229383,151762
1629797549134,15617,229365,151770
1629797549144,15621,229367,151754
1629797549154,15629,229376,151764
1629797549164,15634,229433,151773
1629797549174,15625,229419,151789
1629797549184,15639,229424,151779
1629797549194,15643,229441,151776
1629797549204,15647,229461,151773
1629797549214,15648,229445,151768
1629797549224,15648,229462,151755
1629797549234,15655,229487,151789
1629797549244,15666,229480,151779
1629797549254,15670,229484,151815
1629797549264,15674,229507,151795
1629797549274,15674,229457,151831
1629797549284,15676,229434,151829
1629797549294,15676,229445,151845
1629797549304,15675,229403,151805
1629797549314,15664,229405,151808
1629797549324,15664,229351,151825
1629797549334,15658,229375,151833
1629797549344,15658,229338,151810
1629797549354,15643,229322,151830
1629797549364,15639,229295,151814
1629797549374,15634,229258,151823
1629797549384,15629,229247,151828
1629797549394,15616,229212,151805
1629797549404,15609,229192,151820
1629797549414,15602,229208,151811
1629797549424,15594,229157,151810
1629797549434,15587,229117,151799
1629797549444,15578,229125,151786
1629797549454,15573,229071,151781
1629797549464,15560,229066,151800
1629797549474,15558,229004,151790
1629797549484,15548,229019,151765
1629797549494,15549,229011,151790
1629797549504,15534,229017,151790
1629797549514,15529,229002,151774
1629797549524,15523,229018,151780
1629797549534,15521,228986,151757
1629797549544,15520,228951,151757
1629797549554,15515,228981,151772
1629797549564,15517,228932,151785
1629797549574,15511,228958,151763
1629797549584,15508,228976,151771
1629797549594,15503,228918,151769
1629797549604,15508,228933,151773
1629797549614,15503,228937,151761
1629797549624,15504,228922,151784
1629797549634,15509,228916,151779
1629797549644,15495,228947,151767
1629797549654,15499,228916,151792
1629797549664,15499,228955,151778
1629797549674,15500,228931,151790
1629797549684,15498,228903,151787
1629797549694,15492,228936,151758
1629797549704,15494,228964,151756
1629797549714,15496,228961,151768
1629797549724,15498,228943,151781
1629797549734,15501,228949,151776
1629797549744,15498,228969,151772
1629797549754,15501,228966,151780
1629797549764,15505,228982,151807
1629797549774,15505,228951,151786
1629797549784,15504,228992,151809
1629797549794,15513,229002,151787
1629797549804,15502,229001,151803
1629797549814,15517,229027,151825
1629797549824,15511,229033,151825
1629797549834,15523,229052,151819
1629797549844,15524,229065,151821
1629797549854,15531,229068,151840
1629797549864,15532,229072,151852
1629797549874,15536,229100,151845
1629797549884,15538,229116,151860
1629797549894,15541,229097,151885
1629797549904,15550,229105,151869
1629797549914,15552,229159,151885
1629797549924,15558,229160,151897
1629797549934,15563,229154,151883
1629797549944,15568,229183,151892
1629797549954,15575,229211,151889
1629797549964,15575,229214,151913
1629797549974,15581,229218,151920
1629797549984,15577,229235,151912
1629797549994,15593,229271,151931
1629797550004,15596,229288,151943
1629797550014,15592,229311,151963
1629797550024,15602,229323,151946
1629797550034,15610,229377,151955
1629797550044,15614,229342,151971
1629797550054,15618,229382,151978
1629797550064,15623,229396,151992
1629797550074,15626,229419,151993
1629797550084,15634,229441,151989
1629797550094,15640,229443,152028
1629797550104,15647,229470,152023
1629797550114,15652,229445,152030
1629797550124,15668,229482,152009
1629797550134,15664,229502,152040
1629797550144,15666,229542,152025
1629797550154,15674,229547,152052
1629797550164,15679,229566,152078
1629797550174,15684,229614,152068
1629797550184,15691,229593,152068
1629797550194,15699,229647,152059
1629797550204,15696,229641,152102
1629797550214,15707,229693,152097
1629797550224,15710,229657,152110
1629797550234,15719,229734,152127
1629797550244,15726,229721,152119
1629797550254,15732,229733,152135
1629797550264,15741,229752,152148
1629797550274,15748,229783,152178
1629797550284,15757,229756,152200
1629797550294,15771,229774,152193
1629797550304,15765,229749,152216
1629797550314,15774,229747,152234
1629797550324,15776,229724,152222
1629797550334,15767,229722,152231
1629797550344,15765,229702,152236
1629797550354,15763,229672,152244
1629797550364,15759,229695,152266
1629797550374,15757,229686,152261
1629797550384,15751,229651,152264
1629797550394,15750,229673,152272
1629797550404,15748,229603,152276
1629797550414,15735,229609,152269
1629797550424,15733,229575,152296
1629797550434,15733,229577,152291
1629797550444,15732,229594,152295
1629797550454,15722,229575,152316
1629797550464,15703,229539,152307
1629797550474,15708,229539,152301
1629797550484,15705,229508,152301
1629797550494,15697,229467,152321
1629797550504,15694,229474,152320
1629797550514,15687,229475,152323
1629797550524,15681,229473,152329
1629797550534,15677,229449,152306
1629797550544,15678,229440,152326
1629797550554,15676,229474,152330
1629797550564,15676,229453,152320
1629797550574,15681,229509,152342
1629797550584,15679,229509,152345
1629797550594,15679,229487,152346
1629797550604,15681,229445,152349
1629797550614,15674,229507,152352
1629797550624,15678,229467,152381
1629797550634,15676,229453,152375
1629797550644,15681,229467,152390
1629797550654,15676,229499,152391
1629797550664,15679,229494,152379
1629797550674,15677,229503,152396
1629797550684,15674,229503,152397
1629797550694,15682,229502,152412
1629797550704,15685,229459,152407
1629797550714,15682,229496,152407
1629797550724,15688,229544,152425
1629797550734,15691,229554,152435
1629797550744,15693,229547,152422
1629797550754,15693,229537,152436
1629797550764,15698,229571,152460
1629797550774,15700,229568,152458
1629797550784,15706,229577,152452
1629797550794,15707,229591,152488
1629797550804,15712,229608,152493
1629797550814,15717,229638,152490
1629797550824,15725,229614,152483
1629797550834,15723,229663,152492
1629797550844,15723,229680,152534
1629797550854,15726,229666,152509
1629797550864,15736,229687,152525
1629797550874,15737,229717,152527
1629797550884,15747,229738,152529
1629797550894,15747,229678,152534
1629797550904,15755,229773,152547
1629797550914,15759,229729,152572
1629797550924,15761,229774,152557
1629797550934,15770,229793,152565
1629797550944,15769,229827,152579
1629797550954,15780,229811,152601
1629797550964,15783,229838,152583
1629797550974,15783,229867,152597
1629797550984,15794,229847,152608
1629797550994,15794,229876,152619
1629797551004,15798,229858,152633
1629797551014,15805,229902,152625
1629797551024,15811,229891,152628
1629797551034,15816,229947,152628
1629797551044,15823,229945,152670
1629797551054,15827,229961,152661
1629797551064,15832,230007,152669
1629797551074,15834,229988,152681
1629797551084,15839,230013,152677
1629797551094,15845,230039,152687
1629797551104,15854,230025,152675
1629797551114,15858,230051,152700
1629797551124,15856,230065,152714
1629797551134,15867,230077,152729
1629797551144,15870,230097,152730
1629797551154,15882,230142,152736
1629797551164,15880,230131,152720
1629797551174,15888,230176,152739
1629797551184,15896,230204,152742
1629797551194,15899,230242,152772
1629797551204,15908,230207,152737
1629797551214,15910,230242,152783
1629797551224,15918,230240,152778
1629797551234,15923,230282,152787
1629797551244,15931,230265,152793
1629797551254,15936,230297,152806
1629797551264,15951,230321,152850
1629797551274,15959,230309,152844
1629797551284,15965,230296,152852
1629797551294,15958,230276,152868
1629797551304,15961,230259,152878
1629797551314,15964,230233,152885
1629797551324,15965,230258,152882
1629797551334,15959,230194,152901
1629797551344,15960,230185,152902
1629797551354,15957,230201,152894
1629797551364,15951,230178,152910
1629797551374,15949,230149,152914
1629797551384,15943,230155,152909
1629797551394,15934,230134,152901
1629797551404,15935,230114,152906
1629797551414,15929,230083,152900
1629797551424,15927,230091,152924
1629797551434,15921,230063,152923
1629797551444,15916,230038,152929
1629797551454,15908,230025,152903
1629797551464,15898,230013,152929
1629797551474,15898,230000,152943
1629797551484,15888,229990,152915
1629797551494,15887,229969,152926
1629797551504,15879,229967,152934
1629797551514,15880,229954,152923
1629797551524,15871,229969,152925
1629797551534,15864,229957,152936
1629797551544,15869,229942,152911
1629797551554,15866,229926,152953
1629797551564,15866,229958,152930
1629797551574,15872,229942,152914
1629797551584,15866,229930,152917
1629797551594,15871,229928,152929
1629797551604,15859,229952,152941
1629797551614,15864,229919,152915
1629797551624,15862,229916,152918
1629797551634,15857,229928,152954
1629797551644,15861,229925,152913
1629797551654,15865,229934,152949
1629797551664,15859,229959,152931
1629797551674,15860,229926,152928
1629797551684,15861,229972,152937
1629797551694,15861,229925,152956
1629797551704,15862,229923,152959
1629797551714,15867,229952,152953
1629797551724,15865,229966,152957
1629797551734,15868,229943,152958
1629797551744,15871,229930,152939
1629797551754,15878,229952,152944
1629797551764,15869,229988,152948
1629797551774,15873,229979,152963
1629797551784,15878,229986,152981
1629797551794,15882,230033,152960
1629797551804,15889,229992,152973
1629797551814,15896,230039,152972
1629797551824,15894,230042,152978
1629797551834,15894,230023,152982
1629797551844,15898,230043,152974
1629797551854,15903,230055,152993
1629797551864,15908,230045,152993
1629797551874,15909,230076,153008
1629797551884,15917,230110,152992
1629797551894,15923,230116,153002
1629797551904,15922,230137,153010
1629797551914,15932,230151,153007
1629797551924,15935,230145,153006
1629797551934,15933,230165,153013
1629797551944,15938,230157,153019
1629797551954,15944,230176,153025
1629797551964,15947,230202,153034
1629797551974,15950,230212,153042
1629797551984,15958,230257,153045
1629797551994,15964,230251,153039
1629797552004,15960,230274,153045
1629797552014,15972,230256,153053
1629797552024,15976,230289,153070
1629797552034,15978,230291,153054
1629797552044,15985,230325,153055
1629797552054,15986,230333,153068
1629797552064,15993,230331,153082
1629797552074,15992,230349,153084
1629797552084,15996,230373,153099
1629797552094,16009,230372,153119
1629797552104,16015,230428,153088
1629797552114,16020,230406,153090
1629797552124,16020,230389,153115
1629797552134,16028,230428,153092
1629797552144,16031,230447,153102
1629797552154,16034,230461,153114
1629797552164,16042,230478,153119
1629797552174,16046,230535,153119
1629797552184,16049,230548,153143
1629797552194,16056,230536,153129
1629797552204,16063,230592,153133
1629797552214,16065,230572,153147
1629797552224,16074,230581,153154
1629797552234,16084,230610,153164
1629797552244,16093,230595,153178
1629797552254,16092,230584,153197
1629797552264,16098,230609,153214
1629797552274,16107,230582,153234
1629797552284,16107,230554,153232
1629797552294,16107,230536,153210
1629797552304,16108,230552,153242
1629797552314,16108,230508,153231
1629797552324,16109,230517,153259
1629797552334,16103,230490,153235
1629797552344,16100,230470,153275
1629797552354,16097,230452,153240
1629797552364,16093,230434,153251
1629797552374,16086,230404,153261
1629797552384,16081,230413,153261
1629797552394,16069,230378,153275
1629797552404,16080,230390,153258
1629797552414,16066,230352,153258
1629797552424,16064,230323,153256
1629797552434,16053,230319,153275
1629797552444,16053,230285,153251
1629797552454,16045,230278,153247
1629797552464,16041,230260,153247
1629797552474,16029,230235,153256
1629797552484,16030,230213,153249
1629797552494,16024,230235,153265
1629797552504,16021,230180,153235
1629797552514,16012,230209,153238
1629797552524,16010,230206,153240
1629797552534,16009,230206,153255
1629797552544,16005,230184,153256
1629797552554,16007,230185,153246
1629797552564,16008,230190,153243
1629797552574,16009,230183,153257
1629797552584,16003,230178,153251
1629797552594,16001,230178,153232
1629797552604,15997,230161,153246
1629797552614,16001,230172,153257
1629797552624,15999,230173,153250
1629797552634,15995,230153,153253
1629797552644,15996,230184,153230
1629797552654,15990,230150,153241
1629797552664,15996,230159,153258
1629797552674,15993,230186,153227
1629797552684,15991,230163,153227
1629797552694,15992,230176,153226
1629797552704,15994,230152,153242
1629797552714,15998,230161,153261
1629797552724,15998,230187,153249
1629797552734,15997,230192,153241
1629797552744,16003,230167,153250
1629797552754,15999,230207,153240
1629797552764,16002,230186,153252
1629797552774,16005,230207,153252
1629797552784,16009,230197,153237
1629797552794,16009,230185,153251
1629797552804,16018,230241,153250
1629797552814,16012,230202,153249
1629797552824,16017,230255,153243
1629797552834,16020,230245,153269
1629797552844,16019,230269,153258
1629797552854,16025,230258,153280
1629797552864,16023,230267,153267
1629797552874,16026,230320,153272
1629797552884,16028,230299,153263
1629797552894,16040,230328,153286
1629797552904,16049,230295,153288
1629797552914,16032,230331,153270
1629797552924,16049,230374,153269
1629797552934,16051,230407,153278
1629797552944,16056,230408,153273
1629797552954,16059,230366,153282
1629797552964,16064,230404,153276
1629797552974,16064,230393,153268
1629797552984,16071,230430,153300
1629797552994,16073,230438,153293
1629797553004,16079,230445,153300
1629797553014,16082,230441,153319
1629797553024,16086,230458,153319
1629797553034,16094,230510,153316
1629797553044,16091,230503,153321
1629797553054,16103,230512,153314
1629797553064,16104,230540,153347
1629797553074,16112,230527,153332
1629797553084,16115,230587,153321
1629797553094,16115,230599,153324
1629797553104,16123,230576,153334
1629797553114,16128,230601,153353
1629797553124,16129,230625,153331
1629797553134,16133,230648,153357
1629797553144,16140,230690,153358
1629797553154,16140,230679,153366
1629797553164,16150,230689,153372
1629797553174,16159,230675,153362
1629797553184,16156,230731,153360
1629797553194,16166,230739,153377
1629797553204,16165,230765,153391
1629797553214,16179,230724,153398
1629797553224,16177,230743,153406
1629797553234,16178,230780,153384
1629797553244,16185,230775,153411
1629797553254,16205,230784,153413
1629797553264,16205,230797,153441
1629797553274,16212,230801,153454
1629797553284,16216,230812,153464
1629797553294,16226,230785,153476
1629797553304,16220,230745,153477
1629797553314,16221,230766,153467
1629797553324,16217,230695,153490
1629797553334,16213,230730,153484
1629797553344,16210,230706,153488
1629797553354,16207,230693,153487
1629797553364,16209,230685,153491
1629797553374,16199,230645,153483
1629797553384,16198,230682,153503
1629797553394,16187,230639,153479
1629797553404,16176,230595,153476
1629797553414,16169,230569,153485
1629797553424,16167,230548,153461
1629797553434,16157,230531,153486
1629797553444,16149,230510,153483
1629797553454,16139,230464,153476
1629797553464,16135,230459,153468
1629797553474,16127,230441,153487
1629797553484,16119,230430,153470
1629797553494,16112,230403,153463
1629797553504,16105,230384,153464
1629797553514,16093,230372,153444
1629797553524,16094,230337,153461
1629797553534,16086,230356,153453
1629797553544,16078,230367,153434
1629797553554,16075,230350,153444
1629797553564,16071,230331,153465
1629797553574,16069,230344,153452
1629797553584,16065,230364,153437
1629797553594,16061,230305,153451
1629797553604,16054,230325,153442
1629797553614,16054,230309,153437
1629797553624,16051,230288,153439
1629797553634,16050,230291,153428
1629797553644,16047,230303,153434
1629797553654,16047,230298,153438
1629797553664,16043,230296,153431
1629797553674,16044,230276,153430
1629797553684,16032,230277,153427
1629797553694,16044,230277,153447
1629797553704,16043,230295,153435
1629797553714,16036,230321,153430
1629797553724,16032,230269,153432
1629797553734,16034,230297,153449
1629797553744,16034,230289,153420
1629797553754,16035,230319,153439
1629797553764,16038,230311,153424
1629797553774,16041,230323,153407
1629797553784,16038,230315,153414
1629797553794,16039,230306,153446
1629797553804,16046,230319,153435
1629797553814,16043,230313,153432
1629797553824,16044,230332,153448
1629797553834,16050,230338,153443
1629797553844,16044,230376,153468
1629797553854,16057,230389,153421
1629797553864,16052,230379,153434
1629797553874,16054,230381,153454
1629797553884,16058,230360,153432
1629797553894,16058,230374,153450
1629797553904,16058,230383,153452
1629797553914,16064,230428,153452
1629797553924,16064,230421,153461
1629797553934,16066,230437,153453
1629797553944,16073,230422,153438
1629797553954,16073,230445,153451
1629797553964,16072,230496,153469
1629797553974,16077,230505,153471
1629797553984,16084,230486,153488
1629797553994,16083,230485,153488
1629797554004,16089,230510,153474
1629797554014,16088,230560,153486
1629797554024,16102,230536,153483
1629797554034,16095,230521,153472
1629797554044,16104,230564,153483
1629797554054,16103,230534,153493
1629797554064,16110,230567,153496
1629797554074,16111,230592,153501
1629797554084,16117,230607,153487
1629797554094,16123,230625,153506
1629797554104,16124,230616,153505
1629797554114,16125,230619,153511
1629797554124,16132,230623,153502
1629797554134,16134,230686,153502
1629797554144,16138,230708,153509
1629797554154,16144,230724,153527
1629797554164,16148,230710,153506
1629797554174,16152,230757,153526
1629797554184,16163,230751,153517
1629797554194,16162,230792,153527
1629797554204,16156,230735,153518
1629797554214,16169,230790,153521
1629797554224,16180,230837,153522
1629797554234,16179,230851,153536
1629797554244,16182,230850,153542
1629797554254,16190,230881,153546
1629797554264,16190,230907,153538
1629797554274,16196,230906,153561
1629797554284,16205,230924,153559
1629797554294,16212,230909,153579
1629797554304,16218,230903,153602
1629797554314,16227,230900,153630
1629797554324,16225,230857,153620
1629797554334,16227,230883,153620
1629797554344,16215,230820,153642
1629797554354,16214,230840,153621
1629797554364,16214,230831,153640
1629797554374,16215,230832,153644
1629797554384,16218,230772,153641
1629797554394,16207,230789,153652
1629797554404,16200,230772,153653
1629797554414,16195,230731,153665
1629797554424,16186,230703,153646
1629797554434,16174,230683,153642
1629797554444,16169,230692,153651
1629797554454,16162,230663,153651
1629797554464,16156,230632,153648
1629797554474,16146,230593,153643
1629797554484,16139,230604,153633
1629797554494,16128,230598,153630
1629797554504,16127,230556,153632
1629797554514,16104,230552,153634
1629797554524,16103,230510,153623
1629797554534,16087,230513,153643
1629797554544,16091,230498,153619
1629797554554,16076,230505,153618
1629797554564,16074,230478,153626
1629797554574,16073,230495,153617
1629797554584,16061,230494,153625
1629797554594,16062,230486,153605
1629797554604,16059,230482,153611
1629797554614,16050,230446,153626
1629797554624,16047,230446,153602
1629797554634,16040,230427,153607
1629797554644,16040,230433,153607
1629797554654,16039,230423,153593
1629797554664,16031,230465,153584
1629797554674,16029,230399,153586
1629797554684,16035,230374,153599
1629797554694,16026,230408,153598
1629797554704,16022,230382,153617
1629797554714,16022,230394,153604
1629797554724,16019,230395,153624
1629797554734,16024,230412,153602
1629797554744,16024,230419,153608
1629797554754,16019,230412,153624
1629797554764,16020,230411,153605
1629797554774,16020,230451,153606
1629797554784,16018,230440,153623
1629797554794,16023,230449,153624
1629797554804,16023,230433,153614
1629797554814,16023,230447,153613
1629797554824,16021,230436,153631
1629797554834,16012,230461,153642
1629797554844,16025,230461,153625
1629797554854,16026,230479,153621
1629797554864,16026,230471,153641
1629797554874,16032,230499,153636
1629797554884,16032,230515,153657
1629797554894,16032,230496,153622
1629797554904,16037,230505,153639
1629797554914,16041,230534,153622
1629797554924,16040,230543,153639
1629797554934,16044,230558,153643
1629797554944,16051,230550,153650
1629797554954,16049,230574,153654
1629797554964,16051,230549,153652
1629797554974,16059,230563,153656
1629797554984,16060,230602,153662
1629797554994,16070,230618,153660
1629797555004,16068,230633,153676
1629797555014,16076,230673,153700
1629797555024,16089,230647,153687
1629797555034,16083,230652,153696
1629797555044,16081,230650,153685
1629797555054,16084,230658,153690
1629797555064,16088,230694,153687
1629797555074,16093,230717,153696
1629797555084,16099,230713,153696
1629797555094,16100,230758,153699
1629797555104,16103,230738,153701
1629797555114,16106,230757,153717
1629797555124,16112,230798,153715
1629797555134,16114,230807,153733
1629797555144,16119,230841,153705
1629797555154,16122,230775,153758
1629797555164,16125,230811,153744
1629797555174,16133,230853,153733
1629797555184,16141,230866,153769
1629797555194,16146,230892,153743
1629797555204,16138,230911,153763
1629797555214,16145,230914,153762
1629797555224,16155,230921,153774
1629797555234,16157,230926,153774
1629797555244,16164,230947,153778
1629797555254,16170,230947,153786
1629797555264,16177,230979,153791
1629797555274,16184,230980,153798
1629797555284,16195,230973,153805
1629797555294,16197,230967,153839
1629797555304,16198,230956,153848
1629797555314,16202,230922,153842
1629797555324,16187,230933,153846
1629797555334,16197,230914,153852
1629797555344,16181,230877,153851
1629797555354,16177,230861,153858
1629797555364,16171,230853,153857
1629797555374,16173,230826,153845
1629797555384,16162,230812,153871
1629797555394,16156,230762,153877
1629797555404,16151,230758,153887
1629797555414,16144,230720,153882
1629797555424,16131,230733,153866
1629797555434,16125,230688,153863
1629797555444,16116,230649,153863
1629797555454,16105,230647,153843
1629797555464,16093,230658,153877
1629797555474,16089,230590,153870
1629797555484,16077,230586,153862
1629797555494,16065,230561,153856
1629797555504,16056,230544,153866
1629797555514,16048,230551,153862
1629797555524,16046,230514,153844
1629797555534,16036,230527,153850
1629797555544,16031,230528,153849
1629797555554,16018,230471,153851
1629797555564,16016,230491,153847
1629797555574,16014,230474,153849
1629797555584,16016,230460,153861
1629797555594,16014,230476,153841
1629797555604,16008,230446,153840
1629797555614,16008,230425,153833
1629797555624,15998,230414,153832
1629797555634,16002,230430,153825
1629797555644,15995,230416,153845
1629797555654,15989,230426,153843
1629797555664,15989,230419,153832
1629797555674,15985,230406,153855
1629797555684,15983,230429,153841
1629797555694,15980,230403,153821
1629797555704,15976,230371,153835
1629797555714,15977,230411,153838
1629797555724,15980,230412,153839
1629797555734,15976,230361,153829
1629797555744,15976,230412,153850
1629797555754,15977,230401,153843
1629797555764,15977,230416,153830
1629797555774,15978,230413,153847
1629797555784,15979,230434,153838
1629797555794,15978,230406,153847
1629797555804,15977,230412,153852
1629797555814,15980,230456,153846
1629797555824,15979,230443,153856
1629797555834,15984,230452,153863
1629797555844,15986,230448,153859
1629797555854,15990,230464,153856
1629797555864,15990,230458,153860
1629797555874,15989,230466,153861
1629797555884,15997,230478,153859
1629797555894,15996,230478,153873
1629797555904,15994,230473,153856
1629797555914,16001,230500,153863
1629797555924,16003,230511,153872
1629797555934,16006,230537,153869
1629797555944,16006,230532,153862
1629797555954,16014,230580,153854
1629797555964,16015,230523,153869
1629797555974,16005,230589,153867
1629797555984,16019,230587,153869
1629797555994,16025,230559,153864
1629797556004,16027,230640,153892
1629797556014,16033,230601,153869
1629797556024,16032,230614,153885
1629797556034,16035,230626,153880
1629797556044,16045,230636,153888
1629797556054,16046,230684,153900
1629797556064,16050,230672,153903
1629797556074,16053,230706,153914
1629797556084,16063,230719,153917
1629797556094,16062,230737,153901
1629797556104,16072,230725,153910
1629797556114,16067,230725,153894
1629797556124,16085,230741,153942
1629797556134,16086,230768,153916
1629797556144,16083,230803,153922
1629797556154,16081,230808,153944
1629797556164,16092,230788,153936
1629797556174,16096,230824,153937
1629797556184,16102,230846,153937
1629797556194,16103,230851,153948
1629797556204,16111,230862,153942
1629797556214,16110,230873,153957
1629797556224,16124,230884,153950
1629797556234,16126,230913,153948
1629797556244,16132,230886,153966
1629797556254,16143,230922,153978
1629797556264,16145,230931,154001
1629797556274,16154,230904,154006
1629797556284,16147,230877,154006
1629797556294,16149,230867,154015
1629797556304,16150,230835,154019
1629797556314,16148,230833,154039
1629797556324,16149,230794,154020
1629797556334,16143,230788,154017
1629797556344,16137,230747,154028
1629797556354,16130,230772,154032
1629797556364,16123,230740,154023
1629797556374,16118,230683,154035
1629797556384,16105,230692,154026
1629797556394,16099,230683,154029
1629797556404,16100,230613,154022
1629797556414,16082,230608,154021
1629797556424,16078,230557,154017
1629797556434,16067,230549,153997
1629797556444,16049,230534,154013
1629797556454,16051,230495,154005
1629797556464,16040,230501,153997
1629797556474,16041,230488,154008
1629797556484,16031,230431,153983
1629797556494,16020,230437,153978
1629797556504,16011,230422,153971
1629797556514,16006,230399,153969
1629797556524,15992,230372,153978
1629797556534,15992,230376,153962
1629797556544,15993,230356,153979
1629797556554,15989,230322,153962
1629797556564,15989,230339,153976
1629797556574,15987,230331,153959
1629797556584,15983,230351,153957
1629797556594,15979,230345,153975
1629797556604,15977,230329,153957
1629797556614,15976,230320,153973
1629797556624,15977,230318,153953
1629797556634,15974,230308,153961
1629797556644,15964,230297,153952
1629797556654,15967,230307,153980
1629797556664,15970,230332,153968
1629797556674,15971,230307,153959
1629797556684,15967,230296,153976
1629797556694,15965,230304,153963
1629797556704,15966,230343,153953
1629797556714,15966,230299,153957
1629797556724,15970,230290,153949
1629797556734,15970,230287,153941
1629797556744,15967,230278,153960
1629797556754,15971,230301,153946
1629797556764,15969,230293,153936
1629797556774,15973,230307,153929
1629797556784,15977,230289,153934
1629797556794,15986,230324,153930
1629797556804,15978,230333,153947
1629797556814,15975,230336,153969
1629797556824,15979,230330,153964
1629797556834,15992,230327,153965
1629797556844,15986,230341,153949
1629797556854,15994,230348,153958
1629797556864,15996,230373,153965
1629797556874,15998,230407,153979
1629797556884,16002,230392,153971
1629797556894,16005,230404,153969
1629797556904,16009,230369,153960
1629797556914,16014,230398,153974
1629797556924,16018,230386,153971
1629797556934,16028,230429,153955
1629797556944,16022,230415,153982
1629797556954,16029,230451,153985
1629797556964,16036,230481,153972
1629797556974,16037,230474,153978
1629797556984,16043,230467,153994
1629797556994,16047,230509,153993
1629797557004,16047,230538,153968
1629797557014,16049,230507,153975
1629797557024,16059,230513,154007
1629797557034,16062,230562,153991
1629797557044,16071,230549,153993
1629797557054,16072,230598,153996
1629797557064,16076,230586,154006
1629797557074,16084,230603,154011
1629797557084,16085,230634,153998
1629797557094,16091,230637,154011
1629797557104,16095,230619,154022
1629797557114,16100,230685,154021
1629797557124,16098,230657,154037
1629797557134,16116,230711,154046
1629797557144,16111,230708,154021
1629797557154,16123,230712,154027
1629797557164,16120,230757,154056
1629797557174,16132,230765,154032
1629797557184,16132,230767,154050
1629797557194,16137,230772,154051
1629797557204,16146,230780,154052
1629797557214,16150,230804,154058
1629797557224,16154,230783,154050
1629797557234,16156,230833,154072
1629797557244,16167,230844,154080
1629797557254,16175,230842,154101
1629797557264,16183,230826,154099
1629797557274,16188,230825,154117
1629797557284,16198,230815,154136
1629797557294,16193,230814,154136
1629797557304,16202,230834,154136
1629797557314,16196,230753,154124
1629797557324,16195,230750,154127
1629797557334,16188,230751,154118
1629797557344,16185,230726,154139
1629797557354,16185,230698,154123
1629797557364,16182,230675,154131
1629797557374,16175,230675,154147
1629797557384,16169,230629,154146
1629797557394,16160,230589,154127
1629797557404,16156,230568,154123
1629797557414,16146,230550,154127
1629797557424,16136,230527,154125
1629797557434,16143,230496,154114
1629797557444,16123,230463,154081
1629797557454,16116,230433,154114
1629797557464,16111,230412,154086
1629797557474,16107,230414,154084
1629797557484,16098,230404,154076
1629797557494,16092,230340,154075
1629797557504,16085,230348,154055
1629797557514,16078,230338,154060
1629797557524,16073,230334,154076
1629797557534,16067,230316,154047
1629797557544,16061,230302,154061
1629797557554,16061,230323,154050
1629797557564,16059,230301,154037
1629797557574,16059,230268,154047
1629797557584,16062,230242,154039
1629797557594,16058,230278,154029
1629797557604,16058,230216,154042
1629797557614,16040,230262,154017
1629797557624,16055,230233,154018
1629797557634,16056,230228,154023
1629797557644,16047,230231,154011
1629797557654,16047,230193,154018
1629797557664,16045,230204,154017
1629797557674,16045,230231,154013
1629797557684,16046,230218,154011
1629797557694,16046,230205,153996
1629797557704,16044,230189,153990
1629797557714,16046,230218,153995
1629797557724,16044,230186,153978
1629797557734,16047,230198,153997
1629797557744,16045,230195,154007
1629797557754,16043,230230,153981
1629797557764,16053,230209,154003
1629797557774,16054,230208,153986
1629797557784,16060,230245,153994
1629797557794,16056,230228,153973
1629797557804,16061,230234,153989
1629797557814,16063,230230,153991
1629797557824,16067,230257,153991
1629797557834,16064,230279,153989
1629797557844,16068,230274,153987
1629797557854,16071,230266,153991
1629797557864,16074,230266,154001
1629797557874,16076,230330,153990
1629797557884,16078,230300,153988
1629797557894,16081,230281,154011
1629797557904,16089,230305,153990
1629797557914,16087,230301,153982
1629797557924,16091,230319,154007
1629797557934,16096,230336,154007
1629797557944,16092,230348,154010
1629797557954,16104,230343,154007
1629797557964,16107,230361,153991
1629797557974,16111,230380,154003
1629797557984,16113,230384,154002
1629797557994,16115,230419,154003
1629797558004,16115,230411,154022
1629797558014,16122,230433,154011
1629797558024,16126,230451,154012
1629797558034,16128,230459,154027
1629797558044,16132,230464,154007
1629797558054,16139,230463,154017
1629797558064,16146,230479,154012
1629797558074,16152,230502,154035
1629797558084,16153,230515,154010
1629797558094,16158,230533,154045
1629797558104,16167,230531,154019
1629797558114,16171,230584,154038
1629797558124,16173,230561,154050
1629797558134,16181,230575,154034
1629797558144,16184,230587,154048
1629797558154,16185,230611,154041
1629797558164,16192,230595,154051
1629797558174,16197,230628,154049
1629797558184,16204,230659,154057
1629797558194,16207,230673,154062
1629797558204,16209,230697,154052
1629797558214,16217,230741,154063
1629797558224,16225,230766,154068
1629797558234,16228,230720,154070
1629797558244,16230,230782,154081
1629797558254,16230,230765,154092
1629797558264,16242,230754,154108
1629797558274,16254,230796,154102
1629797558284,16262,230797,154122
1629797558294,16268,230806,154119
1629797558304,16276,230802,154152
1629797558314,16286,230782,154145
1629797558324,16284,230791,154171
1629797558334,16286,230763,154164
1629797558344,16283,230731,154143
1629797558354,16283,230726,154161
1629797558364,16282,230722,154175
1629797558374,16281,230700,154163
1629797558384,16277,230703,154180
1629797558394,16275,230665,154169
1629797558404,16266,230654,154163
1629797558414,16266,230634,154162
1629797558424,16257,230580,154163
1629797558434,16250,230593,154166
1629797558444,16241,230524,154148
1629797558454,16242,230523,154148
1629797558464,16237,230515,154163
1629797558474,16228,230501,154144
1629797558484,16227,230475,154143
1629797558494,16215,230436,154159
1629797558504,16211,230474,154149
1629797558514,16206,230442,154137
1629797558524,16197,230371,154118
1629797558534,16194,230367,154127
1629797558544,16186,230350,154130
1629797558554,16185,230366,154111
1629797558564,16187,230352,154113
1629797558574,16175,230373,154110
1629797558584,16173,230372,154103
1629797558594,16167,230318,154090
1629797558604,16169,230310,154094
1629797558614,16164,230356,154084
1629797558624,16160,230330,154101
1629797558634,16160,230307,154103
1629797558644,16160,230298,154092
1629797558654,16159,230318,154083
1629797558664,16158,230301,154073
1629797558674,16154,230277,154078
1629797558684,16151,230268,154089
1629797558694,16153,230261,154065
1629797558704,16153,230251,154067
1629797558714,16148,230284,154078
1629797558724,16152,230311,154068
1629797558734,16151,230250,154065
1629797558744,16139,230264,154063
1629797558754,16146,230277,154071
1629797558764,16152,230253,154069
1629797558774,16152,230243,154056
1629797558784,16151,230312,154051
1629797558794,16158,230292,154066
1629797558804,16156,230280,154060
1629797558814,16157,230288,154077
1629797558824,16153,230305,154068
1629797558834,16163,230288,154072
1629797558844,16157,230336,154070
1629797558854,16164,230319,154055
1629797558864,16169,230353,154087
1629797558874,16171,230318,154067
1629797558884,16171,230318,154053
1629797558894,16163,230338,154075
1629797558904,16170,230344,154075
1629797558914,16178,230385,154077
1629797558924,16182,230384,154057
1629797558934,16183,230371,154100
1629797558944,16186,230390,154067
1629797558954,16191,230405,154089
1629797558964,16193,230411,154073
1629797558974,16196,230449,154086
1629797558984,16198,230408,154084
1629797558994,16200,230435,154091
1629797559004,16202,230438,154094
1629797559014,16206,230480,154093
1629797559024,16212,230454,154101
1629797559034,16218,230488,154093
1629797559044,16212,230497,154095
1629797559054,16221,230509,154083
1629797559064,16230,230515,154105
1629797559074,16236,230536,154117
1629797559084,16232,230567,154114
1629797559094,16239,230557,154137
1629797559104,16246,230556,154123
1629797559114,16249,230575,154138
1629797559124,16251,230603,154135
1629797559134,16258,230588,154145
1629797559144,16257,230638,154138
1629797559154,16269,230616,154153
1629797559164,16268,230648,154137
1629797559174,16273,230665,154166
1629797559184,16275,230698,154152
1629797559194,16282,230684,154147
1629797559204,16283,230655,154160
1629797559214,16297,230702,154161
1629797559224,16283,230691,154159
1629797559234,16302,230737,154182
1629797559244,16305,230747,154180
1629797559254,16305,230754,154171
1629797559264,16316,230785,154198
1629797559274,16319,230778,154192
1629797559284,16322,230791,154213
1629797559294,16330,230771,154213
1629797559304,16338,230756,154234
1629797559314,16338,230734,154232
1629797559324,16333,230713,154215
1629797559334,16337,230713,154237
1629797559344,16335,230698,154242
1629797559354,16334,230667,154250
1629797559364,16332,230636,154249
1629797559374,16322,230639,154246
1629797559384,16319,230621,154241
1629797559394,16314,230592,154228
1629797559404,16301,230570,154227
1629797559414,16301,230559,154250
1629797559424,16293,230555,154245
1629797559434,16283,230483,154236
1629797559444,16273,230492,154255
1629797559454,16267,230479,154219
1629797559464,16257,230443,154229
1629797559474,16248,230390,154204
1629797559484,16242,230411,154201
1629797559494,16233,230386,154218
1629797559504,16220,230350,154218
1629797559514,16215,230342,154202
1629797559524,16208,230311,154187
1629797559534,16202,230308,154210
1629797559544,16181,230274,154178
1629797559554,16180,230250,154201
1629797559564,16171,230260,154192
1629797559574,16172,230236,154171
1629797559584,16170,230242,154182
1629797559594,16164,230274,154187
1629797559604,16161,230227,154169
1629797559614,16155,230203,154183
1629797559624,16153,230208,154147
1629797559634,16143,230200,154164
1629797559644,16141,230198,154150
1629797559654,16138,230163,154153
1629797559664,16137,230181,154143
1629797559674,16133,230171,154156
1629797559684,16129,230165,154152
1629797559694,16130,230191,154162
1629797559704,16119,230129,154144
1629797559714,16120,230152,154116
1629797559724,16119,230180,154129
1629797559734,16114,230168,154123
1629797559744,16114,230190,154125
1629797559754,16116,230134,154145
1629797559764,16112,230158,154150
1629797559774,16114,230133,154128
1629797559784,16112,230168,154141
1629797559794,16114,230150,154139
1629797559804,16114,230179,154124
1629797559814,16114,230147,154121
1629797559824,16115,230157,154141
1629797559834,16112,230172,154127
1629797559844,16115,230155,154108
1629797559854,16117,230174,154129
1629797559864,16119,230163,154105
1629797559874,16119,230205,154119
1629797559884,16124,230166,154094
1629797559894,16120,230225,154123
1629797559904,16122,230224,154132
1629797559914,16123,230194,154144
1629797559924,16127,230239,154137
1629797559934,16126,230248,154137
1629797559944,16125,230240,154138
1629797559954,16132,230239,154134
1629797559964,16134,230222,154123
1629797559974,16136,230299,154121
1629797559984,16138,230299,154143
1629797559994,16140,230319,154133
1629797560004,16139,230305,154148
1629797560014,16146,230292,154124
1629797560024,16154,230302,154121
1629797560034,16149,230316,154143
1629797560044,16154,230360,154138
1629797560054,16152,230355,154153
1629797560064,16155,230356,154156
1629797560074,16159,230376,154154
1629797560084,16161,230377,154160
1629797560094,16162,230408,154166
1629797560104,16170,230403,154176
1629797560114,16173,230377,154150
1629797560124,16174,230443,154177
1629797560134,16178,230418,154154
1629797560144,16183,230438,154169
1629797560154,16184,230463,154176
1629797560164,16191,230462,154165
1629797560174,16191,230505,154165
1629797560184,16201,230499,154162
1629797560194,16196,230524,154180
1629797560204,16202,230513,154177
1629797560214,16196,230539,154182
1629797560224,16214,230529,154187
1629797560234,16216,230581,154190
1629797560244,16220,230568,154196
1629797560254,16224,230576,154196
1629797560264,16227,230556,154198
1629797560274,16234,230548,154235
1629797560284,16241,230574,154242
1629797560294,16238,230559,154230
1629797560304,16239,230534,154221
1629797560314,16229,230508,154249
1629797560324,16227,230455,154231
1629797560334,16224,230450,154235
1629797560344,16219,230435,154242
1629797560354,16201,230423,154260
1629797560364,16200,230401,154250
1629797560374,16193,230352,154251
1629797560384,16182,230311,154251
1629797560394,16174,230329,154237
1629797560404,16165,230308,154243
1629797560414,16150,230235,154237
1629797560424,16146,230235,154244
1629797560434,16131,230213,154219
1629797560444,16119,230203,154221
1629797560454,16111,230167,154229
1629797560464,16102,230145,154212
1629797560474,16089,230106,154195
1629797560484,16077,230055,154204
1629797560494,16066,230041,154206
1629797560504,16061,230002,154201
1629797560514,16050,229986,154210
1629797560524,16044,229974,154207
1629797560534,16034,230009,154189
1629797560544,16033,229990,154191
1629797560554,16025,229946,154176
1629797560564,16011,229957,154178
1629797560574,16017,229975,154184
1629797560584,16011,229935,154169
1629797560594,16003,229945,154198
1629797560604,15996,229933,154174
1629797560614,15994,229888,154174
1629797560624,15988,229865,154166
1629797560634,15989,229839,154157
1629797560644,15979,229855,154175
1629797560654,15975,229879,154166
1629797560664,15966,229882,154159
1629797560674,15971,229878,154139
1629797560684,15966,229892,154167
1629797560694,15970,229909,154167
1629797560704,15967,229870,154154
1629797560714,15961,229886,154160
1629797560724,15963,229852,154170
1629797560734,15961,229847,154160
1629797560744,15960,229845,154152
1629797560754,15960,229880,154177
1629797560764,15958,229874,154162
1629797560774,15960,229871,154169
1629797560784,15960,229872,154173
1629797560794,15960,229871,154169
1629797560804,15955,229887,154179
1629797560814,15959,229880,154156
1629797560824,15962,229902,154168
1629797560834,15958,229884,154184
1629797560844,15957,229877,154188
1629797560854,15964,229909,154172
1629797560864,15963,229932,154180
1629797560874,15969,229924,154171
1629797560884,15968,229920,154182
1629797560894,15971,229926,154179
1629797560904,15972,229925,154200
1629797560914,15975,229956,154180
1629797560924,15976,229979,154172
1629797560934,15980,229983,154183
1629797560944,15982,229978,154212
1629797560954,15982,229991,154184
1629797560964,15983,229991,154178
1629797560974,15989,230000,154201
1629797560984,15989,230017,154214
1629797560994,15992,230014,154215
1629797561004,16007,230065,154188
1629797561014,15993,230062,154190
1629797561024,15999,230072,154205
1629797561034,16006,230072,154220
1629797561044,16008,230092,154197
1629797561054,16011,230078,154218
1629797561064,16013,230088,154227
1629797561074,16019,230122,154210
1629797561084,16023,230137,154229
1629797561094,16027,230106,154242
1629797561104,16029,230145,154245
1629797561114,16032,230135,154242
1629797561124,16033,230187,154250
1629797561134,16044,230184,154251
1629797561144,16046,230202,154276
1629797561154,16058,230206,154260
1629797561164,16051,230256,154257
1629797561174,16058,230281,154229
1629797561184,16062,230282,154257
1629797561194,16059,230278,154268
1629797561204,16064,230259,154253
1629797561214,16068,230278,154246
1629797561224,16076,230297,154269
1629797561234,16082,230331,154288
1629797561244,16088,230343,154268
1629797561254,16092,230340,154281
1629797561264,16097,230347,154297
1629797561274,16108,230317,154307
1629797561284,16108,230350,154325
1629797561294,16113,230326,154325
1629797561304,16109,230307,154324
1629797561314,16101,230282,154313
1629797561324,16104,230226,154328
1629797561334,16100,230255,154332
1629797561344,16090,230234,154324
1629797561354,16083,230197,154346
1629797561364,16076,230156,154375
1629797561374,16064,230161,154319
1629797561384,16056,230158,154328
1629797561394,16048,230084,154345
1629797561404,16039,230064,154327
1629797561414,16029,230042,154341
1629797561424,16021,230022,154345
1629797561434,16012,229988,154321
1629797561444,15992,229945,154313
1629797561454,15992,229934,154304
1629797561464,15978,229918,154309
1629797561474,15966,229878,154315
1629797561484,15956,229879,154323
1629797561494,15940,229806,154294
1629797561504,15931,229812,154308
1629797561514,15925,229802,154295
1629797561524,15919,229784,154297
1629797561534,15910,229765,154303
1629797561544,15902,229732,154272
1629797561554,15898,229719,154295
1629797561564,15893,229727,154281
1629797561574,15895,229713,154274
1629797561584,15889,229694,154297
1629797561594,15888,229683,154281
1629797561604,15885,229665,154275
1629797561614,15879,229676,154282
1629797561624,15879,229634,154287
1629797561634,15875,229650,154282
1629797561644,15872,229614,154295
1629797561654,15869,229613,154286
1629797561664,15869,229590,154274
1629797561674,15866,229640,154286
1629797561684,15864,229621,154287
1629797561694,15862,229617,154269
1629797561704,15858,229623,154265
1629797561714,15862,229630,154257
1629797561724,15861,229616,154263
1629797561734,15856,229640,154281
1629797561744,15860,229647,154266
1629797561754,15864,229615,154263
1629797561764,15860,229612,154268
1629797561774,15861,229655,154261
1629797561784,15868,229641,154289
1629797561794,15868,229633,154252
1629797561804,15870,229650,154264
1629797561814,15870,229653,154279
1629797561824,15869,229624,154260
1629797561834,15881,229642,154288
1629797561844,15884,229651,154270
1629797561854,15878,229628,154270
1629797561864,15881,229697,154259
1629797561874,15885,229696,154272
1629797561884,15885,229706,154282
1629797561894,15889,229691,154272
1629797561904,15896,229723,154266
1629797561914,15896,229733,154292
1629797561924,15903,229734,154267
1629797561934,15901,229761,154272
1629797561944,15908,229771,154290
1629797561954,15912,229754,154284
1629797561964,15915,229773,154284
1629797561974,15918,229774,154294
1629797561984,15918,229798,154293
1629797561994,15916,229827,154293
1629797562004,15937,229818,154275
1629797562014,15940,229854,154300
1629797562024,15940,229882,154290
1629797562034,15941,229861,154310
1629797562044,15945,229883,154310
1629797562054,15948,229865,154307
1629797562064,15951,229904,154303
1629797562074,15960,229930,154325
1629797562084,15967,229943,154309
1629797562094,15969,229935,154315
1629797562104,15979,229979,154327
1629797562114,15981,229939,154335
1629797562124,15987,229989,154331
1629797562134,15993,229993,154328
1629797562144,15991,230028,154336
1629797562154,15996,230007,154342
1629797562164,16010,230030,154341
1629797562174,16018,230042,154351
1629797562184,16015,230074,154351
1629797562194,16023,230100,154384
1629797562204,16029,230107,154360
1629797562214,16037,230137,154368
1629797562224,16042,230135,154369
1629797562234,16046,230137,154378
1629797562244,16055,230149,154380
1629797562254,16057,230231,154393
1629797562264,16063,230223,154386
1629797562274,16065,230248,154389
1629797562284,16066,230284,154404
1629797562294,16073,230261,154421
1629797562304,16091,230302,154408
1629797562314,16093,230234,154437
1629797562324,16104,230255,154462
1629797562334,16112,230236,154446
1629797562344,16103,230256,154436
1629797562354,16110,230228,154458
1629797562364,16108,230159,154461
1629797562374,16098,230188,154448
1629797562384,16104,230141,154466
1629797562394,16099,230178,154459
1629797562404,16100,230124,154478
1629797562414,16089,230121,154458
1629797562424,16085,230099,154460
1629797562434,16077,230065,154473
1629797562444,16068,230030,154465
1629797562454,16068,230029,154463
1629797562464,16067,230030,154449
1629797562474,16054,229991,154451
1629797562484,16053,229984,154452
1629797562494,16050,229946,154460
1629797562504,16032,229947,154451
1629797562514,16027,229892,154457
1629797562524,16015,229894,154446
1629797562534,16014,229900,154444
1629797562544,16007,229844,154437
1629797562554,16003,229838,154422
1629797562564,15996,229829,154439
1629797562574,15993,229837,154435
1629797562584,15991,229812,154423
1629797562594,15986,229816,154426
1629797562604,15986,229821,154418
1629797562614,15988,229802,154419
1629797562624,15978,229798,154412
1629797562634,15987,229787,154426
1629797562644,15985,229809,154403
1629797562654,15988,229755,154409
1629797562664,15980,229755,154424
1629797562674,15980,229764,154407
1629797562684,15978,229781,154408
1629797562694,15979,229746,154414
1629797562704,15979,229753,154425
1629797562714,15981,229737,154411
1629797562724,15977,229757,154405
1629797562734,15980,229770,154420
1629797562744,15982,229775,154405
1629797562754,15984,229799,154400
1629797562764,15984,229782,154407
1629797562774,15983,229780,154407
1629797562784,15982,229796,154397
1629797562794,15990,229775,154395
1629797562804,15988,229751,154416
1629797562814,15987,229813,154391
1629797562824,15995,229785,154424
1629797562834,15994,229823,154395
1629797562844,16003,229798,154407
1629797562854,16003,229823,154396
1629797562864,16007,229822,154413
1629797562874,16011,229845,154404
1629797562884,16010,229854,154403
1629797562894,16016,229820,154417
1629797562904,16020,229871,154405
1629797562914,16026,229889,154404
1629797562924,16027,229910,154409
1629797562934,16027,229895,154413
1629797562944,16047,229896,154434
1629797562954,16035,229923,154412
1629797562964,16045,229942,154412
1629797562974,16042,229954,154429
1629797562984,16054,229960,154428
1629797562994,16057,230008,154410
1629797563004,16061,229984,154430
1629797563014,16066,229978,154434
1629797563024,16072,229997,154438
1629797563034,16074,230013,154441
1629797563044,16081,230048,154446
1629797563054,16086,230049,154445
1629797563064,16088,230047,154438
1629797563074,16095,230078,154436
1629797563084,16099,230069,154452
1629797563094,16106,230087,154445
1629797563104,16113,230093,154443
1629797563114,16118,230130,154453
1629797563124,16121,230127,154464
1629797563134,16118,230156,154441
1629797563144,16131,230190,154463
1629797563154,16135,230169,154462
1629797563164,16137,230252,154465
1629797563174,16145,230210,154457
1629797563184,16148,230210,154485
1629797563194,16156,230223,154483
1629797563204,16153,230257,154490
1629797563214,16167,230279,154480
1629797563224,16171,230287,154490
1629797563234,16180,230323,154485
1629797563244,16180,230317,154492
1629797563254,16188,230312,154484
1629797563264,16195,230366,154496
1629797563274,16196,230365,154516
1629797563284,16199,230384,154500
1629797563294,16215,230417,154491
1629797563304,16213,230409,154512
1629797563314,16224,230426,154522
1629797563324,16230,230432,154539
1629797563334,16240,230391,154534
1629797563344,16242,230443,154540
