timestamp,green,ir,red
1629797528073,42551,246397,195033
1629797528083,42556,246377,195022
1629797528093,42559,246433,195047
1629797528103,42560,246402,195051
1629797528113,42566,246406,195040
1629797528123,42570,246418,195021
1629797528133,42572,246464,195043
1629797528143,42581,246453,195034
1629797528153,42577,246458,195045
1629797528163,42571,246447,195041
1629797528173,42583,246423,195005
1629797528183,42566,246444,194988
1629797528193,42569,246434,194964
1629797528203,42553,246414,194947
1629797528213,42547,246393,194926
1629797528223,42539,246386,194908
1629797528233,42528,246392,194875
1629797528243,42519,246376,194865
1629797528253,42516,246346,194839
1629797528263,42496,246314,194813
1629797528273,42483,246310,194763
1629797528283,42478,246289,194747
1629797528293,42468,246240,194727
1629797528303,42453,246239,194694
1629797528313,42446,246180,194614
1629797528323,42431,246180,194588
1629797528333,42419,246103,194590
1629797528343,42415,246124,194556
1629797528353,42418,246119,194541
1629797528363,42407,246095,194518
1629797528373,42398,246085,194509
1629797528383,42395,246070,194502
1629797528393,42382,246043,194466
1629797528403,42370,246096,194454
1629797528413,42367,246035,194460
1629797528423,42369,246042,194461
1629797528433,42370,246052,194482
1629797528443,42375,246043,194480
1629797528453,42374,246030,194473
1629797528463,42371,246035,194473
1629797528473,42374,246048,194463
1629797528483,42375,246014,194472
1629797528493,42382,246016,194462
1629797528503,42379,245996,194472
1629797528513,42381,246053,194490
1629797528523,42379,245972,194493
1629797528533,42379,245993,194500
1629797528543,42381,245980,194488
1629797528553,42384,245985,194497
1629797528563,42383,246001,194489
1629797528573,42391,246008,194489
1629797528583,42395,245998,194525
1629797528593,42407,246025,194566
1629797528603,42407,246009,194586
1629797528613,42417,246037,194596
1629797528623,42422,246056,194602
1629797528633,42427,246053,194656
1629797528643,42444,246130,194655
1629797528653,42431,246099,194715
1629797528663,42463,246120,194735
1629797528673,42468,246144,194764
1629797528683,42468,246159,194770
1629797528693,42477,246123,194785
1629797528703,42479,246115,194773
1629797528713,42490,246111,194797
1629797528723,42495,246133,194818
1629797528733,42511,246190,194846
1629797528743,42523,246159,194897
1629797528753,42531,246166,194902
1629797528763,42538,246160,194892
1629797528773,42558,246150,194913
1629797528783,42550,246134,194922
1629797528793,42553,246104,194908
1629797528803,42567,246086,194906
1629797528813,42567,246087,194926
1629797528823,42576,246078,194944
1629797528833,42583,246085,194958
1629797528843,42595,246112,194988
1629797528853,42608,246132,194985
1629797528863,42609,246137,194982
1629797528873,42626,246134,195011
1629797528883,42630,246135,195032
1629797528893,42641,246112,195038
1629797528903,42648,246132,195051
1629797528913,42646,246102,195031
1629797528923,42644,246118,195041
1629797528933,42644,246109,195023
1629797528943,42650,246128,195024
1629797528953,42651,246132,195004
1629797528963,42637,246096,194997
1629797528973,42650,246077,194950
1629797528983,42637,246122,194972
1629797528993,42637,246108,194947
1629797529003,42640,246105,194941
1629797529013,42631,246113,194934
1629797529023,42633,246102,194892
1629797529033,42629,246101,194879
1629797529043,42631,246094,194864
1629797529053,42619,246104,194809
1629797529063,42614,246151,194814
1629797529073,42606,246072,194764
1629797529083,42606,246106,194740
1629797529093,42598,246067,194708
1629797529103,42579,246055,194677
1629797529113,42570,246014,194633
1629797529123,42562,246001,194559
1629797529133,42540,245984,194531
1629797529143,42512,245923,194478
1629797529153,42504,245869,194417
1629797529163,42477,245862,194404
1629797529173,42471,245828,194345
1629797529183,42476,245818,194308
1629797529193,42459,245802,194315
1629797529203,42464,245787,194337
1629797529213,42457,245771,194318
1629797529223,42454,245749,194312
1629797529233,42456,245787,194323
1629797529243,42451,245787,194327
1629797529253,42452,245757,194306
1629797529263,42444,245762,194298
1629797529273,42444,245761,194310
1629797529283,42431,245770,194282
1629797529293,42437,245746,194290
1629797529303,42418,245731,194298
1629797529313,42436,245706,194299
1629797529323,42432,245766,194311
1629797529333,42439,245765,194361
1629797529343,42443,245773,194379
1629797529353,42443,245782,194363
1629797529363,42450,245740,194369
1629797529373,42451,245797,194398
1629797529383,42447,245762,194384
1629797529393,42454,245744,194371
1629797529403,42455,245718,194404
1629797529413,42452,245745,194414
1629797529423,42467,245799,194465
1629797529433,42471,245788,194481
1629797529443,42483,245796,194507
1629797529453,42481,245811,194517
1629797529463,42489,245815,194560
1629797529473,42494,245837,194543
1629797529483,42489,245828,194557
1629797529493,42496,245848,194572
1629797529503,42502,245822,194565
1629797529513,42502,245840,194608
1629797529523,42512,245846,194621
1629797529533,42516,245804,194607
1629797529543,42520,245839,194621
1629797529553,42520,245830,194630
1629797529563,42520,245833,194615
1629797529573,42511,245817,194613
1629797529583,42518,245824,194578
1629797529593,42522,245766,194604
1629797529603,42527,245775,194580
1629797529613,42528,245784,194589
1629797529623,42523,245772,194586
1629797529633,42529,245771,194593
1629797529643,42531,245769,194590
1629797529653,42521,245790,194585
1629797529663,42527,245744,194591
1629797529673,42524,245780,194577
1629797529683,42527,245742,194563
1629797529693,42519,245795,194544
1629797529703,42519,245771,194505
1629797529713,42514,245762,194490
1629797529723,42511,245734,194499
1629797529733,42506,245736,194478
1629797529743,42510,245759,194444
1629797529753,42505,245748,194451
1629797529763,42504,245726,194409
1629797529773,42508,245753,194370
1629797529783,42493,245719,194401
1629797529793,42501,245750,194378
1629797529803,42497,245707,194376
1629797529813,42489,245700,194349
1629797529823,42492,245708,194301
1629797529833,42494,245689,194304
1629797529843,42493,245691,194270
1629797529853,42494,245684,194277
1629797529863,42494,245672,194262
1629797529873,42498,245673,194250
1629797529883,42498,245670,194239
1629797529893,42503,245658,194262
1629797529903,42500,245675,194235
1629797529913,42507,245643,194211
1629797529923,42508,245660,194188
1629797529933,42503,245659,194203
1629797529943,42510,245661,194205
1629797529953,42497,245639,194213
1629797529963,42508,245669,194230
1629797529973,42509,245630,194177
1629797529983,42491,245583,194172
1629797529993,42489,245570,194148
1629797530003,42477,245567,194151
1629797530013,42472,245534,194142
1629797530023,42465,245569,194141
1629797530033,42468,245540,194156
1629797530043,42459,245546,194182
1629797530053,42467,245525,194198
1629797530063,42459,245562,194208
1629797530073,42451,245522,194177
1629797530083,42453,245554,194202
1629797530093,42444,245491,194180
1629797530103,42453,245487,194193
1629797530113,42462,245531,194279
1629797530123,42478,245550,194326
1629797530133,42500,245618,194415
1629797530143,42516,245676,194482
1629797530153,42536,245683,194561
1629797530163,42541,245698,194602
1629797530173,42560,245665,194618
1629797530183,42572,245720,194654
1629797530193,42575,245711,194700
1629797530203,42584,245703,194700
1629797530213,42587,245750,194727
1629797530223,42609,245803,194813
1629797530233,42615,245781,194851
1629797530243,42636,245848,194907
1629797530253,42653,245910,194960
1629797530263,42654,245930,194963
1629797530273,42642,245837,195002
1629797530283,42670,245920,195007
1629797530293,42660,245907,195022
1629797530303,42672,245957,195070
1629797530313,42687,245969,195111
1629797530323,42683,246001,195152
1629797530333,42701,245971,195169
1629797530343,42706,245983,195158
1629797530353,42696,245978,195169
1629797530363,42696,245976,195152
1629797530373,42692,245953,195155
1629797530383,42699,245947,195147
1629797530393,42699,245929,195174
1629797530403,42704,245947,195179
1629797530413,42706,245971,195172
1629797530423,42691,245935,195208
1629797530433,42709,245939,195208
1629797530443,42709,245941,195183
1629797530453,42700,245933,195180
1629797530463,42699,245913,195195
1629797530473,42707,245932,195167
1629797530483,42700,245941,195169
1629797530493,42703,245909,195176
1629797530503,42700,245906,195165
1629797530513,42699,245888,195159
1629797530523,42696,245897,195145
1629797530533,42701,245874,195140
1629797530543,42681,245858,195099
1629797530553,42682,245853,195076
1629797530563,42676,245822,195084
1629797530573,42670,245856,195059
1629797530583,42679,245833,195059
1629797530593,42666,245816,195058
1629797530603,42671,245834,195050
1629797530613,42671,245831,195060
1629797530623,42666,245853,195048
1629797530633,42664,245783,195051
1629797530643,42658,245812,195000
1629797530653,42655,245761,194997
1629797530663,42658,245763,194966
1629797530673,42645,245753,194908
1629797530683,42639,245775,194888
1629797530693,42639,245705,194887
1629797530703,42639,245756,194871
1629797530713,42644,245746,194872
1629797530723,42639,245772,194894
1629797530733,42641,245745,194891
1629797530743,42632,245766,194853
1629797530753,42628,245726,194849
1629797530763,42614,245731,194846
1629797530773,42605,245700,194805
1629797530783,42589,245674,194783
1629797530793,42594,245644,194774
1629797530803,42570,245628,194765
1629797530813,42569,245616,194767
1629797530823,42551,245602,194782
1629797530833,42547,245604,194770
1629797530843,42532,245585,194746
1629797530853,42526,245612,194714
1629797530863,42519,245556,194721
1629797530873,42505,245511,194710
1629797530883,42493,245473,194691
1629797530893,42488,245504,194685
1629797530903,42481,245484,194706
1629797530913,42468,245461,194698
1629797530923,42462,245489,194704
1629797530933,42459,245477,194726
1629797530943,42444,245499,194705
1629797530953,42446,245462,194716
1629797530963,42435,245433,194728
1629797530973,42430,245447,194697
1629797530983,42426,245443,194681
1629797530993,42418,245426,194694
1629797531003,42419,245410,194690
1629797531013,42413,245417,194710
1629797531023,42419,245427,194714
1629797531033,42421,245439,194722
1629797531043,42409,245423,194698
1629797531053,42405,245407,194708
1629797531063,42394,245393,194687
1629797531073,42391,245355,194664
1629797531083,42387,245348,194598
1629797531093,42384,245329,194624
1629797531103,42384,245329,194655
1629797531113,42389,245377,194695
1629797531123,42397,245439,194699
1629797531133,42401,245403,194731
1629797531143,42401,245454,194748
1629797531153,42401,245414,194722
1629797531163,42400,245405,194715
1629797531173,42399,245372,194676
1629797531183,42396,245431,194698
1629797531193,42393,245380,194699
1629797531203,42397,245423,194740
1629797531213,42405,245441,194721
1629797531223,42405,245430,194739
1629797531233,42412,245459,194752
1629797531243,42408,245456,194764
1629797531253,42409,245441,194722
1629797531263,42414,245455,194742
1629797531273,42409,245461,194759
1629797531283,42416,245467,194763
1629797531293,42414,245468,194767
1629797531303,42419,245505,194784
1629797531313,42404,245477,194753
1629797531323,42419,245494,194762
1629797531333,42416,245473,194757
1629797531343,42414,245524,194745
1629797531353,42421,245497,194745
1629797531363,42412,245516,194749
1629797531373,42419,245524,194752
1629797531383,42420,245485,194749
1629797531393,42421,245520,194738
1629797531403,42433,245564,194766
1629797531413,42419,245527,194745
1629797531423,42411,245554,194748
1629797531433,42428,245542,194738
1629797531443,42430,245553,194769
1629797531453,42427,245577,194753
1629797531463,42429,245551,194749
1629797531473,42435,245605,194750
1629797531483,42434,245591,194746
1629797531493,42427,245602,194752
1629797531503,42434,245625,194750
1629797531513,42432,245619,194758
1629797531523,42427,245588,194763
1629797531533,42415,245576,194743
1629797531543,42408,245542,194719
1629797531553,42402,245507,194683
1629797531563,42385,245539,194708
1629797531573,42374,245499,194698
1629797531583,42361,245490,194680
1629797531593,42349,245469,194693
1629797531603,42342,245460,194698
1629797531613,42342,245479,194704
1629797531623,42327,245502,194717
1629797531633,42319,245436,194708
1629797531643,42317,245415,194716
1629797531653,42308,245412,194690
1629797531663,42299,245414,194705
1629797531673,42297,245378,194733
1629797531683,42282,245407,194708
1629797531693,42282,245384,194741
1629797531703,42262,245372,194728
1629797531713,42271,245371,194730
1629797531723,42258,245380,194743
1629797531733,42252,245332,194742
1629797531743,42263,245345,194743
1629797531753,42252,245339,194757
1629797531763,42249,245349,194756
1629797531773,42253,245339,194786
1629797531783,42249,245358,194797
1629797531793,42255,245349,194755
1629797531803,42251,245365,194781
1629797531813,42248,245308,194803
1629797531823,42253,245336,194785
1629797531833,42248,245316,194810
1629797531843,42248,245327,194795
1629797531853,42241,245321,194798
1629797531863,42249,245329,194802
1629797531873,42252,245346,194796
1629797531883,42243,245348,194824
1629797531893,42244,245359,194798
1629797531903,42252,245310,194824
1629797531913,42242,245348,194801
1629797531923,42248,245320,194811
1629797531933,42251,245371,194815
1629797531943,42246,245338,194813
1629797531953,42251,245335,194829
1629797531963,42253,245347,194820
1629797531973,42256,245327,194838
1629797531983,42253,245363,194838
1629797531993,42251,245338,194814
1629797532003,42257,245328,194820
1629797532013,42260,245333,194817
1629797532023,42251,245337,194797
1629797532033,42258,245326,194812
1629797532043,42256,245303,194776
1629797532053,42255,245333,194793
1629797532063,42259,245318,194784
1629797532073,42251,245323,194776
1629797532083,42254,245345,194780
1629797532093,42261,245364,194787
1629797532103,42255,245366,194785
1629797532113,42255,245339,194752
1629797532123,42260,245349,194741
1629797532133,42256,245389,194742
1629797532143,42264,245362,194757
1629797532153,42262,245385,194756
1629797532163,42260,245398,194778
1629797532173,42264,245416,194785
1629797532183,42268,245441,194805
1629797532193,42270,245442,194787
1629797532203,42265,245459,194793
1629797532213,42280,245470,194803
1629797532223,42271,245458,194782
1629797532233,42265,245443,194744
1629797532243,42270,245438,194744
1629797532253,42272,245460,194719
1629797532263,42274,245441,194724
1629797532273,42274,245415,194683
1629797532283,42270,245435,194671
1629797532293,42261,245408,194634
1629797532303,42249,245364,194582
1629797532313,42227,245347,194539
1629797532323,42225,245320,194496
1629797532333,42214,245292,194522
1629797532343,42199,245250,194510
1629797532353,42192,245277,194497
1629797532363,42202,245277,194541
1629797532373,42182,245283,194559
1629797532383,42179,245295,194548
1629797532393,42174,245272,194554
1629797532403,42163,245253,194559
1629797532413,42150,245252,194544
1629797532423,42160,245240,194548
1629797532433,42157,245250,194582
1629797532443,42143,245237,194585
1629797532453,42140,245208,194562
1629797532463,42131,245181,194568
1629797532473,42137,245197,194567
1629797532483,42135,245178,194566
1629797532493,42128,245192,194606
1629797532503,42130,245228,194608
1629797532513,42128,245201,194634
1629797532523,42128,245202,194621
1629797532533,42129,245208,194646
1629797532543,42126,245219,194633
1629797532553,42116,245217,194652
1629797532563,42130,245223,194666
1629797532573,42129,245226,194686
1629797532583,42130,245175,194676
1629797532593,42140,245216,194671
1629797532603,42137,245218,194694
1629797532613,42135,245218,194690
1629797532623,42137,245217,194718
1629797532633,42140,245207,194729
1629797532643,42137,245208,194682
1629797532653,42142,245244,194719
1629797532663,42142,245253,194684
1629797532673,42152,245211,194708
1629797532683,42153,245225,194707
1629797532693,42142,245240,194725
1629797532703,42154,245243,194720
1629797532713,42150,245248,194718
1629797532723,42159,245253,194716
1629797532733,42160,245264,194734
1629797532743,42166,245275,194742
1629797532753,42164,245265,194755
1629797532763,42173,245249,194756
1629797532773,42183,245272,194784
1629797532783,42183,245272,194765
1629797532793,42192,245284,194772
1629797532803,42192,245308,194798
1629797532813,42195,245295,194796
1629797532823,42199,245330,194810
1629797532833,42198,245340,194798
1629797532843,42206,245334,194817
1629797532853,42195,245340,194818
1629797532863,42215,245338,194803
1629797532873,42216,245353,194789
1629797532883,42222,245360,194804
1629797532893,42216,245362,194804
1629797532903,42230,245371,194811
1629797532913,42229,245365,194800
1629797532923,42238,245352,194782
1629797532933,42243,245397,194795
1629797532943,42241,245386,194799
1629797532953,42243,245423,194807
1629797532963,42258,245391,194839
1629797532973,42263,245437,194807
1629797532983,42264,245390,194818
1629797532993,42261,245443,194834
1629797533003,42273,245450,194839
1629797533013,42283,245442,194852
1629797533023,42277,245440,194830
1629797533033,42278,245430,194843
1629797533043,42294,245460,194832
1629797533053,42294,245458,194831
1629797533063,42306,245498,194826
1629797533073,42308,245488,194837
1629797533083,42311,245490,194830
1629797533093,42309,245504,194844
1629797533103,42315,245512,194842
1629797533113,42327,245515,194851
1629797533123,42325,245527,194842
1629797533133,42325,245548,194823
1629797533143,42324,245546,194836
1629797533153,42325,245519,194820
1629797533163,42316,245546,194809
1629797533173,42301,245503,194796
1629797533183,42296,245470,194793
1629797533193,42295,245481,194786
1629797533203,42284,245473,194791
1629797533213,42290,245513,194814
1629797533223,42294,245515,194805
1629797533233,42285,245470,194802
1629797533243,42278,245468,194793
1629797533253,42274,245463,194803
1629797533263,42276,245492,194802
1629797533273,42279,245474,194812
1629797533283,42281,245477,194817
1629797533293,42280,245492,194832
1629797533303,42277,245479,194842
1629797533313,42274,245492,194850
1629797533323,42278,245444,194846
1629797533333,42266,245457,194838
1629797533343,42273,245468,194855
1629797533353,42270,245469,194838
1629797533363,42258,245468,194840
1629797533373,42274,245486,194887
1629797533383,42274,245493,194880
1629797533393,42284,245495,194895
1629797533403,42285,245484,194911
1629797533413,42288,245509,194896
1629797533423,42295,245524,194915
1629797533433,42290,245508,194879
1629797533443,42286,245513,194904
1629797533453,42294,245502,194870
1629797533463,42298,245504,194861
1629797533473,42290,245504,194866
1629797533483,42305,245488,194900
1629797533493,42303,245514,194846
1629797533503,42306,245517,194895
1629797533513,42310,245507,194913
1629797533523,42314,245502,194908
1629797533533,42311,245525,194910
1629797533543,42316,245559,194881
1629797533553,42321,245524,194904
1629797533563,42319,245563,194886
1629797533573,42327,245537,194904
1629797533583,42327,245544,194907
1629797533593,42323,245541,194895
1629797533603,42335,245540,194919
1629797533613,42334,245570,194896
1629797533623,42341,245546,194902
1629797533633,42349,245539,194902
1629797533643,42351,245577,194890
1629797533653,42351,245599,194883
1629797533663,42350,245587,194911
1629797533673,42362,245571,194891
1629797533683,42364,245574,194890
1629797533693,42366,245585,194899
1629797533703,42365,245599,194886
1629797533713,42368,245590,194879
1629797533723,42369,245612,194866
1629797533733,42371,245582,194863
1629797533743,42383,245605,194845
1629797533753,42382,245616,194872
1629797533763,42385,245632,194843
1629797533773,42391,245617,194847
1629797533783,42397,245567,194859
1629797533793,42393,245576,194842
1629797533803,42396,245611,194824
1629797533813,42383,245593,194802
1629797533823,42402,245555,194819
1629797533833,42410,245593,194799
1629797533843,42409,245564,194790
1629797533853,42410,245577,194779
1629797533863,42413,245553,194768
1629797533873,42419,245552,194772
1629797533883,42424,245615,194783
1629797533893,42427,245578,194775
1629797533903,42427,245557,194756
1629797533913,42433,245599,194753
1629797533923,42438,245577,194748
1629797533933,42430,245553,194733
1629797533943,42433,245564,194712
1629797533953,42435,245565,194701
1629797533963,42433,245550,194704
1629797533973,42432,245511,194700
1629797533983,42414,245534,194716
1629797533993,42426,245545,194697
1629797534003,42422,245558,194681
1629797534013,42422,245478,194700
1629797534023,42420,245508,194712
1629797534033,42426,245527,194715
1629797534043,42414,245509,194720
1629797534053,42419,245473,194719
1629797534063,42414,245513,194737
1629797534073,42423,245509,194767
1629797534083,42419,245510,194757
1629797534093,42427,245513,194769
1629797534103,42420,245501,194762
1629797534113,42416,245481,194749
1629797534123,42419,245488,194776
1629797534133,42434,245514,194819
1629797534143,42471,245609,194962
1629797534153,42496,245676,195080
1629797534163,42511,245743,195152
1629797534173,42536,245735,195182
1629797534183,42547,245754,195220
1629797534193,42544,245738,195181
1629797534203,42548,245761,195184
1629797534213,42563,245742,195217
1629797534223,42567,245810,195242
1629797534233,42571,245830,195282
1629797534243,42594,245842,195316
1629797534253,42607,245903,195391
1629797534263,42626,245955,195458
1629797534273,42649,245985,195532
1629797534283,42659,246080,195586
1629797534293,42683,246163,195663
1629797534303,42685,246154,195706
1629797534313,42707,246205,195719
1629797534323,42713,246248,195773
1629797534333,42725,246233,195761
1629797534343,42718,246221,195755
1629797534353,42720,246258,195745
1629797534363,42726,246224,195769
1629797534373,42731,246260,195766
1629797534383,42739,246283,195779
1629797534393,42746,246289,195792
1629797534403,42752,246315,195848
1629797534413,42754,246309,195842
1629797534423,42763,246353,195859
1629797534433,42775,246356,195861
1629797534443,42771,246336,195897
1629797534453,42781,246402,195899
1629797534463,42786,246393,195943
1629797534473,42810,246402,195982
1629797534483,42792,246476,195981
1629797534493,42797,246506,196000
1629797534503,42809,246475,195979
1629797534513,42799,246445,195967
1629797534523,42796,246450,195906
1629797534533,42782,246445,195881
1629797534543,42774,246395,195848
1629797534553,42778,246379,195839
1629797534563,42778,246370,195822
1629797534573,42770,246395,195812
1629797534583,42769,246399,195799
1629797534593,42771,246405,195805
1629797534603,42774,246403,195795
1629797534613,42768,246418,195749
1629797534623,42764,246385,195720
1629797534633,42758,246381,195695
1629797534643,42748,246339,195658
1629797534653,42756,246350,195649
1629797534663,42763,246340,195642
1629797534673,42756,246328,195623
1629797534683,42753,246369,195609
1629797534693,42761,246351,195614
1629797534703,42757,246382,195631
1629797534713,42764,246362,195640
1629797534723,42759,246387,195613
1629797534733,42767,246394,195617
1629797534743,42772,246392,195616
1629797534753,42775,246478,195619
1629797534763,42769,246444,195614
1629797534773,42778,246429,195625
1629797534783,42767,246430,195594
1629797534793,42765,246432,195575
1629797534803,42762,246450,195573
1629797534813,42739,246420,195575
1629797534823,42723,246393,195546
1629797534833,42739,246422,195562
1629797534843,42736,246373,195538
1629797534853,42731,246427,195542
1629797534863,42732,246409,195549
1629797534873,42731,246416,195569
1629797534883,42734,246419,195580
1629797534893,42721,246421,195572
1629797534903,42724,246416,195567
1629797534913,42732,246442,195608
1629797534923,42744,246473,195661
1629797534933,42761,246518,195692
1629797534943,42780,246521,195754
1629797534953,42784,246594,195809
1629797534963,42796,246654,195851
1629797534973,42798,246617,195850
1629797534983,42813,246663,195863
1629797534993,42815,246632,195918
1629797535003,42831,246684,195950
1629797535013,42842,246741,195989
1629797535023,42853,246752,196069
1629797535033,42867,246811,196112
1629797535043,42883,246817,196144
1629797535053,42893,246908,196175
1629797535063,42904,246876,196179
1629797535073,42906,246899,196202
1629797535083,42915,246936,196225
1629797535093,42916,246924,196267
1629797535103,42920,246954,196275
1629797535113,42931,246980,196296
1629797535123,42944,247006,196298
1629797535133,42950,247049,196340
1629797535143,42948,247065,196356
1629797535153,42959,247067,196386
1629797535163,42963,247087,196393
1629797535173,42974,247042,196381
1629797535183,42964,247099,196390
1629797535193,42965,247047,196387
1629797535203,42967,247061,196382
1629797535213,42966,247057,196353
1629797535223,42964,247055,196336
1629797535233,42963,247045,196345
1629797535243,42971,247053,196368
1629797535253,42971,247100,196373
1629797535263,42975,247120,196393
1629797535273,42974,247111,196398
1629797535283,42978,247077,196341
1629797535293,42966,247083,196346
1629797535303,42969,247049,196294
1629797535313,42962,247018,196295
1629797535323,42968,247043,196306
1629797535333,42962,247026,196261
1629797535343,42956,247021,196259
1629797535353,42950,246995,196222
1629797535363,42940,246969,196180
1629797535373,42928,246904,196148
1629797535383,42924,246888,196120
1629797535393,42917,246873,196073
1629797535403,42912,246888,196069
1629797535413,42908,246820,196034
1629797535423,42896,246853,195989
1629797535433,42893,246802,195930
1629797535443,42888,246767,195882
1629797535453,42873,246719,195857
1629797535463,42867,246737,195809
1629797535473,42871,246732,195786
1629797535483,42869,246710,195797
1629797535493,42861,246691,195777
1629797535503,42860,246687,195779
1629797535513,42865,246702,195743
1629797535523,42859,246652,195737
1629797535533,42858,246667,195727
1629797535543,42860,246673,195719
1629797535553,42857,246645,195699
1629797535563,42860,246686,195685
1629797535573,42864,246649,195660
1629797535583,42854,246648,195629
1629797535593,42849,246622,195627
1629797535603,42836,246652,195597
1629797535613,42840,246633,195580
1629797535623,42838,246624,195567
1629797535633,42838,246596,195567
1629797535643,42829,246559,195501
1629797535653,42823,246546,195467
1629797535663,42808,246547,195436
1629797535673,42800,246493,195431
1629797535683,42790,246430,195404
1629797535693,42788,246474,195371
1629797535703,42769,246440,195371
1629797535713,42761,246424,195328
1629797535723,42752,246367,195280
1629797535733,42732,246375,195255
1629797535743,42723,246358,195248
1629797535753,42713,246342,195208
1629797535763,42713,246341,195217
1629797535773,42711,246329,195192
1629797535783,42692,246310,195173
1629797535793,42690,246286,195157
1629797535803,42679,246288,195120
1629797535813,42663,246276,195074
1629797535823,42646,246236,195048
1629797535833,42636,246235,195025
1629797535843,42633,246231,194993
1629797535853,42627,246242,194973
1629797535863,42616,246174,194949
1629797535873,42607,246171,194910
1629797535883,42601,246155,194893
1629797535893,42596,246167,194843
1629797535903,42583,246133,194806
1629797535913,42577,246086,194777
1629797535923,42561,246088,194712
1629797535933,42554,246068,194689
1629797535943,42554,246092,194674
1629797535953,42557,246146,194717
1629797535963,42561,246136,194701
1629797535973,42561,246136,194677
1629797535983,42548,246048,194640
1629797535993,42540,246024,194582
1629797536003,42530,245993,194557
1629797536013,42530,246007,194546
1629797536023,42524,246046,194573
1629797536033,42531,246029,194581
1629797536043,42530,246074,194558
1629797536053,42522,246024,194534
1629797536063,42521,245980,194509
1629797536073,42514,245994,194482
1629797536083,42519,245995,194500
1629797536093,42522,245984,194479
1629797536103,42533,246046,194493
1629797536113,42526,246015,194487
1629797536123,42521,245957,194456
1629797536133,42524,246011,194442
1629797536143,42543,246033,194513
1629797536153,42564,246092,194550
1629797536163,42587,246134,194620
1629797536173,42601,246191,194652
1629797536183,42613,246185,194705
1629797536193,42632,246192,194714
1629797536203,42636,246225,194751
1629797536213,42642,246235,194746
1629797536223,42647,246240,194759
1629797536233,42658,246261,194771
1629797536243,42684,246285,194804
1629797536253,42689,246314,194856
1629797536263,42702,246317,194862
1629797536273,42711,246345,194909
1629797536283,42716,246355,194910
1629797536293,42738,246423,194958
1629797536303,42746,246431,195007
1629797536313,42759,246446,195026
1629797536323,42764,246473,195056
1629797536333,42774,246466,195049
1629797536343,42775,246484,195054
1629797536353,42783,246495,195083
1629797536363,42787,246490,195093
1629797536373,42799,246536,195105
1629797536383,42799,246523,195115
1629797536393,42814,246541,195135
1629797536403,42811,246547,195134
1629797536413,42827,246568,195131
1629797536423,42831,246579,195150
1629797536433,42842,246615,195189
1629797536443,42854,246657,195229
1629797536453,42858,246690,195258
1629797536463,42860,246631,195228
1629797536473,42863,246638,195214
1629797536483,42863,246626,195222
1629797536493,42855,246660,195215
1629797536503,42861,246655,195212
1629797536513,42848,246654,195215
1629797536523,42840,246625,195172
1629797536533,42835,246634,195159
1629797536543,42828,246602,195122
1629797536553,42815,246541,195126
1629797536563,42810,246548,195114
1629797536573,42805,246530,195111
1629797536583,42801,246529,195094
1629797536593,42791,246501,195087
1629797536603,42785,246457,195053
1629797536613,42782,246464,195050
1629797536623,42767,246504,195038
1629797536633,42764,246495,195013
1629797536643,42755,246488,195016
1629797536653,42751,246466,195057
1629797536663,42749,246476,195052
1629797536673,42753,246490,195080
1629797536683,42758,246529,195118
1629797536693,42762,246520,195094
1629797536703,42750,246528,195105
1629797536713,42748,246543,195128
1629797536723,42747,246527,195106
1629797536733,42733,246502,195106
1629797536743,42736,246507,195108
1629797536753,42727,246505,195132
1629797536763,42755,246623,195194
1629797536773,42772,246675,195316
1629797536783,42782,246764,195385
1629797536793,42793,246856,195473
1629797536803,42805,246898,195500
1629797536813,42809,246865,195516
1629797536823,42814,246879,195527
1629797536833,42810,246849,195530
1629797536843,42813,246861,195552
1629797536853,42817,246912,195576
1629797536863,42816,246923,195590
1629797536873,42816,246899,195587
1629797536883,42814,246868,195554
1629797536893,42806,246812,195494
1629797536903,42800,246760,195455
1629797536913,42803,246731,195430
1629797536923,42800,246761,195467
1629797536933,42812,246769,195496
1629797536943,42828,246825,195565
1629797536953,42846,246857,195619
1629797536963,42864,246905,195658
1629797536973,42871,246905,195714
1629797536983,42889,246943,195768
1629797536993,42896,246977,195801
1629797537003,42904,247034,195849
1629797537013,42925,247042,195890
1629797537023,42931,247094,195958
1629797537033,42950,247149,195991
1629797537043,42952,247153,196011
1629797537053,42963,247129,196040
1629797537063,42956,247153,195998
1629797537073,42954,247075,195952
1629797537083,42941,247031,195886
1629797537093,42949,247024,195853
1629797537103,42943,246941,195813
1629797537113,42932,246860,195706
1629797537123,42920,246757,195580
1629797537133,42895,246623,195467
1629797537143,42874,246453,195316
1629797537153,42852,246352,195190
1629797537163,42842,246200,195055
1629797537173,42807,246109,194961
1629797537183,42812,246075,194904
1629797537193,42808,246063,194860
1629797537203,42807,246065,194866
1629797537213,42826,246052,194871
1629797537223,42828,246042,194910
1629797537233,42844,246106,194932
1629797537243,42857,246160,194967
1629797537253,42880,246203,195036
1629797537263,42879,246259,195093
1629797537273,42896,246305,195123
1629797537283,42910,246364,195175
1629797537293,42921,246418,195225
1629797537303,42927,246455,195257
1629797537313,42929,246489,195295
1629797537323,42925,246485,195305
1629797537333,42923,246530,195327
1629797537343,42921,246509,195308
1629797537353,42918,246510,195343
1629797537363,42910,246516,195390
1629797537373,42918,246547,195383
1629797537383,42903,246509,195368
1629797537393,42883,246436,195306
1629797537403,42862,246371,195236
1629797537413,42845,246302,195164
1629797537423,42823,246227,195097
1629797537433,42811,246152,195040
1629797537443,42795,246105,194991
1629797537453,42775,246040,194934
1629797537463,42756,245985,194894
1629797537473,42741,245937,194845
1629797537483,42729,245894,194805
1629797537493,42712,245872,194779
1629797537503,42701,245845,194764
1629797537513,42695,245850,194744
1629797537523,42688,245845,194761
1629797537533,42688,245812,194769
1629797537543,42685,245853,194798
1629797537553,42679,245839,194787
1629797537563,42670,245875,194824
1629797537573,42669,245872,194831
1629797537583,42680,245962,194859
1629797537593,42686,245977,194893
1629797537603,42682,245991,194880
1629797537613,42672,245996,194880
1629797537623,42654,245977,194808
1629797537633,42643,245882,194760
1629797537643,42615,245859,194686
1629797537653,42601,245804,194561
1629797537663,42585,245746,194506
1629797537673,42572,245699,194461
1629797537683,42556,245654,194420
1629797537693,42553,245654,194386
1629797537703,42551,245629,194379
1629797537713,42548,245649,194405
1629797537723,42559,245679,194467
1629797537733,42592,245755,194542
1629797537743,42606,245780,194640
1629797537753,42627,245899,194696
1629797537763,42642,245889,194736
1629797537773,42644,245951,194779
1629797537783,42654,246005,194826
1629797537793,42662,246023,194871
1629797537803,42681,246090,194877
1629797537813,42688,246151,194965
1629797537823,42696,246207,195014
1629797537833,42723,246250,195090
1629797537843,42731,246267,195135
1629797537853,42734,246318,195167
1629797537863,42752,246373,195174
1629797537873,42752,246377,195194
1629797537883,42765,246387,195233
1629797537893,42780,246415,195268
1629797537903,42783,246440,195290
1629797537913,42798,246447,195314
1629797537923,42802,246479,195334
1629797537933,42818,246518,195378
1629797537943,42835,246578,195474
1629797537953,42857,246637,195520
1629797537963,42868,246680,195535
1629797537973,42868,246680,195574
1629797537983,42881,246699,195577
1629797537993,42880,246722,195587
1629797538003,42885,246774,195565
1629797538013,42886,246747,195595
1629797538023,42892,246776,195589
1629797538033,42889,246780,195551
1629797538043,42895,246768,195552
1629797538053,42889,246738,195546
1629797538063,42888,246740,195509
1629797538073,42885,246692,195478
1629797538083,42885,246691,195453
1629797538093,42888,246631,195426
1629797538103,42888,246578,195385
1629797538113,42885,246584,195358
1629797538123,42891,246529,195320
1629797538133,42888,246528,195320
1629797538143,42888,246539,195278
1629797538153,42891,246527,195316
1629797538163,42886,246490,195306
1629797538173,42879,246479,195299
1629797538183,42875,246503,195327
1629797538193,42868,246494,195308
1629797538203,42875,246490,195359
1629797538213,42870,246534,195375
1629797538223,42864,246526,195433
1629797538233,42870,246519,195463
1629797538243,42856,246581,195501
1629797538253,42861,246563,195512
1629797538263,42857,246550,195525
1629797538273,42843,246496,195509
1629797538283,42827,246508,195506
1629797538293,42823,246438,195483
1629797538303,42810,246413,195423
1629797538313,42803,246341,195439
1629797538323,42788,246349,195422
1629797538333,42776,246300,195403
1629797538343,42777,246261,195392
1629797538353,42758,246252,195391
1629797538363,42751,246253,195393
1629797538373,42748,246233,195373
1629797538383,42740,246244,195384
1629797538393,42749,246205,195379
1629797538403,42741,246215,195385
1629797538413,42737,246196,195426
1629797538423,42738,246199,195421
1629797538433,42727,246186,195421
1629797538443,42717,246205,195390
1629797538453,42710,246151,195372
1629797538463,42700,246126,195335
1629797538473,42687,246095,195310
1629797538483,42671,246065,195264
1629797538493,42659,246030,195234
1629797538503,42644,245992,195187
1629797538513,42645,245976,195146
1629797538523,42633,245970,195124
1629797538533,42614,245894,195112
1629797538543,42613,245925,195091
1629797538553,42603,245909,195098
1629797538563,42598,245889,195041
1629797538573,42594,245892,195025
1629797538583,42588,245892,195029
1629797538593,42583,245884,195027
1629797538603,42577,245866,195009
1629797538613,42573,245859,195004
1629797538623,42576,245840,195014
1629797538633,42566,245876,195006
1629797538643,42574,245865,195017
1629797538653,42573,245889,195027
1629797538663,42563,245884,195009
1629797538673,42568,245903,195013
1629797538683,42570,245906,195001
1629797538693,42554,245889,194989
1629797538703,42558,245911,194964
1629797538713,42560,245873,194955
1629797538723,42552,245879,194939
1629797538733,42549,245902,194939
1629797538743,42560,245875,194947
1629797538753,42551,245882,194933
1629797538763,42553,245835,194950
1629797538773,42561,245887,194947
1629797538783,42557,245893,194926
1629797538793,42560,245872,194935
1629797538803,42563,245906,194959
1629797538813,42564,245943,194943
1629797538823,42595,245983,195017
1629797538833,42601,246007,195082
1629797538843,42616,246091,195159
1629797538853,42634,246145,195191
1629797538863,42652,246142,195209
1629797538873,42660,246158,195251
1629797538883,42666,246168,195264
1629797538893,42675,246189,195281
1629797538903,42679,246224,195298
1629797538913,42700,246247,195367
1629797538923,42709,246282,195364
1629797538933,42725,246303,195418
1629797538943,42739,246326,195432
1629797538953,42755,246368,195466
1629797538963,42760,246396,195492
1629797538973,42763,246418,195511
1629797538983,42771,246420,195550
1629797538993,42787,246451,195581
1629797539003,42795,246501,195576
1629797539013,42796,246527,195608
1629797539023,42805,246519,195607
1629797539033,42806,246523,195636
1629797539043,42810,246489,195629
1629797539053,42803,246547,195630
1629797539063,42800,246524,195631
1629797539073,42787,246487,195627
1629797539083,42783,246530,195671
1629797539093,42777,246486,195671
1629797539103,42768,246468,195655
1629797539113,42761,246455,195684
1629797539123,42759,246424,195683
1629797539133,42750,246416,195685
1629797539143,42742,246409,195702
1629797539153,42741,246446,195670
1629797539163,42741,246432,195692
1629797539173,42737,246415,195699
1629797539183,42736,246420,195701
1629797539193,42717,246386,195682
1629797539203,42707,246304,195677
1629797539213,42698,246331,195664
1629797539223,42693,246292,195638
1629797539233,42678,246290,195626
1629797539243,42682,246255,195631
1629797539253,42673,246244,195622
1629797539263,42672,246252,195601
1629797539273,42661,246191,195591
1629797539283,42654,246168,195575
1629797539293,42642,246189,195550
1629797539303,42639,246182,195544
1629797539313,42632,246127,195501
1629797539323,42622,246152,195508
1629797539333,42631,246153,195547
1629797539343,42631,246134,195548
1629797539353,42631,246165,195553
1629797539363,42630,246159,195567
1629797539373,42618,246158,195582
1629797539383,42614,246164,195578
1629797539393,42613,246140,195584
1629797539403,42613,246187,195621
1629797539413,42619,246194,195636
1629797539423,42615,246144,195648
1629797539433,42614,246225,195668
1629797539443,42617,246203,195685
1629797539453,42615,246238,195682
1629797539463,42605,246193,195677
1629797539473,42598,246203,195705
1629797539483,42606,246248,195702
1629797539493,42607,246239,195705
1629797539503,42606,246230,195713
1629797539513,42601,246214,195678
1629797539523,42589,246173,195656
1629797539533,42586,246168,195632
1629797539543,42578,246193,195637
1629797539553,42581,246165,195622
1629797539563,42571,246182,195613
1629797539573,42578,246179,195621
1629797539583,42574,246199,195614
1629797539593,42574,246173,195644
1629797539603,42576,246218,195631
1629797539613,42565,246214,195621
1629797539623,42567,246178,195575
1629797539633,42562,246175,195545
1629797539643,42546,246157,195521
1629797539653,42542,246143,195494
1629797539663,42545,246188,195484
1629797539673,42543,246169,195482
1629797539683,42548,246184,195522
1629797539693,42551,246208,195535
1629797539703,42549,246208,195516
1629797539713,42554,246196,195494
1629797539723,42551,246189,195465
1629797539733,42551,246188,195469
1629797539743,42540,246162,195411
1629797539753,42536,246149,195364
1629797539763,42536,246099,195354
1629797539773,42534,246136,195335
1629797539783,42533,246160,195325
1629797539793,42538,246134,195306
1629797539803,42549,246151,195359
1629797539813,42552,246216,195402
1629797539823,42581,246277,195453
1629797539833,42608,246321,195499
1629797539843,42620,246326,195576
1629797539853,42635,246396,195603
1629797539863,42645,246405,195591
1629797539873,42651,246420,195617
1629797539883,42640,246436,195629
1629797539893,42625,246394,195556
1629797539903,42620,246328,195596
1629797539913,42600,246308,195554
1629797539923,42588,246278,195538
1629797539933,42580,246280,195531
1629797539943,42573,246303,195522
1629797539953,42563,246299,195526
1629797539963,42560,246227,195535
1629797539973,42555,246241,195548
1629797539983,42544,246241,195543
1629797539993,42547,246217,195534
1629797540003,42534,246228,195544
1629797540013,42522,246223,195521
1629797540023,42518,246190,195519
1629797540033,42508,246219,195501
1629797540043,42499,246186,195494
1629797540053,42498,246193,195517
1629797540063,42491,246164,195511
1629797540073,42479,246171,195507
1629797540083,42478,246165,195528
1629797540093,42475,246156,195535
1629797540103,42468,246198,195546
1629797540113,42476,246174,195551
1629797540123,42474,246145,195540
1629797540133,42462,246178,195548
1629797540143,42460,246185,195541
1629797540153,42463,246175,195515
1629797540163,42450,246155,195530
1629797540173,42455,246137,195498
1629797540183,42453,246128,195489
1629797540193,42445,246090,195480
1629797540203,42441,246086,195445
1629797540213,42440,246057,195455
1629797540223,42435,246059,195453
1629797540233,42440,246015,195423
1629797540243,42445,246051,195462
1629797540253,42444,246055,195476
1629797540263,42442,246030,195481
1629797540273,42442,246085,195491
1629797540283,42449,246083,195504
1629797540293,42446,246100,195489
1629797540303,42441,246085,195470
1629797540313,42438,246072,195484
1629797540323,42446,246075,195468
1629797540333,42445,246071,195470
1629797540343,42453,246066,195463
1629797540353,42450,246109,195487
1629797540363,42459,246102,195525
1629797540373,42462,246135,195522
1629797540383,42462,246154,195536
1629797540393,42473,246165,195546
1629797540403,42477,246166,195538
1629797540413,42478,246184,195566
1629797540423,42483,246216,195598
1629797540433,42485,246187,195592
1629797540443,42492,246214,195627
1629797540453,42495,246246,195622
1629797540463,42497,246240,195623
1629797540473,42490,246219,195593
1629797540483,42505,246224,195596
1629797540493,42505,246229,195608
1629797540503,42508,246254,195599
1629797540513,42508,246269,195596
1629797540523,42517,246235,195604
1629797540533,42514,246271,195644
1629797540543,42522,246270,195620
1629797540553,42524,246302,195627
1629797540563,42523,246247,195648
1629797540573,42526,246262,195622
1629797540583,42528,246278,195610
1629797540593,42535,246266,195592
1629797540603,42535,246241,195592
1629797540613,42529,246253,195577
1629797540623,42534,246236,195560
1629797540633,42542,246228,195562
1629797540643,42542,246268,195542
1629797540653,42540,246222,195544
1629797540663,42540,246226,195525
1629797540673,42528,246225,195494
1629797540683,42523,246175,195479
1629797540693,42515,246142,195442
1629797540703,42494,246096,195401
1629797540713,42483,246017,195384
1629797540723,42476,246002,195358
1629797540733,42472,246010,195350
1629797540743,42463,246000,195386
1629797540753,42454,245989,195359
1629797540763,42442,245985,195345
1629797540773,42450,245957,195359
1629797540783,42435,245975,195322
1629797540793,42439,245917,195311
1629797540803,42430,245908,195313
1629797540813,42427,245903,195294
1629797540823,42415,245882,195311
1629797540833,42411,245912,195314
1629797540843,42408,245945,195318
1629797540853,42396,245934,195300
1629797540863,42406,245914,195316
1629797540873,42400,245911,195308
1629797540883,42393,245943,195316
1629797540893,42400,245945,195326
1629797540903,42401,245914,195327
1629797540913,42404,245917,195342
1629797540923,42392,245925,195335
1629797540933,42405,245931,195305
1629797540943,42387,245923,195319
1629797540953,42402,245947,195326
1629797540963,42386,245900,195309
1629797540973,42388,245909,195262
1629797540983,42392,245897,195263
1629797540993,42386,245937,195250
1629797541003,42382,245886,195221
1629797541013,42379,245872,195185
1629797541023,42385,245819,195203
1629797541033,42379,245802,195193
1629797541043,42379,245870,195188
1629797541053,42379,245858,195148
1629797541063,42381,245807,195152
1629797541073,42378,245845,195147
1629797541083,42377,245832,195125
1629797541093,42375,245834,195107
1629797541103,42379,245812,195099
1629797541113,42367,245797,195099
1629797541123,42379,245793,195111
1629797541133,42383,245843,195066
1629797541143,42387,245775,195064
1629797541153,42383,245798,195074
1629797541163,42384,245787,195063
1629797541173,42385,245778,195045
1629797541183,42395,245841,195047
1629797541193,42401,245822,195030
1629797541203,42402,245823,195025
1629797541213,42403,245851,195038
1629797541223,42411,245803,195032
1629797541233,42413,245835,194998
1629797541243,42415,245831,194990
1629797541253,42418,245844,195020
1629797541263,42414,245844,195009
1629797541273,42416,245833,195013
1629797541283,42434,245841,194988
1629797541293,42431,245830,194973
1629797541303,42427,245806,194942
1629797541313,42424,245794,194923
1629797541323,42423,245793,194893
1629797541333,42427,245732,194898
1629797541343,42431,245798,194905
1629797541353,42431,245781,194912
1629797541363,42440,245817,194930
1629797541373,42445,245816,194916
1629797541383,42442,245832,194896
1629797541393,42446,245795,194894
1629797541403,42448,245793,194887
1629797541413,42464,245797,194904
1629797541423,42465,245801,194911
1629797541433,42465,245839,194913
1629797541443,42475,245842,194881
1629797541453,42477,245859,194906
1629797541463,42476,245838,194916
1629797541473,42486,245861,194943
1629797541483,42492,245904,194935
1629797541493,42490,245885,194936
1629797541503,42500,245919,194941
1629797541513,42505,245957,194942
1629797541523,42511,245935,194928
1629797541533,42514,245920,194927
1629797541543,42510,245947,194922
1629797541553,42514,245947,194907
1629797541563,42515,245971,194902
1629797541573,42514,245932,194887
1629797541583,42503,245933,194870
1629797541593,42483,245861,194814
1629797541603,42488,245854,194819
1629797541613,42461,245820,194770
1629797541623,42441,245756,194722
1629797541633,42437,245704,194694
1629797541643,42428,245681,194661
1629797541653,42410,245627,194603
1629797541663,42407,245638,194603
1629797541673,42398,245631,194623
1629797541683,42401,245630,194601
1629797541693,42397,245633,194590
1629797541703,42386,245591,194580
1629797541713,42380,245563,194544
1629797541723,42370,245523,194536
1629797541733,42371,245508,194503
1629797541743,42356,245528,194498
1629797541753,42355,245525,194501
1629797541763,42353,245484,194489
1629797541773,42356,245455,194481
1629797541783,42357,245449,194471
1629797541793,42343,245439,194461
1629797541803,42352,245422,194464
1629797541813,42348,245421,194467
1629797541823,42346,245412,194440
1629797541833,42345,245396,194462
1629797541843,42356,245406,194480
1629797541853,42352,245438,194455
1629797541863,42359,245445,194465
1629797541873,42355,245443,194475
1629797541883,42356,245447,194491
1629797541893,42353,245427,194491
1629797541903,42365,245436,194481
1629797541913,42361,245429,194497
1629797541923,42360,245412,194482
1629797541933,42356,245409,194446
1629797541943,42357,245406,194459
1629797541953,42360,245418,194453
1629797541963,42365,245391,194454
1629797541973,42371,245392,194477
1629797541983,42367,245400,194437
1629797541993,42373,245387,194454
1629797542003,42365,245440,194460
1629797542013,42377,245396,194445
1629797542023,42374,245419,194423
1629797542033,42379,245412,194451
1629797542043,42377,245423,194457
1629797542053,42384,245408,194436
1629797542063,42388,245415,194444
1629797542073,42380,245439,194419
1629797542083,42392,245405,194421
1629797542093,42387,245411,194424
1629797542103,42398,245427,194400
1629797542113,42408,245445,194448
1629797542123,42409,245430,194404
1629797542133,42416,245467,194438
1629797542143,42410,245458,194422
1629797542153,42419,245476,194419
1629797542163,42422,245486,194413
1629797542173,42423,245492,194436
1629797542183,42426,245498,194429
1629797542193,42431,245481,194429
1629797542203,42434,245518,194433
1629797542213,42443,245483,194445
1629797542223,42454,245487,194436
1629797542233,42451,245497,194423
1629797542243,42457,245516,194433
1629797542253,42454,245539,194425
1629797542263,42454,245546,194416
1629797542273,42444,245546,194442
1629797542283,42465,245589,194442
1629797542293,42472,245558,194441
1629797542303,42477,245561,194427
1629797542313,42472,245585,194425
1629797542323,42476,245572,194417
1629797542333,42482,245564,194434
1629797542343,42487,245604,194415
1629797542353,42494,245581,194420
1629797542363,42499,245617,194427
1629797542373,42501,245599,194420
1629797542383,42506,245638,194410
1629797542393,42509,245645,194410
1629797542403,42513,245645,194439
1629797542413,42522,245663,194436
1629797542423,42525,245644,194405
1629797542433,42534,245672,194391
1629797542443,42528,245651,194415
1629797542453,42532,245673,194392
1629797542463,42527,245662,194380
1629797542473,42524,245641,194370
1629797542483,42528,245640,194349
1629797542493,42509,245623,194343
1629797542503,42510,245604,194322
1629797542513,42508,245592,194321
1629797542523,42492,245592,194325
1629797542533,42494,245570,194332
1629797542543,42489,245581,194327
1629797542553,42487,245577,194343
1629797542563,42487,245586,194332
1629797542573,42477,245567,194328
1629797542583,42471,245578,194352
1629797542593,42479,245570,194352
1629797542603,42471,245553,194342
1629797542613,42473,245547,194342
1629797542623,42466,245563,194341
1629797542633,42462,245534,194344
1629797542643,42469,245565,194359
1629797542653,42471,245537,194364
1629797542663,42458,245529,194349
1629797542673,42449,245518,194325
1629797542683,42453,245518,194329
1629797542693,42448,245541,194331
1629797542703,42448,245553,194339
1629797542713,42455,245535,194343
1629797542723,42442,245550,194313
1629797542733,42445,245523,194343
1629797542743,42453,245544,194345
1629797542753,42454,245555,194325
1629797542763,42455,245528,194329
1629797542773,42457,245522,194324
1629797542783,42454,245536,194343
1629797542793,42452,245553,194337
1629797542803,42455,245553,194325
1629797542813,42450,245517,194315
1629797542823,42447,245542,194315
1629797542833,42452,245577,194340
1629797542843,42460,245570,194359
1629797542853,42444,245549,194347
1629797542863,42458,245551,194337
1629797542873,42463,245555,194347
1629797542883,42445,245587,194350
1629797542893,42460,245546,194348
1629797542903,42459,245566,194350
1629797542913,42463,245565,194327
1629797542923,42456,245583,194342
1629797542933,42462,245577,194316
1629797542943,42463,245603,194325
1629797542953,42469,245582,194343
1629797542963,42466,245563,194326
1629797542973,42471,245555,194330
1629797542983,42475,245559,194339
1629797542993,42469,245572,194319
1629797543003,42481,245613,194333
1629797543013,42481,245623,194320
1629797543023,42483,245617,194342
1629797543033,42484,245620,194341
1629797543043,42470,245567,194320
1629797543053,42482,245625,194322
1629797543063,42494,245635,194319
1629797543073,42487,245620,194342
1629797543083,42495,245623,194317
1629797543093,42496,245644,194332
1629797543103,42492,245629,194317
1629797543113,42500,245614,194307
1629797543123,42494,245622,194326
1629797543133,42502,245662,194290
1629797543143,42501,245633,194304
1629797543153,42506,245641,194294
1629797543163,42504,245683,194301
1629797543173,42507,245659,194305
1629797543183,42510,245654,194320
1629797543193,42509,245633,194284
1629797543203,42517,245638,194291
1629797543213,42511,245700,194280
1629797543223,42510,245714,194303
1629797543233,42514,245663,194289
1629797543243,42526,245667,194270
1629797543253,42520,245728,194284
1629797543263,42523,245704,194267
1629797543273,42524,245728,194268
1629797543283,42530,245706,194267
1629797543293,42532,245714,194260
1629797543303,42532,245697,194254
1629797543313,42530,245684,194246
1629797543323,42527,245700,194246
1629797543333,42526,245673,194222
1629797543343,42508,245680,194191
1629797543353,42503,245678,194184
1629797543363,42510,245629,194175
1629797543373,42485,245614,194149
1629797543383,42476,245601,194173
1629797543393,42478,245576,194166
1629797543403,42456,245590,194165
1629797543413,42461,245559,194169
1629797543423,42453,245552,194157
1629797543433,42446,245575,194127
1629797543443,42437,245548,194105
1629797543453,42437,245518,194144
1629797543463,42423,245518,194137
1629797543473,42416,245522,194109
1629797543483,42408,245475,194118
1629797543493,42404,245482,194103
1629797543503,42391,245506,194094
1629797543513,42391,245464,194092
1629797543523,42388,245440,194109
1629797543533,42376,245418,194109
1629797543543,42381,245453,194109
1629797543553,42362,245430,194122
1629797543563,42361,245452,194088
1629797543573,42366,245435,194108
1629797543583,42357,245443,194123
1629797543593,42367,245394,194107
1629797543603,42367,245407,194081
1629797543613,42357,245410,194101
1629797543623,42354,245416,194092
1629797543633,42348,245419,194109
1629797543643,42359,245425,194115
1629797543653,42350,245427,194091
1629797543663,42347,245407,194120
1629797543673,42347,245398,194087
1629797543683,42355,245429,194092
1629797543693,42342,245384,194111
1629797543703,42344,245432,194115
1629797543713,42351,245401,194103
1629797543723,42337,245418,194108
1629797543733,42337,245416,194113
1629797543743,42344,245439,194115
1629797543753,42342,245436,194110
1629797543763,42336,245407,194099
1629797543773,42340,245387,194102
1629797543783,42340,245411,194108
1629797543793,42343,245407,194105
1629797543803,42341,245428,194119
1629797543813,42337,245423,194125
1629797543823,42347,245420,194128
1629797543833,42345,245424,194137
1629797543843,42347,245446,194131
1629797543853,42350,245415,194115
1629797543863,42338,245463,194116
1629797543873,42346,245425,194122
1629797543883,42358,245459,194129
1629797543893,42346,245459,194131
1629797543903,42349,245463,194111
1629797543913,42353,245470,194124
1629797543923,42351,245491,194133
1629797543933,42357,245472,194136
1629797543943,42356,245480,194131
1629797543953,42355,245475,194098
1629797543963,42355,245445,194128
1629797543973,42361,245501,194115
1629797543983,42366,245440,194116
1629797543993,42363,245492,194120
1629797544003,42366,245494,194119
1629797544013,42365,245475,194105
1629797544023,42366,245517,194128
1629797544033,42370,245483,194107
1629797544043,42367,245518,194130
1629797544053,42378,245508,194129
1629797544063,42372,245501,194098
1629797544073,42376,245517,194120
1629797544083,42379,245528,194121
1629797544093,42386,245489,194131
1629797544103,42383,245518,194089
1629797544113,42392,245554,194109
1629797544123,42391,245545,194121
1629797544133,42393,245536,194113
1629797544143,42390,245527,194099
1629797544153,42391,245519,194090
1629797544163,42389,245518,194088
1629797544173,42393,245544,194082
1629797544183,42387,245511,194053
1629797544193,42384,245502,194039
1629797544203,42372,245461,194027
1629797544213,42361,245464,194004
1629797544223,42352,245431,194006
1629797544233,42344,245414,194017
1629797544243,42336,245421,194014
1629797544253,42327,245391,193998
1629797544263,42316,245436,194020
1629797544273,42310,245389,194003
1629797544283,42302,245397,194014
1629797544293,42294,245368,193992
1629797544303,42289,245384,194005
1629797544313,42278,245361,193969
1629797544323,42266,245331,194001
1629797544333,42262,245319,193997
1629797544343,42262,245317,193980
1629797544353,42251,245284,193984
1629797544363,42239,245309,193980
1629797544373,42241,245277,193995
1629797544383,42237,245270,194010
1629797544393,42227,245274,194010
1629797544403,42220,245258,194017
1629797544413,42215,245239,193991
1629797544423,42211,245255,194030
1629797544433,42210,245229,194021
1629797544443,42203,245233,194026
1629797544453,42205,245245,194050
1629797544463,42206,245253,194058
1629797544473,42207,245269,194033
1629797544483,42202,245243,194051
1629797544493,42203,245270,194047
1629797544503,42196,245239,194058
1629797544513,42202,245299,194066
1629797544523,42196,245250,194057
1629797544533,42197,245250,194064
1629797544543,42198,245200,194074
1629797544553,42191,245272,194053
1629797544563,42191,245261,194048
1629797544573,42196,245238,194076
1629797544583,42194,245209,194092
1629797544593,42192,245228,194087
1629797544603,42195,245244,194106
1629797544613,42195,245234,194077
1629797544623,42195,245228,194090
1629797544633,42192,245237,194097
1629797544643,42198,245246,194108
1629797544653,42198,245265,194092
1629797544663,42193,245244,194097
1629797544673,42207,245272,194123
1629797544683,42200,245279,194113
1629797544693,42203,245247,194091
1629797544703,42202,245259,194110
1629797544713,42201,245287,194102
1629797544723,42205,245248,194110
1629797544733,42210,245268,194128
1629797544743,42208,245267,194104
1629797544753,42200,245254,194122
1629797544763,42212,245263,194129
1629797544773,42210,245293,194123
1629797544783,42211,245299,194148
1629797544793,42221,245289,194133
1629797544803,42219,245274,194130
1629797544813,42230,245304,194153
1629797544823,42217,245297,194125
1629797544833,42219,245304,194158
1629797544843,42226,245318,194147
1629797544853,42230,245309,194152
1629797544863,42223,245308,194143
1629797544873,42233,245335,194136
1629797544883,42235,245310,194159
1629797544893,42239,245344,194139
1629797544903,42237,245331,194146
1629797544913,42241,245366,194121
1629797544923,42240,245359,194141
1629797544933,42244,245344,194152
1629797544943,42245,245373,194140
1629797544953,42248,245343,194127
1629797544963,42251,245369,194145
1629797544973,42245,245381,194162
1629797544983,42244,245402,194140
1629797544993,42258,245364,194145
1629797545003,42265,245387,194154
1629797545013,42265,245393,194126
1629797545023,42262,245400,194145
1629797545033,42265,245390,194151
1629797545043,42262,245442,194122
1629797545053,42262,245429,194135
1629797545063,42271,245407,194127
1629797545073,42266,245401,194131
1629797545083,42256,245419,194116
1629797545093,42253,245414,194092
1629797545103,42247,245383,194098
1629797545113,42226,245376,194064
1629797545123,42220,245358,194081
1629797545133,42204,245297,194043
1629797545143,42196,245303,194069
1629797545153,42195,245305,194065
1629797545163,42183,245325,194077
1629797545173,42170,245313,194087
1629797545183,42167,245287,194073
1629797545193,42159,245263,194078
1629797545203,42149,245291,194106
1629797545213,42139,245210,194089
1629797545223,42138,245263,194086
1629797545233,42128,245231,194081
1629797545243,42115,245213,194103
1629797545253,42115,245206,194084
1629797545263,42107,245186,194070
1629797545273,42094,245147,194083
1629797545283,42085,245132,194087
1629797545293,42075,245163,194084
1629797545303,42073,245138,194104
1629797545313,42069,245119,194090
1629797545323,42070,245127,194109
1629797545333,42069,245155,194102
1629797545343,42070,245145,194132
1629797545353,42069,245127,194147
1629797545363,42062,245158,194162
1629797545373,42059,245148,194133
1629797545383,42061,245140,194152
1629797545393,42060,245086,194171
1629797545403,42056,245133,194167
1629797545413,42054,245113,194180
1629797545423,42062,245103,194182
1629797545433,42048,245158,194181
1629797545443,42058,245159,194198
1629797545453,42059,245129,194218
1629797545463,42059,245188,194227
1629797545473,42070,245130,194224
1629797545483,42056,245146,194249
1629797545493,42052,245136,194228
1629797545503,42059,245136,194236
1629797545513,42054,245138,194260
1629797545523,42055,245171,194237
1629797545533,42059,245144,194256
1629797545543,42062,245130,194269
1629797545553,42064,245149,194276
1629797545563,42058,245192,194251
1629797545573,42065,245146,194290
1629797545583,42071,245128,194273
1629797545593,42065,245178,194284
1629797545603,42070,245168,194301
1629797545613,42072,245173,194272
1629797545623,42064,245152,194296
1629797545633,42081,245206,194297
1629797545643,42082,245223,194278
1629797545653,42065,245217,194313
1629797545663,42078,245188,194292
1629797545673,42086,245171,194311
1629797545683,42089,245202,194317
1629797545693,42090,245221,194341
1629797545703,42091,245181,194303
1629797545713,42091,245209,194333
1629797545723,42095,245212,194307
1629797545733,42098,245234,194348
1629797545743,42093,245243,194346
1629797545753,42101,245225,194328
1629797545763,42103,245241,194340
1629797545773,42110,245227,194327
1629797545783,42103,245237,194314
1629797545793,42115,245251,194338
1629797545803,42116,245238,194299
1629797545813,42121,245283,194336
1629797545823,42117,245277,194329
1629797545833,42124,245274,194338
1629797545843,42124,245266,194357
1629797545853,42131,245292,194338
1629797545863,42135,245313,194356
1629797545873,42136,245292,194337
1629797545883,42134,245293,194330
1629797545893,42138,245298,194361
1629797545903,42141,245316,194367
1629797545913,42147,245323,194338
1629797545923,42147,245300,194341
1629797545933,42154,245331,194349
1629797545943,42149,245318,194343
1629797545953,42150,245323,194358
1629797545963,42149,245382,194350
1629797545973,42172,245341,194365
1629797545983,42176,245373,194347
1629797545993,42168,245374,194354
1629797546003,42165,245378,194357
1629797546013,42167,245369,194338
1629797546023,42170,245352,194359
1629797546033,42163,245397,194350
1629797546043,42156,245332,194286
1629797546053,42147,245292,194286
1629797546063,42135,245291,194293
1629797546073,42123,245298,194299
1629797546083,42122,245290,194290
1629797546093,42108,245278,194284
1629797546103,42103,245261,194291
1629797546113,42083,245244,194279
1629797546123,42086,245261,194290
1629797546133,42069,245229,194302
1629797546143,42076,245185,194326
1629797546153,42074,245216,194316
1629797546163,42056,245202,194304
1629797546173,42054,245190,194302
1629797546183,42045,245142,194329
1629797546193,42041,245132,194331
1629797546203,42033,245137,194336
1629797546213,42031,245164,194337
1629797546223,42025,245142,194337
1629797546233,42019,245127,194346
1629797546243,42020,245119,194327
1629797546253,42010,245113,194331
1629797546263,42007,245136,194345
1629797546273,42002,245115,194378
1629797546283,41997,245126,194374
1629797546293,41998,245118,194403
1629797546303,41999,245098,194403
1629797546313,42003,245095,194417
1629797546323,42004,245112,194397
1629797546333,42003,245131,194415
1629797546343,42005,245115,194410
1629797546353,42005,245108,194418
1629797546363,41999,245126,194416
1629797546373,42002,245111,194446
1629797546383,42007,245106,194451
1629797546393,42002,245100,194465
1629797546403,42009,245134,194463
1629797546413,42013,245152,194476
1629797546423,42009,245117,194489
1629797546433,42015,245128,194440
1629797546443,42017,245111,194487
1629797546453,42006,245155,194477
1629797546463,42017,245149,194488
1629797546473,42016,245158,194501
1629797546483,42019,245175,194503
1629797546493,42019,245157,194507
1629797546503,42020,245119,194537
1629797546513,42029,245183,194522
1629797546523,42029,245152,194520
1629797546533,42037,245175,194544
1629797546543,42033,245190,194519
1629797546553,42038,245174,194545
1629797546563,42042,245183,194519
1629797546573,42042,245191,194531
1629797546583,42046,245195,194550
1629797546593,42058,245202,194557
1629797546603,42053,245199,194551
1629797546613,42050,245201,194541
1629797546623,42057,245221,194564
1629797546633,42053,245226,194572
1629797546643,42064,245207,194568
1629797546653,42068,245244,194558
1629797546663,42072,245237,194555
1629797546673,42073,245233,194574
1629797546683,42076,245255,194565
1629797546693,42088,245239,194585
1629797546703,42080,245282,194574
1629797546713,42092,245272,194575
1629797546723,42090,245247,194572
1629797546733,42098,245261,194577
1629797546743,42095,245276,194586
1629797546753,42108,245270,194595
1629797546763,42096,245293,194558
1629797546773,42102,245282,194584
1629797546783,42104,245301,194593
1629797546793,42112,245290,194590
1629797546803,42123,245305,194587
1629797546813,42116,245309,194596
1629797546823,42120,245317,194582
1629797546833,42128,245325,194587
1629797546843,42127,245335,194590
1629797546853,42139,245342,194600
1629797546863,42138,245342,194581
1629797546873,42142,245346,194606
1629797546883,42147,245369,194603
1629797546893,42149,245399,194583
1629797546903,42151,245389,194592
1629797546913,42163,245382,194583
1629797546923,42155,245421,194587
1629797546933,42156,245383,194598
1629797546943,42172,245366,194616
1629797546953,42171,245375,194603
1629797546963,42167,245350,194593
1629797546973,42176,245366,194563
1629797546983,42161,245364,194560
1629797546993,42155,245354,194547
1629797547003,42142,245354,194539
1629797547013,42139,245325,194497
1629797547023,42127,245323,194517
1629797547033,42120,245328,194521
1629797547043,42111,245318,194516
1629797547053,42110,245268,194526
1629797547063,42106,245305,194522
1629797547073,42103,245309,194518
1629797547083,42088,245266,194519
1629797547093,42082,245277,194513
1629797547103,42088,245259,194494
1629797547113,42080,245220,194521
1629797547123,42075,245239,194536
1629797547133,42071,245212,194523
1629797547143,42068,245212,194537
1629797547153,42067,245246,194538
1629797547163,42066,245198,194520
1629797547173,42064,245203,194560
1629797547183,42050,245211,194529
1629797547193,42057,245189,194547
1629797547203,42045,245185,194551
1629797547213,42045,245169,194561
1629797547223,42043,245171,194558
1629797547233,42046,245217,194591
1629797547243,42052,245155,194591
1629797547253,42064,245205,194591
1629797547263,42062,245175,194573
1629797547273,42066,245209,194589
1629797547283,42061,245191,194587
1629797547293,42061,245171,194591
1629797547303,42060,245178,194602
1629797547313,42057,245200,194598
1629797547323,42060,245197,194600
1629797547333,42057,245229,194615
1629797547343,42065,245213,194620
1629797547353,42063,245190,194631
1629797547363,42064,245225,194635
1629797547373,42074,245260,194634
1629797547383,42074,245210,194625
1629797547393,42073,245190,194647
1629797547403,42068,245218,194637
1629797547413,42079,245238,194640
1629797547423,42084,245235,194665
1629797547433,42091,245212,194643
1629797547443,42095,245193,194648
1629797547453,42082,245240,194656
1629797547463,42096,245253,194646
1629797547473,42097,245201,194653
1629797547483,42102,245231,194661
1629797547493,42101,245261,194671
1629797547503,42101,245241,194652
1629797547513,42112,245242,194646
1629797547523,42117,245237,194654
1629797547533,42122,245277,194679
1629797547543,42111,245244,194675
1629797547553,42129,245248,194691
1629797547563,42120,245284,194670
1629797547573,42128,245262,194703
1629797547583,42130,245246,194674
1629797547593,42134,245263,194662
1629797547603,42146,245314,194672
1629797547613,42136,245278,194663
1629797547623,42157,245331,194687
1629797547633,42151,245299,194690
1629797547643,42157,245339,194668
1629797547653,42159,245344,194664
1629797547663,42163,245314,194687
1629797547673,42168,245307,194674
1629797547683,42165,245333,194670
1629797547693,42168,245340,194688
1629797547703,42173,245319,194675
1629797547713,42177,245347,194670
1629797547723,42181,245366,194659
1629797547733,42193,245325,194677
1629797547743,42199,245333,194687
1629797547753,42186,245365,194680
1629797547763,42189,245379,194683
1629797547773,42200,245367,194690
1629797547783,42201,245391,194663
1629797547793,42208,245388,194659
1629797547803,42214,245371,194680
1629797547813,42208,245390,194670
1629797547823,42224,245421,194677
1629797547833,42226,245417,194673
1629797547843,42233,245412,194674
1629797547853,42233,245430,194672
1629797547863,42235,245429,194655
1629797547873,42242,245477,194665
1629797547883,42246,245427,194658
1629797547893,42253,245451,194690
1629797547903,42253,245456,194664
1629797547913,42246,245471,194654
1629797547923,42255,245438,194666
1629797547933,42252,245457,194637
1629797547943,42242,245432,194618
1629797547953,42231,245411,194610
1629797547963,42225,245408,194606
1629797547973,42228,245410,194611
1629797547983,42223,245401,194596
1629797547993,42213,245410,194581
1629797548003,42210,245361,194601
1629797548013,42204,245411,194600
1629797548023,42204,245361,194599
1629797548033,42200,245370,194589
1629797548043,42196,245365,194596
1629797548053,42200,245329,194580
1629797548063,42184,245350,194555
1629797548073,42194,245318,194554
1629797548083,42182,245317,194594
1629797548093,42187,245316,194571
1629797548103,42176,245314,194588
1629797548113,42173,245304,194580
1629797548123,42177,245334,194586
1629797548133,42166,245300,194597
1629797548143,42166,245322,194589
1629797548153,42163,245311,194586
1629797548163,42176,245311,194600
1629797548173,42169,245255,194608
1629797548183,42176,245326,194611
1629797548193,42167,245303,194632
1629797548203,42177,245328,194611
1629797548213,42179,245302,194633
1629797548223,42172,245327,194622
1629797548233,42183,245299,194648
1629797548243,42193,245334,194657
1629797548253,42190,245335,194662
1629797548263,42193,245343,194663
1629797548273,42190,245363,194665
1629797548283,42191,245324,194680
1629797548293,42196,245342,194683
1629797548303,42199,245330,194649
1629797548313,42189,245335,194659
1629797548323,42202,245359,194645
1629797548333,42203,245337,194663
1629797548343,42196,245356,194651
1629797548353,42209,245316,194655
1629797548363,42204,245332,194666
1629797548373,42205,245349,194673
1629797548383,42216,245364,194664
1629797548393,42211,245331,194670
1629797548403,42230,245400,194661
1629797548413,42220,245352,194672
1629797548423,42225,245354,194679
1629797548433,42231,245383,194660
1629797548443,42230,245349,194660
1629797548453,42232,245356,194669
1629797548463,42246,245382,194677
1629797548473,42238,245406,194652
1629797548483,42245,245425,194656
1629797548493,42248,245405,194675
1629797548503,42254,245399,194653
1629797548513,42261,245420,194664
1629797548523,42265,245394,194658
1629797548533,42271,245419,194658
1629797548543,42276,245412,194652
1629797548553,42266,245423,194661
1629797548563,42278,245435,194670
1629797548573,42277,245424,194670
1629797548583,42288,245429,194670
1629797548593,42289,245451,194660
1629797548603,42291,245475,194667
1629797548613,42291,245465,194671
1629797548623,42300,245451,194672
1629797548633,42299,245476,194655
1629797548643,42301,245455,194664
1629797548653,42308,245436,194657
1629797548663,42309,245457,194666
1629797548673,42316,245495,194644
1629797548683,42317,245512,194642
1629797548693,42327,245470,194634
1629797548703,42330,245476,194654
1629797548713,42329,245477,194654
1629797548723,42335,245507,194643
1629797548733,42341,245458,194640
1629797548743,42344,245541,194653
1629797548753,42346,245522,194650
1629797548763,42355,245501,194649
1629797548773,42354,245532,194657
1629797548783,42356,245536,194636
1629797548793,42364,245565,194639
1629797548803,42368,245535,194627
1629797548813,42378,245560,194641
1629797548823,42377,245572,194639
1629797548833,42383,245604,194645
1629797548843,42381,245563,194629
1629797548853,42383,245557,194636
1629797548863,42390,245588,194615
1629797548873,42394,245581,194635
1629797548883,42399,245614,194618
1629797548893,42413,245579,194626
1629797548903,42400,245614,194612
1629797548913,42414,245562,194588
1629797548923,42406,245605,194588
1629797548933,42403,245548,194569
1629797548943,42399,245573,194563
1629797548953,42389,245535,194558
1629797548963,42392,245521,194540
1629797548973,42387,245526,194544
1629797548983,42387,245532,194531
1629797548993,42376,245551,194535
1629797549003,42371,245547,194557
1629797549013,42371,245530,194531
1629797549023,42376,245519,194521
1629797549033,42376,245479,194536
1629797549043,42370,245490,194524
1629797549053,42353,245485,194530
1629797549063,42354,245469,194505
1629797549073,42356,245495,194496
1629797549083,42348,245440,194509
1629797549093,42345,245450,194509
1629797549103,42342,245455,194500
1629797549113,42339,245475,194518
1629797549123,42340,245430,194522
1629797549133,42333,245424,194506
1629797549143,42335,245429,194522
1629797549153,42332,245369,194521
1629797549163,42335,245431,194519
1629797549173,42332,245453,194557
1629797549183,42337,245422,194510
1629797549193,42335,245391,194536
1629797549203,42347,245429,194539
1629797549213,42340,245427,194537
1629797549223,42346,245424,194537
1629797549233,42345,245428,194513
1629797549243,42342,245394,194542
1629797549253,42344,245435,194549
1629797549263,42343,245436,194549
1629797549273,42344,245438,194537
1629797549283,42344,245425,194516
1629797549293,42351,245393,194548
1629797549303,42354,245415,194537
1629797549313,42348,245410,194553
1629797549323,42343,245390,194529
1629797549333,42357,245425,194559
1629797549343,42356,245409,194529
1629797549353,42357,245430,194548
1629797549363,42363,245427,194548
1629797549373,42366,245436,194568
1629797549383,42366,245412,194558
1629797549393,42382,245441,194538
1629797549403,42369,245445,194545
1629797549413,42378,245463,194554
1629797549423,42373,245466,194547
1629797549433,42381,245449,194550
1629797549443,42378,245416,194542
1629797549453,42384,245454,194531
1629797549463,42387,245492,194566
1629797549473,42385,245444,194548
1629797549483,42391,245475,194551
1629797549493,42396,245490,194542
1629797549503,42398,245468,194556
1629797549513,42404,245455,194545
1629797549523,42408,245492,194575
1629797549533,42398,245464,194542
1629797549543,42413,245461,194557
1629797549553,42413,245519,194570
1629797549563,42413,245518,194575
1629797549573,42414,245479,194561
1629797549583,42420,245512,194550
1629797549593,42427,245506,194558
1629797549603,42423,245500,194544
1629797549613,42429,245530,194546
1629797549623,42429,245544,194535
1629797549633,42439,245507,194555
1629797549643,42441,245551,194549
1629797549653,42444,245560,194552
1629797549663,42444,245543,194556
1629797549673,42452,245544,194523
1629797549683,42444,245558,194541
1629797549693,42449,245576,194563
1629797549703,42460,245574,194569
1629797549713,42467,245577,194544
1629797549723,42462,245557,194561
1629797549733,42466,245605,194549
1629797549743,42465,245595,194554
1629797549753,42474,245538,194539
1629797549763,42476,245609,194539
1629797549773,42481,245627,194546
1629797549783,42484,245632,194545
1629797549793,42483,245625,194542
1629797549803,42490,245619,194543
1629797549813,42481,245613,194558
1629797549823,42495,245660,194531
1629797549833,42500,245624,194541
1629797549843,42486,245631,194525
1629797549853,42505,245646,194537
1629797549863,42505,245641,194532
1629797549873,42508,245644,194527
1629797549883,42516,245662,194522
1629797549893,42518,245700,194535
1629797549903,42520,245695,194531
1629797549913,42525,245684,194523
1629797549923,42516,245700,194517
1629797549933,42526,245678,194508
1629797549943,42518,245670,194482
1629797549953,42516,245675,194470
1629797549963,42505,245641,194465
1629797549973,42507,245617,194423
1629797549983,42494,245630,194446
1629797549993,42479,245612,194448
1629797550003,42489,245605,194441
1629797550013,42484,245611,194432
1629797550023,42474,245568,194439
1629797550033,42472,245584,194410
1629797550043,42468,245548,194436
1629797550053,42463,245573,194431
1629797550063,42454,245508,194415
1629797550073,42443,245519,194408
1629797550083,42440,245500,194399
1629797550093,42441,245533,194409
1629797550103,42431,245506,194415
1629797550113,42430,245483,194384
1629797550123,42424,245499,194399
1629797550133,42420,245454,194405
1629797550143,42416,245475,194414
1629797550153,42417,245455,194417
1629797550163,42402,245459,194403
1629797550173,42406,245483,194416
1629797550183,42410,245447,194394
1629797550193,42399,245447,194426
1629797550203,42396,245459,194435
1629797550213,42394,245426,194416
1629797550223,42402,245423,194433
1629797550233,42393,245435,194430
1629797550243,42396,245424,194427
1629797550253,42391,245401,194417
1629797550263,42387,245421,194433
1629797550273,42393,245413,194446
1629797550283,42387,245440,194434
1629797550293,42387,245406,194417
1629797550303,42383,245415,194421
1629797550313,42383,245433,194445
1629797550323,42387,245461,194463
1629797550333,42373,245410,194431
1629797550343,42368,245432,194447
1629797550353,42378,245461,194437
1629797550363,42387,245378,194436
1629797550373,42378,245411,194435
1629797550383,42385,245407,194434
1629797550393,42379,245431,194442
1629797550403,42380,245383,194425
1629797550413,42376,245421,194460
1629797550423,42383,245447,194453
1629797550433,42383,245454,194447
1629797550443,42382,245425,194451
1629797550453,42387,245418,194451
1629797550463,42387,245437,194466
1629797550473,42387,245446,194452
1629797550483,42380,245440,194427
1629797550493,42388,245477,194453
1629797550503,42400,245437,194453
1629797550513,42393,245456,194450
1629797550523,42402,245442,194470
1629797550533,42401,245458,194459
1629797550543,42400,245436,194456
1629797550553,42402,245484,194458
1629797550563,42398,245460,194438
1629797550573,42402,245451,194456
1629797550583,42409,245470,194462
1629797550593,42400,245455,194464
1629797550603,42405,245486,194451
1629797550613,42407,245459,194455
1629797550623,42409,245493,194449
1629797550633,42411,245485,194452
1629797550643,42414,245450,194450
1629797550653,42405,245470,194450
1629797550663,42413,245448,194429
1629797550673,42422,245505,194450
1629797550683,42424,245469,194433
1629797550693,42414,245497,194443
1629797550703,42423,245512,194427
1629797550713,42418,245482,194427
1629797550723,42433,245470,194445
1629797550733,42421,245516,194426
1629797550743,42427,245505,194422
1629797550753,42426,245499,194443
1629797550763,42425,245512,194422
1629797550773,42438,245506,194437
1629797550783,42433,245501,194410
1629797550793,42440,245518,194412
1629797550803,42428,245531,194403
1629797550813,42437,245502,194440
1629797550823,42432,245498,194416
1629797550833,42444,245534,194401
1629797550843,42450,245541,194427
1629797550853,42445,245542,194405
1629797550863,42448,245513,194399
1629797550873,42454,245553,194391
1629797550883,42455,245557,194399
1629797550893,42456,245534,194423
1629797550903,42453,245555,194400
1629797550913,42456,245552,194389
1629797550923,42451,245527,194370
1629797550933,42444,245517,194362
1629797550943,42441,245510,194319
1629797550953,42427,245496,194310
1629797550963,42416,245516,194310
1629797550973,42416,245483,194305
1629797550983,42410,245471,194295
1629797550993,42398,245396,194297
1629797551003,42386,245417,194306
1629797551013,42382,245443,194289
1629797551023,42366,245370,194293
1629797551033,42367,245360,194293
1629797551043,42361,245363,194288
1629797551053,42347,245324,194283
1629797551063,42342,245335,194279
1629797551073,42340,245318,194299
1629797551083,42335,245322,194267
1629797551093,42321,245270,194288
1629797551103,42312,245319,194306
1629797551113,42308,245263,194302
1629797551123,42290,245232,194289
1629797551133,42286,245283,194295
1629797551143,42278,245263,194311
1629797551153,42285,245224,194301
1629797551163,42275,245260,194309
1629797551173,42268,245243,194287
1629797551183,42273,245239,194314
1629797551193,42260,245216,194324
1629797551203,42257,245184,194319
1629797551213,42262,245191,194343
1629797551223,42260,245191,194332
1629797551233,42251,245207,194337
1629797551243,42256,245193,194329
1629797551253,42246,245188,194322
1629797551263,42243,245216,194330
1629797551273,42243,245181,194372
1629797551283,42235,245179,194347
1629797551293,42231,245193,194327
1629797551303,42238,245162,194357
1629797551313,42231,245145,194343
1629797551323,42237,245164,194368
1629797551333,42231,245156,194356
1629797551343,42226,245182,194332
1629797551353,42232,245151,194363
1629797551363,42227,245176,194363
1629797551373,42233,245147,194356
1629797551383,42224,245169,194367
1629797551393,42229,245149,194383
1629797551403,42227,245179,194382
1629797551413,42227,245149,194393
1629797551423,42224,245160,194401
1629797551433,42221,245167,194361
1629797551443,42225,245190,194382
1629797551453,42214,245173,194371
1629797551463,42225,245123,194378
1629797551473,42225,245162,194402
1629797551483,42218,245146,194397
1629797551493,42227,245170,194387
1629797551503,42229,245157,194384
1629797551513,42232,245187,194414
1629797551523,42228,245174,194390
1629797551533,42225,245178,194408
1629797551543,42228,245169,194399
1629797551553,42227,245171,194379
1629797551563,42230,245180,194425
1629797551573,42229,245189,194401
1629797551583,42236,245187,194388
1629797551593,42233,245170,194390
1629797551603,42230,245196,194408
1629797551613,42225,245129,194423
1629797551623,42233,245219,194414
1629797551633,42230,245213,194400
1629797551643,42237,245230,194406
1629797551653,42233,245184,194387
1629797551663,42240,245196,194412
1629797551673,42238,245206,194410
1629797551683,42239,245181,194410
1629797551693,42235,245216,194385
1629797551703,42242,245242,194406
1629797551713,42243,245204,194413
1629797551723,42247,245231,194420
1629797551733,42244,245245,194409
1629797551743,42250,245210,194417
1629797551753,42245,245215,194439
1629797551763,42251,245243,194415
1629797551773,42251,245264,194432
1629797551783,42255,245255,194418
1629797551793,42252,245269,194437
1629797551803,42255,245239,194416
1629797551813,42263,245273,194396
1629797551823,42258,245271,194400
1629797551833,42261,245288,194420
1629797551843,42254,245279,194408
1629797551853,42261,245277,194426
1629797551863,42267,245274,194416
1629797551873,42263,245275,194424
1629797551883,42272,245284,194435
1629797551893,42270,245304,194431
1629797551903,42267,245250,194399
1629797551913,42267,245272,194401
1629797551923,42254,245240,194387
1629797551933,42238,245227,194362
1629797551943,42235,245229,194363
1629797551953,42222,245213,194329
1629797551963,42213,245185,194345
1629797551973,42204,245175,194360
1629797551983,42187,245169,194337
1629797551993,42187,245144,194355
1629797552003,42168,245123,194335
1629797552013,42159,245149,194345
1629797552023,42153,245083,194354
1629797552033,42134,245078,194358
1629797552043,42133,245069,194346
1629797552053,42125,245022,194353
1629797552063,42113,245047,194352
1629797552073,42104,245032,194359
1629797552083,42098,245040,194362
1629797552093,42085,245009,194375
1629797552103,42088,244968,194341
1629797552113,42071,244929,194362
1629797552123,42057,244975,194379
1629797552133,42049,244930,194379
1629797552143,42046,244963,194404
1629797552153,42041,244918,194370
1629797552163,42038,244918,194407
1629797552173,42032,244910,194393
1629797552183,42035,244939,194419
1629797552193,42023,244941,194436
1629797552203,42026,244923,194444
1629797552213,42022,244934,194424
1629797552223,42013,244933,194457
1629797552233,42011,244903,194444
1629797552243,42016,244905,194456
1629797552253,42005,244905,194485
1629797552263,42004,244877,194469
1629797552273,41999,244882,194464
1629797552283,42003,244914,194476
1629797552293,42008,244906,194475
1629797552303,42003,244884,194490
1629797552313,41994,244874,194494
1629797552323,41995,244912,194507
1629797552333,41997,244910,194498
1629797552343,41998,244925,194528
1629797552353,41988,244887,194516
1629797552363,41991,244891,194536
1629797552373,42004,244881,194526
1629797552383,41997,244902,194521
1629797552393,41994,244865,194527
1629797552403,41994,244873,194525
1629797552413,41989,244945,194563
1629797552423,41989,244916,194573
1629797552433,41995,244904,194547
1629797552443,41993,244896,194546
1629797552453,42007,244910,194550
1629797552463,42001,244926,194575
1629797552473,41995,244893,194567
1629797552483,41995,244941,194582
1629797552493,42005,244896,194585
1629797552503,42007,244939,194581
1629797552513,42000,244907,194583
1629797552523,42005,244953,194572
1629797552533,42006,244955,194613
1629797552543,42003,244916,194604
1629797552553,42006,244921,194597
1629797552563,42008,244940,194598
1629797552573,42019,244966,194619
1629797552583,42005,244933,194617
1629797552593,42031,244982,194620
1629797552603,42018,244950,194627
1629797552613,42020,244963,194619
1629797552623,42027,244973,194614
1629797552633,42021,244946,194643
1629797552643,42026,245016,194630
1629797552653,42030,244981,194632
1629797552663,42029,245025,194619
1629797552673,42026,244983,194646
1629797552683,42030,244991,194623
1629797552693,42038,245031,194628
1629797552703,42044,244998,194640
1629797552713,42040,245016,194634
1629797552723,42044,245062,194649
1629797552733,42041,245033,194671
1629797552743,42029,245021,194662
1629797552753,42047,245054,194648
1629797552763,42058,245027,194654
1629797552773,42060,245037,194649
1629797552783,42060,245025,194670
1629797552793,42065,245055,194669
1629797552803,42059,245071,194677
1629797552813,42054,245096,194664
1629797552823,42069,245094,194683
1629797552833,42064,245118,194684
1629797552843,42072,245100,194700
1629797552853,42071,245119,194700
1629797552863,42074,245121,194708
1629797552873,42071,245129,194703
1629797552883,42079,245131,194704
1629797552893,42085,245128,194690
1629797552903,42076,245125,194702
1629797552913,42075,245109,194690
1629797552923,42076,245100,194665
1629797552933,42065,245086,194672
1629797552943,42060,245114,194628
1629797552953,42052,245022,194653
1629797552963,42041,245018,194631
1629797552973,42025,245064,194660
1629797552983,42018,245005,194640
1629797552993,42010,244991,194635
1629797553003,41998,244993,194633
1629797553013,41990,244945,194627
1629797553023,41981,244939,194643
1629797553033,41970,244932,194647
1629797553043,41967,244907,194637
1629797553053,41952,244900,194641
1629797553063,41951,244914,194641
1629797553073,41937,244883,194642
1629797553083,41936,244885,194662
1629797553093,41928,244889,194666
1629797553103,41911,244860,194678
1629797553113,41907,244862,194655
1629797553123,41896,244811,194686
1629797553133,41892,244835,194697
1629797553143,41888,244781,194687
1629797553153,41880,244773,194690
1629797553163,41871,244785,194709
1629797553173,41876,244787,194724
1629797553183,41867,244774,194755
1629797553193,41866,244774,194751
1629797553203,41868,244791,194758
1629797553213,41877,244747,194775
1629797553223,41872,244740,194774
1629797553233,41872,244784,194793
1629797553243,41854,244798,194776
1629797553253,41859,244804,194790
1629797553263,41874,244754,194798
1629797553273,41882,244788,194794
1629797553283,41864,244774,194807
1629797553293,41864,244795,194828
1629797553303,41873,244810,194831
1629797553313,41870,244764,194823
1629797553323,41871,244816,194837
1629797553333,41869,244781,194882
1629797553343,41873,244773,194857
1629797553353,41873,244793,194865
1629797553363,41883,244780,194871
1629797553373,41876,244788,194872
1629797553383,41876,244826,194887
1629797553393,41878,244809,194895
1629797553403,41887,244820,194891
1629797553413,41881,244814,194895
1629797553423,41880,244838,194922
1629797553433,41889,244813,194908
1629797553443,41888,244855,194914
1629797553453,41894,244817,194907
1629797553463,41903,244820,194923
1629797553473,41903,244822,194946
1629797553483,41898,244811,194946
1629797553493,41905,244850,194936
1629797553503,41911,244842,194948
1629797553513,41905,244851,194962
1629797553523,41915,244851,194956
1629797553533,41925,244859,194972
1629797553543,41919,244863,194991
1629797553553,41922,244898,194979
1629797553563,41923,244861,194957
1629797553573,41928,244899,195002
1629797553583,41937,244884,194994
1629797553593,41925,244873,194958
1629797553603,41936,244875,195004
1629797553613,41950,244893,194978
1629797553623,41943,244923,195012
1629797553633,41948,244903,195000
1629797553643,41951,244896,195007
1629797553653,41949,244943,195000
1629797553663,41958,244925,195005
1629797553673,41966,244957,195011
1629797553683,41967,244948,195006
1629797553693,41965,244977,195035
1629797553703,41974,244946,195038
1629797553713,41977,244946,195026
1629797553723,41986,244978,195035
1629797553733,41984,244971,195039
1629797553743,41972,244979,195047
1629797553753,41984,244989,195017
1629797553763,41994,244983,195033
1629797553773,42000,244997,195032
1629797553783,42005,245010,195044
1629797553793,42009,245019,195033
1629797553803,42010,245013,195063
1629797553813,42013,245034,195064
1629797553823,42020,245053,195050
1629797553833,42025,245026,195045
1629797553843,42032,245013,195072
1629797553853,42039,245077,195071
1629797553863,42034,245040,195053
1629797553873,42048,245064,195057
1629797553883,42051,245075,195075
1629797553893,42049,245118,195073
1629797553903,42055,245116,195068
1629797553913,42062,245102,195064
1629797553923,42058,245120,195069
1629797553933,42068,245120,195062
1629797553943,42061,245103,195042
1629797553953,42067,245107,195046
1629797553963,42057,245086,195049
1629797553973,42058,245084,195027
1629797553983,42040,245071,195002
1629797553993,42032,245063,195013
1629797554003,42027,245059,195006
1629797554013,42018,245035,194998
1629797554023,42016,245033,195021
1629797554033,42014,245003,195008
1629797554043,41994,245018,195020
1629797554053,41999,244982,195010
1629797554063,41991,244971,195030
1629797554073,41985,245002,195021
1629797554083,41983,244960,195008
1629797554093,41982,244956,195014
1629797554103,41972,244948,194992
1629797554113,41972,244942,195016
1629797554123,41965,244923,195038
1629797554133,41960,244941,195022
1629797554143,41963,244959,195024
1629797554153,41958,244910,195028
1629797554163,41959,244912,195039
1629797554173,41953,244895,195055
1629797554183,41950,244922,195074
1629797554193,41944,244902,195060
1629797554203,41959,244867,195071
1629797554213,41951,244887,195075
1629797554223,41955,244917,195101
1629797554233,41958,244897,195096
1629797554243,41961,244894,195102
1629797554253,41962,244913,195114
1629797554263,41961,244898,195133
1629797554273,41968,244921,195126
1629797554283,41971,244915,195128
1629797554293,41967,244914,195118
1629797554303,41967,244918,195129
1629797554313,41976,244901,195122
1629797554323,41974,244924,195143
1629797554333,41982,244930,195132
1629797554343,41979,244939,195148
1629797554353,41986,244963,195158
1629797554363,41992,244952,195136
1629797554373,41998,244936,195163
1629797554383,42001,244941,195157
1629797554393,41997,244968,195150
1629797554403,42008,244956,195156
1629797554413,42009,244978,195168
1629797554423,42014,244978,195175
1629797554433,42012,244938,195190
1629797554443,42013,244977,195190
1629797554453,42015,244982,195166
1629797554463,42023,245015,195181
1629797554473,42026,244985,195194
1629797554483,42039,245018,195200
1629797554493,42042,244968,195214
1629797554503,42047,245008,195200
1629797554513,42047,245036,195208
1629797554523,42049,244996,195207
1629797554533,42066,245019,195249
1629797554543,42066,245037,195212
1629797554553,42071,245026,195222
1629797554563,42065,245050,195196
1629797554573,42077,245051,195201
1629797554583,42078,245026,195201
1629797554593,42085,245043,195236
1629797554603,42095,245047,195227
1629797554613,42094,245062,195231
1629797554623,42106,245074,195247
1629797554633,42101,245092,195234
1629797554643,42114,245097,195245
1629797554653,42113,245146,195222
1629797554663,42121,245115,195261
1629797554673,42128,245166,195242
1629797554683,42134,245085,195239
1629797554693,42137,245106,195243
1629797554703,42139,245121,195237
1629797554713,42148,245132,195226
1629797554723,42142,245160,195261
1629797554733,42146,245138,195247
1629797554743,42156,245164,195246
1629797554753,42163,245144,195252
1629797554763,42163,245172,195235
1629797554773,42178,245181,195249
1629797554783,42175,245152,195245
1629797554793,42177,245195,195253
1629797554803,42182,245181,195242
1629797554813,42187,245214,195234
1629797554823,42193,245189,195237
1629797554833,42197,245215,195231
1629797554843,42196,245224,195233
1629797554853,42212,245185,195246
1629797554863,42221,245239,195224
1629797554873,42208,245249,195243
1629797554883,42219,245232,195239
1629797554893,42227,245256,195234
1629797554903,42227,245237,195234
1629797554913,42231,245239,195224
1629797554923,42228,245245,195219
1629797554933,42229,245270,195208
1629797554943,42233,245246,195174
1629797554953,42217,245250,195168
1629797554963,42219,245205,195126
1629797554973,42210,245196,195163
1629797554983,42206,245194,195157
1629797554993,42205,245182,195167
1629797555003,42195,245179,195160
1629797555013,42190,245166,195123
1629797555023,42203,245158,195171
1629797555033,42193,245121,195136
1629797555043,42189,245120,195122
1629797555053,42185,245126,195161
1629797555063,42184,245086,195126
1629797555073,42188,245128,195131
1629797555083,42178,245118,195140
1629797555093,42178,245066,195136
1629797555103,42178,245090,195162
1629797555113,42174,245096,195143
1629797555123,42170,245090,195141
1629797555133,42170,245067,195146
1629797555143,42166,245086,195153
1629797555153,42169,245048,195150
1629797555163,42172,245066,195149
1629797555173,42162,245052,195154
1629797555183,42176,245075,195152
1629797555193,42170,245052,195150
1629797555203,42169,245057,195172
1629797555213,42184,245083,195171
1629797555223,42183,245071,195175
1629797555233,42184,245064,195189
1629797555243,42187,245049,195201
1629797555253,42193,245054,195190
1629797555263,42190,245076,195181
1629797555273,42194,245102,195193
1629797555283,42192,245096,195181
1629797555293,42203,245067,195193
1629797555303,42209,245073,195182
1629797555313,42205,245084,195177
1629797555323,42209,245064,195173
1629797555333,42208,245090,195191
1629797555343,42216,245089,195200
1629797555353,42211,245088,195207
1629797555363,42218,245135,195184
1629797555373,42228,245096,195200
1629797555383,42230,245078,195202
1629797555393,42227,245096,195204
1629797555403,42231,245135,195199
1629797555413,42240,245113,195198
1629797555423,42243,245106,195200
1629797555433,42250,245102,195225
1629797555443,42254,245152,195199
1629797555453,42249,245124,195215
1629797555463,42255,245132,195211
1629797555473,42260,245115,195211
1629797555483,42264,245145,195200
1629797555493,42268,245165,195216
1629797555503,42272,245147,195220
1629797555513,42281,245160,195210
1629797555523,42288,245149,195207
1629797555533,42290,245168,195222
1629797555543,42293,245171,195224
1629797555553,42298,245189,195221
1629797555563,42303,245190,195222
1629797555573,42310,245167,195216
1629797555583,42308,245214,195208
1629797555593,42312,245179,195202
1629797555603,42320,245168,195219
1629797555613,42319,245226,195217
1629797555623,42323,245239,195230
1629797555633,42334,245207,195214
1629797555643,42330,245195,195235
1629797555653,42338,245242,195208
1629797555663,42323,245219,195196
1629797555673,42340,245221,195214
1629797555683,42353,245238,195206
1629797555693,42355,245248,195212
1629797555703,42356,245240,195210
1629797555713,42362,245254,195206
1629797555723,42366,245254,195218
1629797555733,42371,245239,195187
1629797555743,42374,245284,195189
1629797555753,42378,245270,195204
1629797555763,42383,245258,195206
1629797555773,42380,245245,195187
1629797555783,42391,245286,195212
1629797555793,42391,245269,195209
1629797555803,42394,245273,195196
1629797555813,42409,245317,195191
1629797555823,42404,245281,195184
1629797555833,42412,245313,195189
1629797555843,42415,245317,195187
1629797555853,42412,245296,195183
1629797555863,42419,245291,195195
1629797555873,42424,245304,195163
1629797555883,42429,245328,195173
1629797555893,42436,245334,195181
1629797555903,42429,245299,195150
1629797555913,42421,245289,195148
1629797555923,42424,245280,195140
1629797555933,42417,245285,195105
1629797555943,42414,245276,195111
1629797555953,42406,245257,195087
1629797555963,42402,245230,195078
1629797555973,42393,245225,195081
1629797555983,42385,245206,195084
1629797555993,42381,245221,195078
1629797556003,42393,245211,195076
1629797556013,42380,245179,195072
1629797556023,42366,245200,195070
1629797556033,42371,245174,195064
1629797556043,42364,245156,195050
1629797556053,42358,245131,195049
1629797556063,42349,245173,195068
1629797556073,42347,245165,195062
1629797556083,42339,245127,195050
1629797556093,42341,245133,195074
1629797556103,42330,245100,195045
1629797556113,42332,245103,195045
1629797556123,42334,245119,195030
1629797556133,42319,245086,195049
1629797556143,42315,245067,195044
1629797556153,42320,245087,195068
1629797556163,42324,245052,195076
1629797556173,42322,245059,195073
1629797556183,42323,245058,195076
1629797556193,42315,245064,195075
1629797556203,42322,245077,195078
1629797556213,42320,245064,195090
1629797556223,42323,245089,195058
1629797556233,42317,245033,195082
1629797556243,42312,245061,195062
1629797556253,42318,245050,195074
1629797556263,42312,245040,195061
1629797556273,42318,245086,195068
1629797556283,42313,245033,195076
1629797556293,42313,245034,195072
1629797556303,42317,245056,195038
1629797556313,42315,245078,195071
1629797556323,42317,245083,195075
1629797556333,42314,245078,195076
1629797556343,42319,245031,195085
1629797556353,42313,245069,195082
1629797556363,42314,245072,195097
1629797556373,42322,245088,195112
1629797556383,42320,245098,195096
1629797556393,42320,245043,195093
1629797556403,42319,245058,195088
1629797556413,42324,245029,195090
1629797556423,42323,245064,195061
1629797556433,42322,245038,195102
1629797556443,42321,245037,195119
1629797556453,42330,245075,195064
1629797556463,42327,245086,195083
1629797556473,42328,245096,195090
1629797556483,42342,245095,195106
1629797556493,42331,245123,195108
1629797556503,42339,245081,195092
1629797556513,42351,245097,195071
1629797556523,42341,245081,195097
1629797556533,42344,245113,195083
1629797556543,42343,245134,195095
1629797556553,42348,245135,195091
1629797556563,42350,245079,195095
1629797556573,42355,245135,195071
1629797556583,42355,245100,195091
1629797556593,42361,245105,195086
1629797556603,42360,245135,195092
1629797556613,42359,245154,195087
1629797556623,42360,245145,195098
1629797556633,42355,245149,195079
1629797556643,42363,245125,195084
1629797556653,42361,245114,195075
1629797556663,42373,245131,195089
1629797556673,42373,245168,195081
1629797556683,42374,245141,195075
1629797556693,42374,245160,195068
1629797556703,42370,245162,195059
1629797556713,42382,245150,195100
1629797556723,42380,245161,195058
1629797556733,42374,245195,195060
1629797556743,42385,245169,195069
1629797556753,42386,245177,195061
1629797556763,42390,245196,195070
1629797556773,42377,245253,195060
1629797556783,42396,245226,195070
1629797556793,42382,245216,195090
1629797556803,42392,245238,195065
1629797556813,42395,245189,195083
1629797556823,42397,245228,195068
1629797556833,42396,245206,195074
1629797556843,42405,245211,195067
1629797556853,42411,245242,195060
1629797556863,42407,245238,195039
1629797556873,42416,245240,195088
1629797556883,42417,245238,195078
1629797556893,42416,245236,195058
1629797556903,42417,245247,195049
1629797556913,42410,245258,195007
1629797556923,42408,245247,195040
1629797556933,42395,245190,195021
1629797556943,42387,245197,194981
1629797556953,42378,245164,194981
1629797556963,42373,245171,194959
1629797556973,42364,245142,194975
1629797556983,42352,245124,194985
1629797556993,42342,245101,194970
1629797557003,42331,245106,194951
1629797557013,42326,245095,194965
1629797557023,42321,245090,194973
1629797557033,42311,245093,194937
1629797557043,42297,245026,194944
1629797557053,42290,245011,194938
1629797557063,42285,245018,194954
1629797557073,42275,244985,194949
1629797557083,42268,245022,194927
1629797557093,42259,244983,194928
1629797557103,42248,244936,194942
1629797557113,42237,244939,194953
1629797557123,42229,244935,194927
1629797557133,42222,244960,194940
1629797557143,42208,244919,194957
1629797557153,42211,244910,194950
1629797557163,42200,244886,194948
1629797557173,42188,244871,194949
1629797557183,42201,244885,194961
1629797557193,42192,244851,194958
1629797557203,42185,244867,194978
1629797557213,42188,244868,194977
1629797557223,42185,244866,194970
1629797557233,42178,244891,194979
1629797557243,42172,244874,194961
1629797557253,42169,244848,194987
1629797557263,42176,244853,194985
1629797557273,42163,244833,194982
1629797557283,42167,244836,194985
1629797557293,42162,244858,194977
1629797557303,42161,244857,195005
1629797557313,42155,244810,194972
1629797557323,42142,244842,195022
1629797557333,42151,244852,195003
1629797557343,42151,244824,195007
1629797557353,42151,244802,194997
1629797557363,42153,244858,194994
1629797557373,42155,244885,195013
1629797557383,42158,244848,195041
1629797557393,42152,244829,195006
1629797557403,42149,244844,195024
1629797557413,42146,244837,195005
1629797557423,42155,244824,195039
1629797557433,42151,244850,195023
1629797557443,42158,244836,195043
1629797557453,42155,244835,195034
1629797557463,42152,244831,195026
1629797557473,42153,244839,195042
1629797557483,42162,244854,195051
1629797557493,42155,244870,195039
1629797557503,42157,244849,195048
1629797557513,42152,244873,195032
1629797557523,42156,244843,195040
1629797557533,42156,244861,195054
1629797557543,42159,244835,195042
1629797557553,42156,244881,195042
1629797557563,42163,244875,195035
1629797557573,42159,244872,195059
1629797557583,42160,244876,195032
1629797557593,42164,244903,195041
1629797557603,42156,244873,195048
1629797557613,42169,244874,195055
1629797557623,42177,244916,195042
1629797557633,42177,244906,195049
1629797557643,42167,244888,195058
1629797557653,42173,244899,195061
1629797557663,42168,244941,195049
1629797557673,42171,244895,195055
1629797557683,42174,244906,195061
1629797557693,42178,244906,195067
1629797557703,42180,244921,195066
1629797557713,42180,244927,195091
1629797557723,42183,244909,195045
1629797557733,42180,244947,195051
1629797557743,42187,244928,195087
1629797557753,42184,244948,195061
1629797557763,42183,244954,195098
1629797557773,42183,244942,195051
1629797557783,42191,244981,195083
1629797557793,42199,245010,195059
1629797557803,42198,244938,195081
1629797557813,42199,244933,195067
1629797557823,42204,244957,195074
1629797557833,42200,245035,195083
1629797557843,42199,244974,195053
1629797557853,42205,244975,195088
1629797557863,42201,245002,195068
1629797557873,42207,245013,195082
1629797557883,42206,245035,195059
1629797557893,42208,245002,195081
1629797557903,42216,245000,195071
1629797557913,42221,245023,195074
1629797557923,42218,245001,195074
1629797557933,42216,245007,195063
1629797557943,42208,244991,195036
1629797557953,42204,245015,195017
1629797557963,42187,244964,195002
1629797557973,42182,244972,195012
1629797557983,42184,244923,194996
1629797557993,42165,244900,194997
1629797558003,42149,244884,194988
1629797558013,42139,244907,194984
1629797558023,42128,244888,194991
1629797558033,42115,244868,194974
1629797558043,42107,244840,194978
1629797558053,42103,244806,194961
1629797558063,42086,244782,194985
1629797558073,42076,244779,194975
1629797558083,42067,244802,194977
1629797558093,42063,244768,194996
1629797558103,42038,244745,194993
1629797558113,42038,244738,194986
1629797558123,42027,244724,194984
1629797558133,42021,244694,194983
1629797558143,42018,244671,194991
1629797558153,42003,244687,194995
1629797558163,42002,244654,195004
1629797558173,41993,244688,194995
1629797558183,41988,244663,195043
1629797558193,41982,244655,194999
1629797558203,41977,244631,195036
1629797558213,41981,244651,195018
1629797558223,41973,244638,195031
1629797558233,41970,244649,195038
1629797558243,41964,244628,195041
1629797558253,41956,244612,195055
1629797558263,41966,244618,195058
1629797558273,41966,244634,195065
1629797558283,41966,244647,195079
1629797558293,41951,244619,195081
1629797558303,41949,244606,195071
1629797558313,41951,244625,195079
1629797558323,41945,244662,195103
1629797558333,41946,244625,195091
1629797558343,41938,244640,195091
1629797558353,41938,244616,195089
1629797558363,41934,244614,195104
1629797558373,41930,244616,195118
1629797558383,41935,244619,195119
1629797558393,41941,244609,195124
1629797558403,41941,244649,195146
1629797558413,41936,244658,195132
1629797558423,41946,244638,195129
1629797558433,41951,244657,195146
1629797558443,41936,244643,195166
1629797558453,41937,244646,195150
1629797558463,41945,244652,195156
1629797558473,41946,244678,195159
1629797558483,41936,244670,195137
1629797558493,41945,244669,195173
1629797558503,41948,244681,195156
1629797558513,41943,244654,195162
1629797558523,41953,244688,195200
1629797558533,41948,244666,195192
1629797558543,41949,244693,195183
1629797558553,41956,244718,195181
1629797558563,41955,244661,195177
1629797558573,41962,244694,195199
1629797558583,41946,244703,195188
1629797558593,41944,244712,195197
1629797558603,41958,244676,195190
1629797558613,41961,244696,195184
1629797558623,41961,244708,195193
1629797558633,41966,244693,195209
1629797558643,41977,244690,195197
1629797558653,41964,244727,195214
1629797558663,41973,244715,195192
1629797558673,41974,244729,195190
1629797558683,41962,244724,195210
1629797558693,41973,244730,195195
1629797558703,41982,244724,195201
1629797558713,41980,244727,195217
1629797558723,41984,244757,195215
1629797558733,41983,244725,195221
1629797558743,41977,244746,195211
1629797558753,41988,244775,195189
1629797558763,41992,244760,195191
1629797558773,41987,244739,195202
1629797558783,41997,244777,195211
1629797558793,41995,244773,195201
1629797558803,41997,244803,195228
1629797558813,41997,244779,195219
1629797558823,41994,244786,195230
1629797558833,42000,244801,195220
1629797558843,42004,244816,195228
1629797558853,42010,244798,195219
1629797558863,42016,244838,195214
1629797558873,42016,244813,195223
1629797558883,42015,244841,195202
1629797558893,42006,244838,195231
1629797558903,42025,244825,195181
1629797558913,42029,244850,195224
1629797558923,42019,244841,195225
1629797558933,42016,244805,195161
1629797558943,42004,244795,195172
1629797558953,41993,244796,195164
1629797558963,41979,244768,195144
1629797558973,41976,244746,195125
1629797558983,41960,244749,195142
1629797558993,41949,244700,195139
1629797559003,41940,244729,195142
1629797559013,41933,244686,195111
1629797559023,41923,244674,195144
1629797559033,41917,244681,195119
1629797559043,41899,244645,195135
1629797559053,41889,244643,195131
1629797559063,41891,244639,195153
1629797559073,41884,244594,195139
1629797559083,41870,244595,195134
1629797559093,41869,244597,195159
1629797559103,41857,244588,195135
1629797559113,41849,244584,195129
1629797559123,41840,244577,195129
1629797559133,41830,244576,195148
1629797559143,41830,244535,195148
1629797559153,41816,244536,195165
1629797559163,41816,244523,195168
1629797559173,41808,244492,195183
1629797559183,41810,244535,195207
1629797559193,41809,244493,195192
1629797559203,41809,244520,195199
1629797559213,41806,244475,195224
1629797559223,41800,244510,195216
1629797559233,41818,244531,195214
1629797559243,41809,244530,195224
1629797559253,41804,244498,195249
1629797559263,41806,244490,195245
1629797559273,41802,244518,195233
1629797559283,41797,244514,195253
1629797559293,41801,244531,195260
1629797559303,41803,244507,195259
1629797559313,41802,244503,195250
1629797559323,41800,244485,195268
1629797559333,41804,244490,195266
1629797559343,41806,244531,195287
1629797559353,41805,244501,195289
1629797559363,41804,244523,195291
1629797559373,41805,244521,195282
1629797559383,41814,244486,195303
1629797559393,41805,244503,195287
1629797559403,41808,244517,195306
1629797559413,41820,244531,195315
1629797559423,41812,244505,195308
1629797559433,41814,244527,195305
1629797559443,41821,244510,195311
1629797559453,41816,244518,195312
1629797559463,41823,244565,195323
1629797559473,41830,244575,195330
1629797559483,41827,244552,195335
1629797559493,41831,244549,195334
1629797559503,41840,244583,195345
1629797559513,41834,244564,195332
1629797559523,41837,244553,195363
1629797559533,41842,244599,195353
1629797559543,41847,244588,195365
1629797559553,41844,244577,195367
1629797559563,41850,244612,195372
1629797559573,41861,244580,195358
1629797559583,41857,244586,195355
1629797559593,41854,244608,195362
1629797559603,41874,244616,195368
1629797559613,41870,244588,195381
1629797559623,41870,244628,195377
1629797559633,41874,244609,195353
1629797559643,41876,244615,195358
1629797559653,41877,244630,195377
1629797559663,41888,244655,195359
1629797559673,41888,244656,195379
1629797559683,41885,244644,195366
1629797559693,41897,244656,195373
1629797559703,41890,244655,195380
1629797559713,41891,244679,195387
1629797559723,41907,244691,195380
1629797559733,41911,244668,195387
1629797559743,41913,244667,195369
1629797559753,41909,244673,195410
1629797559763,41910,244716,195369
1629797559773,41914,244674,195394
1629797559783,41925,244687,195385
1629797559793,41930,244734,195386
1629797559803,41929,244743,195400
1629797559813,41940,244739,195398
1629797559823,41935,244735,195396
1629797559833,41948,244725,195376
1629797559843,41939,244750,195392
1629797559853,41951,244712,195403
1629797559863,41954,244779,195382
1629797559873,41963,244793,195400
1629797559883,41965,244771,195382
1629797559893,41965,244755,195395
1629797559903,41973,244786,195363
1629797559913,41960,244749,195389
1629797559923,41952,244751,195352
1629797559933,41945,244742,195326
1629797559943,41936,244710,195316
1629797559953,41925,244736,195311
1629797559963,41921,244693,195305
1629797559973,41915,244720,195304
1629797559983,41904,244703,195316
1629797559993,41899,244672,195309
1629797560003,41894,244672,195301
1629797560013,41886,244681,195311
1629797560023,41878,244627,195295
1629797560033,41877,244636,195295
1629797560043,41863,244626,195319
1629797560053,41870,244584,195313
1629797560063,41861,244579,195290
1629797560073,41854,244632,195327
1629797560083,41853,244577,195316
1629797560093,41845,244578,195319
1629797560103,41836,244583,195314
1629797560113,41834,244581,195325
1629797560123,41835,244542,195340
1629797560133,41834,244567,195326
1629797560143,41829,244544,195336
1629797560153,41830,244569,195338
1629797560163,41824,244571,195358
1629797560173,41834,244573,195367
1629797560183,41828,244531,195363
1629797560193,41828,244554,195362
1629797560203,41834,244534,195348
1629797560213,41830,244514,195385
1629797560223,41854,244540,195368
1629797560233,41841,244562,195393
1629797560243,41844,244554,195390
1629797560253,41851,244546,195399
1629797560263,41844,244519,195422
1629797560273,41847,244588,195398
1629797560283,41849,244556,195415
1629797560293,41849,244560,195425
1629797560303,41850,244577,195415
1629797560313,41854,244584,195423
1629797560323,41855,244597,195430
1629797560333,41856,244579,195418
1629797560343,41862,244532,195410
1629797560353,41861,244602,195415
1629797560363,41864,244587,195421
1629797560373,41874,244623,195440
1629797560383,41876,244580,195445
1629797560393,41874,244613,195447
1629797560403,41870,244619,195446
1629797560413,41886,244584,195453
1629797560423,41889,244597,195453
1629797560433,41890,244623,195444
1629797560443,41894,244640,195461
1629797560453,41899,244614,195452
1629797560463,41900,244593,195452
1629797560473,41903,244621,195456
1629797560483,41910,244640,195453
1629797560493,41915,244628,195460
1629797560503,41913,244637,195457
1629797560513,41918,244646,195460
1629797560523,41930,244679,195446
1629797560533,41933,244708,195468
1629797560543,41934,244655,195473
1629797560553,41940,244683,195445
1629797560563,41947,244684,195458
1629797560573,41942,244708,195469
1629797560583,41955,244709,195474
1629797560593,41954,244711,195458
1629797560603,41961,244699,195457
1629797560613,41963,244708,195474
1629797560623,41969,244724,195454
1629797560633,41973,244739,195460
1629797560643,41973,244731,195478
1629797560653,41984,244738,195464
1629797560663,41987,244721,195468
1629797560673,41988,244739,195449
1629797560683,42000,244746,195484
1629797560693,41999,244791,195459
1629797560703,41998,244786,195474
1629797560713,42010,244763,195460
1629797560723,42016,244764,195443
1629797560733,42019,244781,195463
1629797560743,42028,244764,195473
1629797560753,42027,244796,195456
1629797560763,42033,244797,195462
1629797560773,42039,244828,195463
1629797560783,42042,244817,195472
1629797560793,42050,244843,195462
1629797560803,42054,244835,195472
1629797560813,42054,244842,195468
1629797560823,42064,244867,195445
1629797560833,42066,244872,195464
1629797560843,42071,244853,195459
1629797560853,42083,244853,195479
1629797560863,42084,244869,195442
1629797560873,42089,244874,195439
1629797560883,42087,244871,195443
1629797560893,42092,244885,195437
1629797560903,42098,244876,195445
1629797560913,42096,244914,195428
1629797560923,42091,244904,195418
1629797560933,42085,244883,195387
1629797560943,42083,244816,195370
1629797560953,42069,244844,195366
1629797560963,42065,244857,195347
1629797560973,42063,244819,195357
1629797560983,42058,244814,195360
1629797560993,42054,244817,195370
1629797561003,42056,244818,195338
1629797561013,42049,244817,195355
1629797561023,42035,244829,195327
1629797561033,42032,244755,195368
1629797561043,42035,244763,195352
1629797561053,42035,244779,195327
1629797561063,42033,244753,195350
1629797561073,42028,244757,195335
1629797561083,42019,244754,195320
1629797561093,42021,244725,195329
1629797561103,42024,244762,195336
1629797561113,42017,244720,195344
1629797561123,42013,244724,195330
1629797561133,42007,244740,195345
1629797561143,42010,244740,195337
1629797561153,42005,244704,195340
1629797561163,42013,244685,195341
1629797561173,42019,244682,195371
1629797561183,42032,244712,195358
1629797561193,42024,244676,195344
1629797561203,42025,244696,195366
1629797561213,42026,244708,195376
1629797561223,42030,244709,195355
1629797561233,42031,244720,195378
1629797561243,42030,244720,195384
1629797561253,42037,244732,195382
1629797561263,42038,244744,195368
1629797561273,42035,244748,195383
1629797561283,42044,244736,195374
1629797561293,42046,244733,195384
1629797561303,42052,244731,195384
1629797561313,42053,244717,195392
1629797561323,42059,244728,195375
1629797561333,42064,244742,195392
1629797561343,42069,244709,195356
1629797561353,42072,244726,195400
1629797561363,42070,244731,195387
1629797561373,42071,244722,195389
1629797561383,42079,244725,195396
1629797561393,42078,244744,195394
1629797561403,42081,244727,195413
1629797561413,42091,244783,195389
1629797561423,42089,244769,195395
1629797561433,42094,244747,195398
1629797561443,42094,244767,195394
1629797561453,42108,244798,195402
1629797561463,42102,244805,195404
1629797561473,42117,244783,195372
1629797561483,42111,244804,195418
1629797561493,42118,244819,195375
1629797561503,42126,244821,195390
1629797561513,42131,244803,195402
1629797561523,42141,244784,195385
1629797561533,42143,244792,195393
1629797561543,42145,244825,195405
1629797561553,42157,244846,195362
1629797561563,42152,244834,195411
1629797561573,42158,244813,195402
1629797561583,42165,244875,195391
1629797561593,42165,244864,195403
1629797561603,42170,244843,195398
1629797561613,42173,244863,195384
1629797561623,42177,244873,195395
1629797561633,42182,244903,195396
1629797561643,42182,244904,195402
1629797561653,42196,244918,195380
1629797561663,42193,244860,195380
1629797561673,42196,244881,195387
1629797561683,42216,244876,195397
1629797561693,42206,244935,195386
1629797561703,42213,244918,195389
1629797561713,42219,244923,195379
1629797561723,42223,244942,195398
1629797561733,42233,244925,195389
1629797561743,42220,244948,195385
1629797561753,42231,244953,195382
1629797561763,42234,244977,195389
1629797561773,42241,244979,195397
1629797561783,42246,244964,195382
1629797561793,42242,244979,195390
1629797561803,42250,244953,195378
1629797561813,42261,244988,195413
1629797561823,42258,244981,195362
1629797561833,42267,244990,195389
1629797561843,42271,245022,195377
1629797561853,42281,245010,195379
1629797561863,42284,245002,195372
1629797561873,42283,244998,195361
1629797561883,42285,245001,195354
1629797561893,42294,245067,195373
1629797561903,42295,245044,195380
1629797561913,42305,245073,195384
1629797561923,42307,245084,195373
1629797561933,42308,245064,195345
1629797561943,42308,245052,195346
1629797561953,42314,245077,195327
1629797561963,42307,245014,195315
1629797561973,42297,245053,195299
1629797561983,42296,244995,195280
1629797561993,42292,245020,195266
1629797562003,42286,245018,195261
1629797562013,42274,244998,195262
1629797562023,42275,244967,195267
1629797562033,42271,245005,195282
1629797562043,42269,244982,195262
1629797562053,42262,244955,195253
1629797562063,42260,244951,195245
1629797562073,42256,244985,195235
1629797562083,42257,244939,195236
1629797562093,42247,244929,195249
1629797562103,42245,244926,195248
1629797562113,42242,244931,195233
1629797562123,42234,244929,195246
1629797562133,42238,244929,195244
1629797562143,42238,244900,195224
1629797562153,42234,244858,195252
1629797562163,42226,244873,195212
1629797562173,42222,244901,195238
1629797562183,42223,244898,195237
1629797562193,42217,244830,195236
1629797562203,42216,244874,195232
1629797562213,42224,244867,195246
1629797562223,42223,244879,195252
1629797562233,42219,244869,195239
1629797562243,42219,244850,195241
1629797562253,42222,244937,195251
1629797562263,42225,244839,195233
1629797562273,42225,244879,195239
1629797562283,42228,244870,195245
1629797562293,42220,244863,195248
1629797562303,42230,244874,195252
1629797562313,42220,244888,195275
1629797562323,42224,244858,195246
1629797562333,42223,244885,195249
1629797562343,42225,244878,195247
1629797562353,42227,244861,195255
1629797562363,42222,244869,195251
1629797562373,42234,244865,195255
1629797562383,42226,244875,195236
1629797562393,42229,244873,195244
1629797562403,42223,244884,195236
1629797562413,42232,244855,195231
1629797562423,42232,244880,195254
1629797562433,42238,244883,195246
1629797562443,42235,244905,195251
1629797562453,42234,244890,195245
1629797562463,42238,244895,195259
1629797562473,42243,244883,195232
1629797562483,42252,244913,195250
1629797562493,42249,244923,195241
1629797562503,42250,244924,195252
1629797562513,42251,244903,195247
1629797562523,42250,244909,195259
1629797562533,42250,244901,195261
1629797562543,42257,244913,195260
1629797562553,42261,244932,195237
1629797562563,42265,244896,195268
1629797562573,42265,244916,195252
1629797562583,42266,244936,195248
1629797562593,42270,244882,195258
1629797562603,42273,244912,195250
1629797562613,42272,244927,195257
1629797562623,42273,244974,195258
1629797562633,42268,244950,195250
1629797562643,42283,244953,195251
1629797562653,42280,244923,195245
1629797562663,42284,244940,195237
1629797562673,42280,244966,195235
1629797562683,42285,244971,195236
1629797562693,42285,244965,195232
1629797562703,42294,244996,195233
1629797562713,42295,245007,195221
1629797562723,42292,244982,195222
1629797562733,42303,244992,195219
1629797562743,42302,244997,195223
1629797562753,42300,245019,195228
1629797562763,42299,245003,195233
1629797562773,42301,245011,195194
1629797562783,42291,244976,195242
1629797562793,42309,245016,195202
1629797562803,42318,245021,195215
1629797562813,42321,245010,195214
1629797562823,42321,245016,195213
1629797562833,42318,245008,195199
1629797562843,42321,245049,195189
1629797562853,42329,245023,195201
1629797562863,42329,245037,195227
1629797562873,42339,245008,195207
1629797562883,42333,245051,195188
1629797562893,42337,245050,195220
1629797562903,42340,245011,195195
1629797562913,42347,245037,195179
1629797562923,42353,245078,195182
1629797562933,42347,245081,195212
1629797562943,42346,245065,195168
1629797562953,42346,245029,195138
1629797562963,42338,245054,195145
1629797562973,42336,245036,195105
1629797562983,42322,245065,195105
1629797562993,42317,245021,195091
1629797563003,42305,244983,195067
1629797563013,42302,245004,195062
1629797563023,42290,244978,195106
1629797563033,42290,244952,195054
1629797563043,42275,244948,195061
1629797563053,42271,244932,195047
1629797563063,42265,244916,195046
1629797563073,42254,244890,195069
1629797563083,42251,244869,195048
1629797563093,42252,244895,195055
1629797563103,42244,244878,195054
1629797563113,42227,244879,195045
1629797563123,42220,244850,195014
1629797563133,42223,244827,195039
1629797563143,42207,244801,195027
1629797563153,42208,244808,195022
1629797563163,42199,244820,195022
1629797563173,42198,244802,195028
1629797563183,42182,244808,195023
1629797563193,42178,244762,195011
1629797563203,42169,244761,195019
1629797563213,42167,244757,195050
1629797563223,42167,244805,195034
1629797563233,42164,244760,195049
1629797563243,42172,244789,195038
1629797563253,42165,244771,195054
1629797563263,42162,244773,195060
1629797563273,42158,244762,195050
1629797563283,42154,244757,195059
1629797563293,42153,244758,195058
1629797563303,42144,244730,195022
1629797563313,42152,244737,195037
1629797563323,42151,244754,195048
1629797563333,42148,244718,195052
1629797563343,42148,244737,195051
