timestamp,ecg_waveform
1631023450725,2048
1631023450729,2047
1631023450733,2046
1631023450737,2045
1631023450741,2044
1631023450745,2045
1631023450749,2047
1631023450753,2049
1631023450757,2051
1631023450761,2053
1631023450765,2054
1631023450769,2054
1631023450773,2054
1631023450777,2055
1631023450781,2055
1631023450785,2055
1631023450789,2054
1631023450793,2053
1631023450797,2051
1631023450801,2050
1631023450805,2049
1631023450809,2048
1631023450813,2048
1631023450817,2048
1631023450821,2049
1631023450825,2052
1631023450829,2052
1631023450833,2048
1631023450837,2038
1631023450841,2024
1631023450845,2010
1631023450849,2002
1631023450853,2009
1631023450857,2032
1631023450861,2072
1631023450865,2126
1631023450869,2179
1631023450873,2216
1631023450877,2225
1631023450881,2206
1631023450885,2168
1631023450889,2127
1631023450893,2095
1631023450897,2075
1631023450901,2066
1631023450905,2060
1631023450909,2054
1631023450913,2049
1631023450917,2045
1631023450921,2043
1631023450925,2042
1631023450929,2041
1631023450933,2040
1631023450937,2039
1631023450941,2040
1631023450945,2040
1631023450949,2041
1631023450953,2041
1631023450957,2041
1631023450961,2040
1631023450965,2041
1631023450969,2041
1631023450973,2042
1631023450977,2043
1631023450981,2044
1631023450985,2044
1631023450989,2045
1631023450993,2046
1631023450997,2046
1631023451001,2048
1631023451005,2048
1631023451009,2048
1631023451013,2049
1631023451017,2050
1631023451021,2051
1631023451025,2053
1631023451029,2055
1631023451033,2057
1631023451037,2059
1631023451041,2060
1631023451045,2063
1631023451049,2065
1631023451053,2068
1631023451057,2070
1631023451061,2073
1631023451065,2075
1631023451069,2077
1631023451073,2079
1631023451077,2080
1631023451081,2082
1631023451085,2083
1631023451089,2084
1631023451093,2084
1631023451097,2083
1631023451101,2081
1631023451105,2079
1631023451109,2077
1631023451113,2074
1631023451117,2070
1631023451121,2066
1631023451125,2061
1631023451129,2056
1631023451133,2052
1631023451137,2048
1631023451141,2047
1631023451145,2045
1631023451149,2042
1631023451153,2041
1631023451157,2040
1631023451161,2039
1631023451165,2039
1631023451169,2038
1631023451173,2037
1631023451177,2036
1631023451181,2036
1631023451185,2037
1631023451189,2037
1631023451193,2038
1631023451197,2038
1631023451201,2038
1631023451205,2038
1631023451209,2037
1631023451213,2037
1631023451217,2037
1631023451221,2038
1631023451225,2038
1631023451229,2038
1631023451233,2039
1631023451237,2038
1631023451241,2038
1631023451245,2038
1631023451249,2038
1631023451253,2039
1631023451257,2039
1631023451261,2040
1631023451265,2041
1631023451269,2042
1631023451273,2042
1631023451277,2042
1631023451281,2042
1631023451285,2042
1631023451289,2042
1631023451293,2043
1631023451297,2043
1631023451301,2044
1631023451305,2044
1631023451309,2045
1631023451313,2044
1631023451317,2044
1631023451321,2045
1631023451325,2045
1631023451329,2045
1631023451333,2046
1631023451337,2046
1631023451341,2046
1631023451345,2047
1631023451349,2046
1631023451353,2046
1631023451357,2045
1631023451361,2045
1631023451365,2046
1631023451369,2046
1631023451373,2046
1631023451377,2046
1631023451381,2046
1631023451385,2046
1631023451389,2046
1631023451393,2047
1631023451397,2047
1631023451401,2047
1631023451405,2047
1631023451409,2047
1631023451413,2047
1631023451417,2048
1631023451421,2048
1631023451425,2048
1631023451429,2048
1631023451433,2048
1631023451437,2048
1631023451441,2048
1631023451445,2047
1631023451449,2047
1631023451453,2046
1631023451457,2045
1631023451461,2044
1631023451465,2044
1631023451469,2045
1631023451473,2047
1631023451477,2048
1631023451481,2051
1631023451485,2052
1631023451489,2053
1631023451493,2053
1631023451497,2054
1631023451501,2056
1631023451505,2056
1631023451509,2055
1631023451513,2054
1631023451517,2051
1631023451521,2049
1631023451525,2048
1631023451529,2048
1631023451533,2048
1631023451537,2048
1631023451541,2049
1631023451545,2051
1631023451549,2053
1631023451553,2050
1631023451557,2043
1631023451561,2028
1631023451565,2012
1631023451569,2000
1631023451573,2000
1631023451577,2017
1631023451581,2055
1631023451585,2109
1631023451589,2169
1631023451593,2214
1631023451597,2231
1631023451601,2215
1631023451605,2175
1631023451609,2127
1631023451613,2089
1631023451617,2068
1631023451621,2061
1631023451625,2060
1631023451629,2057
1631023451633,2052
1631023451637,2048
1631023451641,2046
1631023451645,2045
1631023451649,2044
1631023451653,2044
1631023451657,2043
1631023451661,2044
1631023451665,2044
1631023451669,2044
1631023451673,2044
1631023451677,2045
1631023451681,2045
1631023451685,2045
1631023451689,2045
1631023451693,2045
1631023451697,2046
1631023451701,2046
1631023451705,2047
1631023451709,2048
1631023451713,2049
1631023451717,2050
1631023451721,2052
1631023451725,2052
1631023451729,2053
1631023451733,2054
1631023451737,2055
1631023451741,2056
1631023451745,2058
1631023451749,2060
1631023451753,2062
1631023451757,2064
1631023451761,2066
1631023451765,2068
1631023451769,2070
1631023451773,2073
1631023451777,2076
1631023451781,2080
1631023451785,2083
1631023451789,2085
1631023451793,2088
1631023451797,2089
1631023451801,2090
1631023451805,2090
1631023451809,2090
1631023451813,2091
1631023451817,2091
1631023451821,2091
1631023451825,2089
1631023451829,2087
1631023451833,2083
1631023451837,2078
1631023451841,2073
1631023451845,2068
1631023451849,2063
1631023451853,2059
1631023451857,2055
1631023451861,2052
1631023451865,2050
1631023451869,2048
1631023451873,2048
1631023451877,2046
1631023451881,2045
1631023451885,2044
1631023451889,2043
1631023451893,2043
1631023451897,2043
1631023451901,2043
1631023451905,2044
1631023451909,2044
1631023451913,2045
1631023451917,2045
1631023451921,2045
1631023451925,2044
1631023451929,2044
1631023451933,2043
1631023451937,2043
1631023451941,2043
1631023451945,2044
1631023451949,2044
1631023451953,2045
1631023451957,2045
1631023451961,2045
1631023451965,2045
1631023451969,2045
1631023451973,2046
1631023451977,2046
1631023451981,2046
1631023451985,2047
1631023451989,2048
1631023451993,2048
1631023451997,2048
1631023452001,2048
1631023452005,2048
1631023452009,2048
1631023452013,2048
1631023452017,2048
1631023452021,2049
1631023452025,2050
1631023452029,2050
1631023452033,2050
1631023452037,2050
1631023452041,2050
1631023452045,2050
1631023452049,2049
1631023452053,2049
1631023452057,2049
1631023452061,2050
1631023452065,2050
1631023452069,2051
1631023452073,2051
1631023452077,2051
1631023452081,2051
1631023452085,2050
1631023452089,2050
1631023452093,2050
1631023452097,2050
1631023452101,2050
1631023452105,2051
1631023452109,2051
1631023452113,2051
1631023452117,2051
1631023452121,2051
1631023452125,2050
1631023452129,2050
1631023452133,2050
1631023452137,2051
1631023452141,2051
1631023452145,2052
1631023452149,2052
1631023452153,2052
1631023452157,2052
1631023452161,2052
1631023452165,2052
1631023452169,2052
1631023452173,2052
1631023452177,2052
1631023452181,2053
1631023452185,2053
1631023452189,2054
1631023452193,2054
1631023452197,2054
1631023452201,2053
1631023452205,2052
1631023452209,2050
1631023452213,2050
1631023452217,2050
1631023452221,2052
1631023452225,2055
1631023452229,2057
1631023452233,2059
1631023452237,2060
1631023452241,2061
1631023452245,2061
1631023452249,2062
1631023452253,2062
1631023452257,2061
1631023452261,2060
1631023452265,2059
1631023452269,2058
1631023452273,2057
1631023452277,2057
1631023452281,2056
1631023452285,2055
1631023452289,2054
1631023452293,2055
1631023452297,2057
1631023452301,2059
1631023452305,2056
1631023452309,2048
1631023452313,2034
1631023452317,2016
1631023452321,2005
1631023452325,2005
1631023452329,2023
1631023452333,2061
1631023452337,2117
1631023452341,2178
1631023452345,2228
1631023452349,2252
1631023452353,2247
1631023452357,2215
1631023452361,2172
1631023452365,2132
1631023452369,2103
1631023452373,2084
1631023452377,2073
1631023452381,2064
1631023452385,2057
1631023452389,2051
1631023452393,2049
1631023452397,2048
1631023452401,2047
1631023452405,2046
1631023452409,2045
1631023452413,2045
1631023452417,2044
1631023452421,2044
1631023452425,2045
1631023452429,2045
1631023452433,2046
1631023452437,2046
1631023452441,2047
1631023452445,2047
1631023452449,2048
1631023452453,2048
1631023452457,2048
1631023452461,2049
1631023452465,2050
1631023452469,2051
1631023452473,2052
1631023452477,2053
1631023452481,2054
1631023452485,2055
1631023452489,2055
1631023452493,2056
1631023452497,2057
1631023452501,2059
1631023452505,2061
1631023452509,2063
1631023452513,2066
1631023452517,2068
1631023452521,2070
1631023452525,2073
1631023452529,2074
1631023452533,2076
1631023452537,2078
1631023452541,2080
1631023452545,2083
1631023452549,2085
1631023452553,2087
1631023452557,2088
1631023452561,2088
1631023452565,2088
1631023452569,2087
1631023452573,2086
1631023452577,2085
1631023452581,2083
1631023452585,2080
1631023452589,2076
1631023452593,2072
1631023452597,2068
1631023452601,2064
1631023452605,2060
1631023452609,2056
1631023452613,2053
1631023452617,2051
1631023452621,2049
1631023452625,2048
1631023452629,2047
1631023452633,2046
1631023452637,2045
1631023452641,2045
1631023452645,2045
1631023452649,2044
1631023452653,2044
1631023452657,2044
1631023452661,2045
1631023452665,2045
1631023452669,2045
1631023452673,2046
1631023452677,2046
1631023452681,2046
1631023452685,2046
1631023452689,2046
1631023452693,2046
1631023452697,2046
1631023452701,2046
1631023452705,2046
1631023452709,2047
1631023452713,2047
1631023452717,2047
1631023452721,2047
1631023452725,2047
1631023452729,2047
1631023452733,2047
1631023452737,2047
1631023452741,2048
1631023452745,2048
1631023452749,2048
1631023452753,2048
1631023452757,2048
1631023452761,2048
1631023452765,2048
1631023452769,2048
1631023452773,2048
1631023452777,2048
1631023452781,2048
1631023452785,2049
1631023452789,2049
1631023452793,2050
1631023452797,2050
1631023452801,2050
1631023452805,2050
1631023452809,2050
1631023452813,2050
1631023452817,2051
1631023452821,2051
1631023452825,2051
1631023452829,2052
1631023452833,2052
1631023452837,2052
1631023452841,2052
1631023452845,2052
1631023452849,2052
1631023452853,2052
1631023452857,2052
1631023452861,2052
1631023452865,2053
1631023452869,2053
1631023452873,2053
1631023452877,2053
1631023452881,2053
1631023452885,2052
1631023452889,2052
1631023452893,2052
1631023452897,2053
1631023452901,2053
1631023452905,2054
1631023452909,2054
1631023452913,2054
1631023452917,2054
1631023452921,2054
1631023452925,2054
1631023452929,2054
1631023452933,2054
1631023452937,2053
1631023452941,2053
1631023452945,2054
1631023452949,2054
1631023452953,2055
1631023452957,2055
1631023452961,2055
1631023452965,2054
1631023452969,2054
1631023452973,2054
1631023452977,2054
1631023452981,2054
1631023452985,2055
1631023452989,2055
1631023452993,2056
1631023452997,2055
1631023453001,2055
1631023453005,2055
1631023453009,2055
1631023453013,2055
1631023453017,2055
1631023453021,2056
1631023453025,2056
1631023453029,2056
1631023453033,2056
1631023453037,2056
1631023453041,2056
1631023453045,2056
1631023453049,2055
1631023453053,2054
1631023453057,2053
1631023453061,2052
1631023453065,2053
1631023453069,2053
1631023453073,2055
1631023453077,2057
1631023453081,2059
1631023453085,2060
1631023453089,2061
1631023453093,2061
1631023453097,2062
1631023453101,2063
1631023453105,2064
1631023453109,2064
1631023453113,2063
1631023453117,2061
1631023453121,2059
1631023453125,2058
1631023453129,2057
1631023453133,2056
1631023453137,2056
1631023453141,2056
1631023453145,2057
1631023453149,2059
1631023453153,2061
1631023453157,2058
1631023453161,2050
1631023453165,2036
1631023453169,2020
1631023453173,2009
1631023453177,2009
1631023453181,2026
1631023453185,2061
1631023453189,2114
1631023453193,2171
1631023453197,2219
1631023453201,2245
1631023453205,2243
1631023453209,2215
1631023453213,2176
1631023453217,2136
1631023453221,2106
1631023453225,2086
1631023453229,2074
1631023453233,2065
1631023453237,2057
1631023453241,2051
1631023453245,2048
1631023453249,2047
1631023453253,2046
1631023453257,2044
1631023453261,2044
1631023453265,2044
1631023453269,2045
1631023453273,2045
1631023453277,2046
1631023453281,2046
1631023453285,2046
1631023453289,2046
1631023453293,2046
1631023453297,2046
1631023453301,2047
1631023453305,2047
1631023453309,2048
1631023453313,2048
1631023453317,2049
1631023453321,2050
1631023453325,2051
1631023453329,2052
1631023453333,2052
1631023453337,2053
1631023453341,2054
1631023453345,2055
1631023453349,2057
1631023453353,2059
1631023453357,2060
1631023453361,2061
1631023453365,2063
1631023453369,2065
1631023453373,2067
1631023453377,2069
1631023453381,2072
1631023453385,2074
1631023453389,2076
1631023453393,2078
1631023453397,2079
1631023453401,2080
1631023453405,2081
1631023453409,2082
1631023453413,2082
1631023453417,2083
1631023453421,2083
1631023453425,2083
1631023453429,2082
1631023453433,2080
1631023453437,2077
1631023453441,2074
1631023453445,2069
1631023453449,2065
1631023453453,2061
1631023453457,2058
1631023453461,2054
1631023453465,2051
1631023453469,2049
1631023453473,2047
1631023453477,2045
1631023453481,2044
1631023453485,2043
1631023453489,2041
1631023453493,2041
1631023453497,2040
1631023453501,2040
1631023453505,2040
1631023453509,2041
1631023453513,2041
1631023453517,2041
1631023453521,2040
1631023453525,2040
1631023453529,2040
1631023453533,2040
1631023453537,2040
1631023453541,2040
1631023453545,2041
1631023453549,2041
1631023453553,2041
1631023453557,2042
1631023453561,2042
1631023453565,2043
1631023453569,2043
1631023453573,2043
1631023453577,2043
1631023453581,2043
1631023453585,2044
1631023453589,2044
1631023453593,2044
1631023453597,2044
1631023453601,2044
1631023453605,2044
1631023453609,2044
1631023453613,2044
1631023453617,2044
1631023453621,2044
1631023453625,2044
1631023453629,2044
1631023453633,2045
1631023453637,2045
1631023453641,2045
1631023453645,2045
1631023453649,2045
1631023453653,2045
1631023453657,2045
1631023453661,2045
1631023453665,2045
1631023453669,2045
1631023453673,2046
1631023453677,2046
1631023453681,2046
1631023453685,2046
1631023453689,2046
1631023453693,2046
1631023453697,2045
1631023453701,2046
1631023453705,2046
1631023453709,2046
1631023453713,2047
1631023453717,2046
1631023453721,2046
1631023453725,2046
1631023453729,2046
1631023453733,2046
1631023453737,2046
1631023453741,2047
1631023453745,2047
1631023453749,2047
1631023453753,2047
1631023453757,2047
1631023453761,2047
1631023453765,2047
1631023453769,2047
1631023453773,2047
1631023453777,2047
1631023453781,2047
1631023453785,2047
1631023453789,2048
1631023453793,2048
1631023453797,2048
1631023453801,2048
1631023453805,2048
1631023453809,2047
1631023453813,2047
1631023453817,2047
1631023453821,2048
1631023453825,2048
1631023453829,2048
1631023453833,2048
1631023453837,2048
1631023453841,2048
1631023453845,2048
1631023453849,2048
1631023453853,2048
1631023453857,2048
1631023453861,2048
1631023453865,2049
1631023453869,2049
1631023453873,2049
1631023453877,2049
1631023453881,2049
1631023453885,2048
1631023453889,2048
1631023453893,2048
1631023453897,2048
1631023453901,2048
1631023453905,2048
1631023453909,2048
1631023453913,2049
1631023453917,2049
1631023453921,2049
1631023453925,2048
1631023453929,2048
1631023453933,2048
1631023453937,2049
1631023453941,2049
1631023453945,2049
1631023453949,2048
1631023453953,2048
1631023453957,2048
1631023453961,2048
1631023453965,2048
1631023453969,2050
1631023453973,2052
1631023453977,2054
1631023453981,2055
1631023453985,2056
1631023453989,2057
1631023453993,2058
1631023453997,2058
1631023454001,2057
1631023454005,2055
1631023454009,2053
1631023454013,2052
1631023454017,2051
1631023454021,2051
1631023454025,2051
1631023454029,2051
1631023454033,2052
1631023454037,2054
1631023454041,2055
1631023454045,2054
1631023454049,2048
1631023454053,2036
1631023454057,2020
1631023454061,2008
1631023454065,2003
1631023454069,2015
1631023454073,2046
1631023454077,2093
1631023454081,2151
1631023454085,2202
1631023454089,2230
1631023454093,2226
1631023454097,2196
1631023454101,2153
1631023454105,2112
1631023454109,2085
1631023454113,2071
1631023454117,2065
1631023454121,2059
1631023454125,2053
1631023454129,2048
1631023454133,2045
1631023454137,2044
1631023454141,2045
1631023454145,2045
1631023454149,2044
1631023454153,2043
1631023454157,2043
1631023454161,2043
1631023454165,2042
1631023454169,2042
1631023454173,2043
1631023454177,2043
1631023454181,2044
1631023454185,2045
1631023454189,2046
1631023454193,2046
1631023454197,2046
1631023454201,2047
1631023454205,2047
1631023454209,2048
1631023454213,2048
1631023454217,2049
1631023454221,2050
1631023454225,2052
1631023454229,2053
1631023454233,2055
1631023454237,2056
1631023454241,2057
1631023454245,2058
1631023454249,2059
1631023454253,2061
1631023454257,2063
1631023454261,2065
1631023454265,2068
1631023454269,2071
1631023454273,2074
1631023454277,2076
1631023454281,2078
1631023454285,2080
1631023454289,2081
1631023454293,2082
1631023454297,2083
1631023454301,2084
1631023454305,2085
1631023454309,2085
1631023454313,2085
1631023454317,2084
1631023454321,2082
1631023454325,2079
1631023454329,2076
1631023454333,2072
1631023454337,2069
1631023454341,2065
1631023454345,2061
1631023454349,2058
1631023454353,2053
1631023454357,2050
1631023454361,2048
1631023454365,2046
1631023454369,2045
1631023454373,2044
1631023454377,2042
1631023454381,2041
1631023454385,2041
1631023454389,2041
1631023454393,2041
1631023454397,2041
1631023454401,2041
1631023454405,2041
1631023454409,2040
1631023454413,2040
1631023454417,2039
1631023454421,2040
1631023454425,2040
1631023454429,2041
1631023454433,2041
1631023454437,2041
1631023454441,2041
1631023454445,2041
1631023454449,2041
1631023454453,2041
1631023454457,2041
1631023454461,2041
1631023454465,2042
1631023454469,2043
1631023454473,2044
1631023454477,2044
1631023454481,2045
1631023454485,2045
1631023454489,2044
1631023454493,2044
1631023454497,2044
1631023454501,2044
1631023454505,2045
1631023454509,2046
1631023454513,2047
1631023454517,2047
1631023454521,2047
1631023454525,2047
1631023454529,2046
1631023454533,2046
1631023454537,2046
1631023454541,2046
1631023454545,2047
1631023454549,2047
1631023454553,2048
1631023454557,2048
1631023454561,2048
1631023454565,2048
1631023454569,2047
1631023454573,2047
1631023454577,2047
1631023454581,2048
1631023454585,2048
1631023454589,2048
1631023454593,2048
1631023454597,2048
1631023454601,2048
1631023454605,2048
1631023454609,2048
1631023454613,2048
1631023454617,2047
1631023454621,2047
1631023454625,2048
1631023454629,2048
1631023454633,2048
1631023454637,2048
1631023454641,2049
1631023454645,2049
1631023454649,2048
1631023454653,2048
1631023454657,2048
1631023454661,2048
1631023454665,2048
1631023454669,2048
1631023454673,2049
1631023454677,2049
1631023454681,2050
1631023454685,2049
1631023454689,2049
1631023454693,2049
1631023454697,2049
1631023454701,2050
1631023454705,2050
1631023454709,2050
1631023454713,2050
1631023454717,2050
1631023454721,2050
1631023454725,2050
1631023454729,2050
1631023454733,2050
1631023454737,2050
1631023454741,2050
1631023454745,2051
1631023454749,2051
1631023454753,2052
1631023454757,2052
1631023454761,2052
1631023454765,2051
1631023454769,2051
1631023454773,2051
1631023454777,2051
1631023454781,2051
1631023454785,2052
1631023454789,2052
1631023454793,2053
1631023454797,2052
1631023454801,2052
1631023454805,2052
1631023454809,2051
1631023454813,2051
1631023454817,2050
1631023454821,2050
1631023454825,2050
1631023454829,2049
1631023454833,2050
1631023454837,2051
1631023454841,2052
1631023454845,2054
1631023454849,2056
1631023454853,2057
1631023454857,2058
1631023454861,2059
1631023454865,2060
1631023454869,2061
1631023454873,2060
1631023454877,2059
1631023454881,2057
1631023454885,2056
1631023454889,2054
1631023454893,2054
1631023454897,2053
1631023454901,2053
1631023454905,2054
1631023454909,2055
1631023454913,2058
1631023454917,2059
1631023454921,2055
1631023454925,2045
1631023454929,2029
1631023454933,2013
1631023454937,2003
1631023454941,2007
1631023454945,2029
1631023454949,2070
1631023454953,2127
1631023454957,2185
1631023454961,2228
1631023454965,2244
1631023454969,2230
1631023454973,2194
1631023454977,2151
1631023454981,2115
1631023454985,2091
1631023454989,2078
1631023454993,2070
1631023454997,2062
1631023455001,2055
1631023455005,2049
1631023455009,2047
1631023455013,2046
1631023455017,2045
1631023455021,2045
1631023455025,2045
1631023455029,2045
1631023455033,2045
1631023455037,2044
1631023455041,2044
1631023455045,2044
1631023455049,2044
1631023455053,2044
1631023455057,2044
1631023455061,2045
1631023455065,2047
1631023455069,2048
1631023455073,2048
1631023455077,2049
1631023455081,2050
1631023455085,2050
1631023455089,2050
1631023455093,2051
1631023455097,2052
1631023455101,2054
1631023455105,2056
1631023455109,2057
1631023455113,2059
1631023455117,2059
1631023455121,2060
1631023455125,2062
1631023455129,2063
1631023455133,2066
1631023455137,2069
1631023455141,2071
1631023455145,2074
1631023455149,2077
1631023455153,2079
1631023455157,2081
1631023455161,2082
1631023455165,2083
1631023455169,2084
1631023455173,2085
1631023455177,2085
1631023455181,2086
1631023455185,2087
1631023455189,2087
1631023455193,2086
1631023455197,2084
1631023455201,2081
1631023455205,2077
1631023455209,2073
1631023455213,2068
1631023455217,2064
1631023455221,2060
1631023455225,2057
1631023455229,2054
1631023455233,2052
1631023455237,2049
1631023455241,2048
1631023455245,2046
1631023455249,2044
1631023455253,2043
1631023455257,2043
1631023455261,2043
1631023455265,2043
1631023455269,2043
1631023455273,2043
1631023455277,2043
1631023455281,2043
1631023455285,2042
1631023455289,2042
1631023455293,2042
1631023455297,2042
1631023455301,2043
1631023455305,2044
1631023455309,2044
1631023455313,2044
1631023455317,2044
1631023455321,2044
1631023455325,2044
1631023455329,2044
1631023455333,2044
1631023455337,2044
1631023455341,2044
1631023455345,2045
1631023455349,2046
1631023455353,2046
1631023455357,2046
1631023455361,2046
1631023455365,2046
1631023455369,2046
1631023455373,2046
1631023455377,2046
1631023455381,2046
1631023455385,2047
1631023455389,2047
1631023455393,2048
1631023455397,2048
1631023455401,2048
1631023455405,2048
1631023455409,2047
1631023455413,2047
1631023455417,2047
1631023455421,2048
1631023455425,2048
1631023455429,2048
1631023455433,2048
1631023455437,2048
1631023455441,2048
1631023455445,2048
1631023455449,2048
1631023455453,2048
1631023455457,2048
1631023455461,2048
1631023455465,2048
1631023455469,2049
1631023455473,2049
1631023455477,2049
1631023455481,2049
1631023455485,2049
1631023455489,2049
1631023455493,2049
1631023455497,2048
1631023455501,2049
1631023455505,2050
1631023455509,2050
1631023455513,2051
1631023455517,2050
1631023455521,2049
1631023455525,2049
1631023455529,2049
1631023455533,2050
1631023455537,2050
1631023455541,2051
1631023455545,2051
1631023455549,2051
1631023455553,2051
1631023455557,2051
1631023455561,2051
1631023455565,2050
1631023455569,2050
1631023455573,2050
1631023455577,2050
1631023455581,2051
1631023455585,2051
1631023455589,2052
1631023455593,2052
1631023455597,2052
1631023455601,2052
1631023455605,2051
1631023455609,2051
1631023455613,2051
1631023455617,2051
1631023455621,2051
1631023455625,2052
1631023455629,2052
1631023455633,2052
1631023455637,2052
1631023455641,2052
1631023455645,2052
1631023455649,2051
1631023455653,2051
1631023455657,2051
1631023455661,2052
1631023455665,2052
1631023455669,2052
1631023455673,2053
1631023455677,2052
1631023455681,2052
1631023455685,2051
1631023455689,2050
1631023455693,2050
1631023455697,2050
1631023455701,2051
1631023455705,2051
1631023455709,2052
1631023455713,2052
1631023455717,2052
1631023455721,2052
1631023455725,2051
1631023455729,2050
1631023455733,2049
1631023455737,2048
1631023455741,2048
1631023455745,2048
1631023455749,2049
1631023455753,2051
1631023455757,2053
1631023455761,2054
1631023455765,2056
1631023455769,2057
1631023455773,2058
1631023455777,2058
1631023455781,2059
1631023455785,2059
1631023455789,2058
1631023455793,2058
1631023455797,2056
1631023455801,2055
1631023455805,2053
1631023455809,2052
1631023455813,2051
1631023455817,2050
1631023455821,2052
1631023455825,2054
1631023455829,2056
1631023455833,2055
1631023455837,2048
1631023455841,2036
1631023455845,2020
1631023455849,2006
1631023455853,2002
1631023455857,2014
1631023455861,2045
1631023455865,2093
1631023455869,2151
1631023455873,2204
1631023455877,2237
1631023455881,2243
1631023455885,2221
1631023455889,2183
1631023455893,2142
1631023455897,2109
1631023455901,2087
1631023455905,2073
1631023455909,2064
1631023455913,2057
1631023455917,2050
1631023455921,2047
1631023455925,2045
1631023455929,2044
1631023455933,2043
1631023455937,2042
1631023455941,2041
1631023455945,2041
1631023455949,2041
1631023455953,2042
1631023455957,2042
1631023455961,2042
1631023455965,2042
1631023455969,2042
1631023455973,2042
1631023455977,2043
1631023455981,2044
1631023455985,2045
1631023455989,2046
1631023455993,2047
1631023455997,2048
1631023456001,2048
1631023456005,2048
1631023456009,2049
1631023456013,2050
1631023456017,2051
1631023456021,2053
1631023456025,2054
1631023456029,2056
1631023456033,2057
1631023456037,2059
1631023456041,2060
1631023456045,2061
1631023456049,2063
1631023456053,2065
1631023456057,2067
1631023456061,2070
1631023456065,2072
1631023456069,2075
1631023456073,2077
1631023456077,2079
1631023456081,2080
1631023456085,2080
1631023456089,2081
1631023456093,2081
1631023456097,2081
1631023456101,2081
1631023456105,2081
1631023456109,2080
1631023456113,2078
1631023456117,2075
1631023456121,2071
1631023456125,2067
1631023456129,2063
1631023456133,2059
1631023456137,2055
1631023456141,2052
1631023456145,2050
1631023456149,2048
1631023456153,2046
1631023456157,2044
1631023456161,2042
1631023456165,2041
1631023456169,2040
1631023456173,2039
1631023456177,2039
1631023456181,2039
1631023456185,2039
1631023456189,2040
1631023456193,2040
1631023456197,2040
1631023456201,2039
1631023456205,2039
1631023456209,2038
1631023456213,2038
1631023456217,2038
1631023456221,2039
1631023456225,2040
1631023456229,2040
1631023456233,2040
1631023456237,2040
1631023456241,2040
1631023456245,2040
1631023456249,2040
1631023456253,2040
1631023456257,2040
1631023456261,2040
1631023456265,2041
1631023456269,2041
1631023456273,2041
1631023456277,2041
1631023456281,2041
1631023456285,2041
1631023456289,2041
1631023456293,2041
1631023456297,2041
1631023456301,2041
1631023456305,2042
1631023456309,2043
1631023456313,2043
1631023456317,2044
1631023456321,2044
1631023456325,2043
1631023456329,2043
1631023456333,2043
1631023456337,2043
1631023456341,2043
1631023456345,2044
1631023456349,2044
1631023456353,2044
1631023456357,2044
1631023456361,2044
1631023456365,2044
1631023456369,2043
1631023456373,2043
1631023456377,2043
1631023456381,2044
1631023456385,2044
1631023456389,2044
1631023456393,2045
1631023456397,2045
1631023456401,2044
1631023456405,2044
1631023456409,2044
1631023456413,2044
1631023456417,2044
1631023456421,2045
1631023456425,2045
1631023456429,2046
1631023456433,2046
1631023456437,2046
1631023456441,2046
1631023456445,2046
1631023456449,2046
1631023456453,2046
1631023456457,2046
1631023456461,2047
1631023456465,2047
1631023456469,2047
1631023456473,2047
1631023456477,2047
1631023456481,2048
1631023456485,2048
1631023456489,2047
1631023456493,2047
1631023456497,2047
1631023456501,2047
1631023456505,2047
1631023456509,2048
1631023456513,2048
1631023456517,2048
1631023456521,2048
1631023456525,2048
1631023456529,2047
1631023456533,2048
1631023456537,2047
1631023456541,2048
1631023456545,2048
1631023456549,2048
1631023456553,2048
1631023456557,2048
1631023456561,2048
1631023456565,2048
1631023456569,2048
1631023456573,2048
1631023456577,2048
1631023456581,2048
1631023456585,2048
1631023456589,2048
1631023456593,2048
1631023456597,2048
1631023456601,2048
1631023456605,2048
1631023456609,2047
1631023456613,2048
1631023456617,2047
1631023456621,2048
1631023456625,2048
1631023456629,2048
1631023456633,2048
1631023456637,2048
1631023456641,2048
1631023456645,2047
1631023456649,2046
1631023456653,2045
1631023456657,2046
1631023456661,2048
1631023456665,2050
1631023456669,2052
1631023456673,2054
1631023456677,2055
1631023456681,2056
1631023456685,2056
1631023456689,2056
1631023456693,2056
1631023456697,2055
1631023456701,2054
1631023456705,2053
1631023456709,2052
1631023456713,2051
1631023456717,2050
1631023456721,2049
1631023456725,2048
1631023456729,2048
1631023456733,2050
1631023456737,2051
1631023456741,2051
1631023456745,2047
1631023456749,2036
1631023456753,2021
1631023456757,2007
1631023456761,2001
1631023456765,2009
1631023456769,2033
1631023456773,2075
1631023456777,2130
1631023456781,2184
1631023456785,2222
1631023456789,2234
1631023456793,2218
1631023456797,2183
1631023456801,2142
1631023456805,2107
1631023456809,2083
1631023456813,2068
1631023456817,2058
1631023456821,2051
1631023456825,2045
1631023456829,2041
1631023456833,2039
1631023456837,2038
1631023456841,2036
1631023456845,2035
1631023456849,2035
1631023456853,2035
1631023456857,2035
1631023456861,2036
1631023456865,2036
1631023456869,2037
1631023456873,2038
1631023456877,2038
1631023456881,2038
1631023456885,2038
1631023456889,2038
1631023456893,2038
1631023456897,2039
1631023456901,2040
1631023456905,2041
1631023456909,2042
1631023456913,2043
1631023456917,2044
1631023456921,2044
1631023456925,2045
1631023456929,2045
1631023456933,2046
1631023456937,2047
1631023456941,2048
1631023456945,2050
1631023456949,2052
1631023456953,2055
1631023456957,2056
1631023456961,2058
1631023456965,2060
1631023456969,2061
1631023456973,2063
1631023456977,2065
1631023456981,2067
1631023456985,2069
1631023456989,2071
1631023456993,2072
1631023456997,2073
1631023457001,2073
1631023457005,2073
1631023457009,2072
1631023457013,2072
1631023457017,2070
1631023457021,2069
1631023457025,2067
1631023457029,2064
1631023457033,2060
1631023457037,2056
1631023457041,2052
1631023457045,2048
1631023457049,2045
1631023457053,2042
1631023457057,2039
1631023457061,2037
1631023457065,2036
1631023457069,2034
1631023457073,2033
1631023457077,2032
1631023457081,2032
1631023457085,2031
1631023457089,2031
1631023457093,2030
1631023457097,2030
1631023457101,2031
1631023457105,2031
1631023457109,2032
1631023457113,2032
1631023457117,2031
1631023457121,2031
1631023457125,2031
1631023457129,2030
1631023457133,2031
1631023457137,2031
1631023457141,2032
1631023457145,2032
1631023457149,2032
1631023457153,2033
1631023457157,2033
1631023457161,2033
1631023457165,2033
1631023457169,2033
1631023457173,2033
1631023457177,2033
1631023457181,2033
1631023457185,2033
1631023457189,2034
1631023457193,2035
1631023457197,2035
1631023457201,2035
1631023457205,2034
1631023457209,2034
1631023457213,2034
1631023457217,2034
1631023457221,2034
1631023457225,2035
1631023457229,2036
1631023457233,2036
1631023457237,2036
1631023457241,2035
1631023457245,2035
1631023457249,2035
1631023457253,2035
1631023457257,2035
1631023457261,2036
1631023457265,2036
1631023457269,2037
1631023457273,2037
1631023457277,2037
1631023457281,2036
1631023457285,2036
1631023457289,2036
1631023457293,2036
1631023457297,2036
1631023457301,2037
1631023457305,2037
1631023457309,2039
1631023457313,2039
1631023457317,2039
1631023457321,2039
1631023457325,2038
1631023457329,2038
1631023457333,2038
1631023457337,2039
1631023457341,2039
1631023457345,2039
1631023457349,2038
1631023457353,2038
1631023457357,2038
1631023457361,2038
1631023457365,2039
1631023457369,2039
1631023457373,2039
1631023457377,2039
1631023457381,2038
1631023457385,2039
1631023457389,2039
1631023457393,2039
1631023457397,2039
1631023457401,2039
1631023457405,2039
1631023457409,2039
1631023457413,2039
1631023457417,2039
1631023457421,2039
1631023457425,2039
1631023457429,2040
1631023457433,2040
1631023457437,2041
1631023457441,2041
1631023457445,2041
1631023457449,2040
1631023457453,2040
1631023457457,2040
1631023457461,2041
1631023457465,2041
1631023457469,2042
1631023457473,2042
1631023457477,2042
1631023457481,2042
1631023457485,2042
1631023457489,2041
1631023457493,2041
1631023457497,2041
1631023457501,2042
1631023457505,2043
1631023457509,2043
1631023457513,2043
1631023457517,2041
1631023457521,2039
1631023457525,2038
1631023457529,2038
1631023457533,2039
1631023457537,2042
1631023457541,2044
1631023457545,2047
1631023457549,2048
1631023457553,2049
1631023457557,2050
1631023457561,2051
1631023457565,2051
1631023457569,2050
1631023457573,2049
1631023457577,2048
1631023457581,2047
1631023457585,2046
1631023457589,2045
1631023457593,2044
1631023457597,2044
1631023457601,2044
1631023457605,2046
1631023457609,2048
1631023457613,2048
1631023457617,2046
1631023457621,2037
1631023457625,2022
1631023457629,2007
1631023457633,1999
1631023457637,2002
1631023457641,2023
1631023457645,2062
1631023457649,2115
1631023457653,2170
1631023457657,2209
1631023457661,2221
1631023457665,2203
1631023457669,2164
1631023457673,2120
1631023457677,2086
1631023457681,2066
1631023457685,2058
1631023457689,2055
1631023457693,2050
1631023457697,2047
1631023457701,2043
1631023457705,2041
1631023457709,2040
1631023457713,2040
1631023457717,2039
1631023457721,2038
1631023457725,2038
1631023457729,2037
1631023457733,2037
1631023457737,2037
1631023457741,2038
1631023457745,2039
1631023457749,2039
1631023457753,2040
1631023457757,2041
1631023457761,2041
1631023457765,2041
1631023457769,2041
1631023457773,2042
1631023457777,2042
1631023457781,2044
1631023457785,2044
1631023457789,2045
1631023457793,2047
1631023457797,2048
1631023457801,2048
1631023457805,2049
1631023457809,2051
1631023457813,2053
1631023457817,2054
1631023457821,2057
1631023457825,2059
1631023457829,2062
1631023457833,2064
1631023457837,2066
1631023457841,2068
1631023457845,2070
1631023457849,2072
1631023457853,2073
1631023457857,2075
1631023457861,2077
1631023457865,2079
1631023457869,2081
1631023457873,2082
1631023457877,2082
1631023457881,2082
1631023457885,2081
1631023457889,2080
1631023457893,2078
1631023457897,2075
1631023457901,2072
1631023457905,2068
1631023457909,2064
1631023457913,2061
1631023457917,2056
1631023457921,2052
1631023457925,2048
1631023457929,2045
1631023457933,2043
1631023457937,2041
1631023457941,2039
1631023457945,2038
1631023457949,2038
1631023457953,2037
1631023457957,2037
1631023457961,2036
1631023457965,2036
1631023457969,2035
1631023457973,2035
1631023457977,2035
1631023457981,2035
1631023457985,2035
1631023457989,2035
1631023457993,2035
1631023457997,2035
1631023458001,2036
1631023458005,2036
1631023458009,2036
1631023458013,2036
1631023458017,2036
1631023458021,2037
1631023458025,2037
1631023458029,2038
1631023458033,2038
1631023458037,2039
1631023458041,2039
1631023458045,2040
1631023458049,2040
1631023458053,2040
1631023458057,2040
1631023458061,2041
1631023458065,2041
1631023458069,2041
1631023458073,2042
1631023458077,2042
1631023458081,2042
1631023458085,2042
1631023458089,2042
1631023458093,2042
1631023458097,2042
1631023458101,2043
1631023458105,2044
1631023458109,2044
1631023458113,2044
1631023458117,2043
1631023458121,2043
1631023458125,2043
1631023458129,2043
1631023458133,2043
1631023458137,2044
1631023458141,2044
1631023458145,2045
1631023458149,2045
1631023458153,2045
1631023458157,2044
1631023458161,2044
1631023458165,2044
1631023458169,2044
1631023458173,2044
1631023458177,2045
1631023458181,2045
1631023458185,2046
1631023458189,2046
1631023458193,2046
1631023458197,2045
1631023458201,2045
1631023458205,2045
1631023458209,2045
1631023458213,2046
1631023458217,2046
1631023458221,2046
1631023458225,2047
1631023458229,2047
1631023458233,2047
1631023458237,2047
1631023458241,2047
1631023458245,2047
1631023458249,2046
1631023458253,2046
1631023458257,2046
1631023458261,2046
1631023458265,2047
1631023458269,2048
1631023458273,2048
1631023458277,2048
1631023458281,2048
1631023458285,2048
1631023458289,2048
1631023458293,2048
1631023458297,2047
1631023458301,2048
1631023458305,2048
1631023458309,2048
1631023458313,2048
1631023458317,2048
1631023458321,2048
1631023458325,2048
1631023458329,2048
1631023458333,2048
1631023458337,2048
1631023458341,2048
1631023458345,2048
1631023458349,2048
1631023458353,2047
1631023458357,2046
1631023458361,2046
1631023458365,2047
1631023458369,2048
1631023458373,2049
1631023458377,2051
1631023458381,2052
1631023458385,2054
1631023458389,2055
1631023458393,2057
1631023458397,2057
1631023458401,2056
1631023458405,2055
1631023458409,2054
1631023458413,2052
1631023458417,2051
1631023458421,2050
1631023458425,2050
1631023458429,2050
1631023458433,2050
1631023458437,2052
1631023458441,2055
1631023458445,2055
1631023458449,2051
1631023458453,2042
1631023458457,2026
1631023458461,2011
1631023458465,2003
1631023458469,2008
1631023458473,2030
1631023458477,2071
1631023458481,2127
1631023458485,2183
1631023458489,2225
1631023458493,2240
1631023458497,2227
1631023458501,2193
1631023458505,2152
1631023458509,2116
1631023458513,2092
1631023458517,2078
1631023458521,2068
1631023458525,2060
1631023458529,2053
1631023458533,2048
1631023458537,2047
1631023458541,2046
1631023458545,2046
1631023458549,2045
1631023458553,2045
1631023458557,2045
1631023458561,2045
1631023458565,2044
1631023458569,2044
1631023458573,2045
1631023458577,2045
1631023458581,2046
1631023458585,2047
1631023458589,2048
1631023458593,2048
1631023458597,2048
1631023458601,2048
1631023458605,2049
1631023458609,2050
1631023458613,2051
1631023458617,2052
1631023458621,2053
1631023458625,2054
1631023458629,2056
1631023458633,2057
1631023458637,2058
1631023458641,2059
1631023458645,2061
1631023458649,2062
1631023458653,2064
1631023458657,2066
1631023458661,2068
1631023458665,2071
1631023458669,2073
1631023458673,2076
1631023458677,2078
1631023458681,2080
1631023458685,2081
1631023458689,2083
1631023458693,2085
1631023458697,2086
1631023458701,2087
1631023458705,2088
1631023458709,2089
1631023458713,2089
1631023458717,2088
1631023458721,2087
1631023458725,2085
1631023458729,2081
1631023458733,2078
1631023458737,2074
1631023458741,2070
1631023458745,2067
1631023458749,2063
1631023458753,2060
1631023458757,2056
1631023458761,2053
1631023458765,2050
1631023458769,2048
1631023458773,2047
1631023458777,2046
1631023458781,2046
1631023458785,2045
1631023458789,2045
1631023458793,2045
1631023458797,2045
1631023458801,2045
1631023458805,2045
1631023458809,2045
1631023458813,2045
1631023458817,2045
1631023458821,2045
1631023458825,2046
1631023458829,2046
1631023458833,2047
1631023458837,2047
1631023458841,2047
1631023458845,2047
1631023458849,2046
1631023458853,2047
1631023458857,2047
1631023458861,2047
1631023458865,2048
1631023458869,2048
1631023458873,2048
1631023458877,2048
1631023458881,2048
1631023458885,2048
1631023458889,2048
1631023458893,2048
1631023458897,2048
1631023458901,2048
1631023458905,2048
1631023458909,2048
1631023458913,2049
1631023458917,2049
1631023458921,2049
1631023458925,2049
1631023458929,2049
1631023458933,2049
1631023458937,2049
1631023458941,2049
1631023458945,2050
1631023458949,2050
1631023458953,2051
1631023458957,2051
1631023458961,2051
1631023458965,2051
1631023458969,2050
1631023458973,2050
1631023458977,2050
1631023458981,2051
1631023458985,2051
1631023458989,2052
1631023458993,2052
1631023458997,2052
1631023459001,2052
1631023459005,2052
1631023459009,2051
1631023459013,2051
1631023459017,2052
1631023459021,2052
1631023459025,2053
1631023459029,2053
1631023459033,2053
1631023459037,2053
1631023459041,2053
1631023459045,2052
1631023459049,2052
1631023459053,2052
1631023459057,2052
1631023459061,2052
1631023459065,2053
1631023459069,2053
1631023459073,2054
1631023459077,2054
1631023459081,2054
1631023459085,2053
1631023459089,2053
1631023459093,2053
1631023459097,2053
1631023459101,2054
1631023459105,2055
1631023459109,2055
1631023459113,2055
1631023459117,2055
1631023459121,2054
1631023459125,2054
1631023459129,2053
1631023459133,2053
1631023459137,2054
1631023459141,2054
1631023459145,2055
1631023459149,2055
1631023459153,2055
1631023459157,2055
1631023459161,2055
1631023459165,2055
1631023459169,2054
1631023459173,2054
1631023459177,2054
1631023459181,2055
1631023459185,2055
1631023459189,2055
1631023459193,2055
1631023459197,2054
1631023459201,2053
1631023459205,2052
1631023459209,2051
1631023459213,2053
1631023459217,2055
1631023459221,2057
1631023459225,2059
1631023459229,2060
1631023459233,2062
1631023459237,2062
1631023459241,2062
1631023459245,2062
1631023459249,2061
1631023459253,2061
1631023459257,2059
1631023459261,2058
1631023459265,2057
1631023459269,2057
1631023459273,2056
1631023459277,2056
1631023459281,2056
1631023459285,2057
1631023459289,2059
1631023459293,2059
1631023459297,2053
1631023459301,2043
1631023459305,2028
1631023459309,2015
1631023459313,2009
1631023459317,2016
1631023459321,2041
1631023459325,2083
1631023459329,2138
1631023459333,2191
1631023459337,2228
1631023459341,2240
1631023459345,2225
1631023459349,2191
1631023459353,2151
1631023459357,2116
1631023459361,2093
1631023459365,2078
1631023459369,2068
1631023459373,2061
1631023459377,2054
1631023459381,2050
1631023459385,2049
1631023459389,2048
1631023459393,2048
1631023459397,2047
1631023459401,2047
1631023459405,2047
1631023459409,2046
1631023459413,2046
1631023459417,2046
1631023459421,2046
1631023459425,2047
1631023459429,2048
1631023459433,2048
1631023459437,2048
1631023459441,2049
1631023459445,2049
1631023459449,2049
1631023459453,2050
1631023459457,2051
1631023459461,2052
1631023459465,2053
1631023459469,2054
1631023459473,2055
1631023459477,2057
1631023459481,2058
1631023459485,2059
1631023459489,2060
1631023459493,2061
1631023459497,2063
1631023459501,2065
1631023459505,2068
1631023459509,2070
1631023459513,2072
1631023459517,2074
1631023459521,2076
1631023459525,2078
1631023459529,2080
1631023459533,2082
1631023459537,2084
1631023459541,2085
1631023459545,2086
1631023459549,2087
1631023459553,2088
1631023459557,2089
1631023459561,2088
1631023459565,2088
1631023459569,2086
1631023459573,2084
1631023459577,2081
1631023459581,2078
1631023459585,2075
1631023459589,2071
1631023459593,2067
1631023459597,2062
1631023459601,2059
1631023459605,2055
1631023459609,2052
1631023459613,2050
1631023459617,2048
1631023459621,2048
1631023459625,2047
1631023459629,2046
1631023459633,2046
1631023459637,2046
1631023459641,2045
1631023459645,2045
1631023459649,2044
1631023459653,2044
1631023459657,2045
1631023459661,2045
1631023459665,2045
1631023459669,2045
1631023459673,2046
1631023459677,2046
1631023459681,2046
1631023459685,2046
1631023459689,2046
1631023459693,2046
1631023459697,2046
1631023459701,2046
1631023459705,2046
1631023459709,2047
1631023459713,2047
1631023459717,2047
1631023459721,2047
1631023459725,2047
1631023459729,2046
1631023459733,2047
1631023459737,2047
1631023459741,2047
1631023459745,2048
1631023459749,2048
1631023459753,2048
1631023459757,2048
1631023459761,2048
1631023459765,2048
1631023459769,2048
1631023459773,2047
1631023459777,2047
1631023459781,2048
1631023459785,2048
1631023459789,2048
1631023459793,2048
1631023459797,2048
1631023459801,2049
1631023459805,2048
1631023459809,2048
1631023459813,2048
1631023459817,2048
1631023459821,2048
1631023459825,2048
1631023459829,2049
1631023459833,2049
1631023459837,2049
1631023459841,2048
1631023459845,2048
1631023459849,2048
1631023459853,2047
1631023459857,2047
1631023459861,2048
1631023459865,2048
1631023459869,2048
1631023459873,2048
1631023459877,2048
1631023459881,2048
1631023459885,2048
1631023459889,2048
1631023459893,2048
1631023459897,2048
1631023459901,2048
1631023459905,2048
1631023459909,2048
1631023459913,2048
1631023459917,2048
1631023459921,2048
1631023459925,2048
1631023459929,2048
1631023459933,2048
1631023459937,2048
1631023459941,2048
1631023459945,2048
1631023459949,2048
1631023459953,2048
1631023459957,2048
1631023459961,2048
1631023459965,2048
1631023459969,2048
1631023459973,2048
1631023459977,2048
1631023459981,2048
1631023459985,2048
1631023459989,2048
1631023459993,2048
1631023459997,2048
1631023460001,2048
1631023460005,2048
1631023460009,2048
1631023460013,2048
1631023460017,2048
1631023460021,2048
1631023460025,2048
1631023460029,2049
1631023460033,2049
1631023460037,2049
1631023460041,2049
1631023460045,2048
1631023460049,2048
1631023460053,2048
1631023460057,2048
1631023460061,2048
1631023460065,2048
1631023460069,2048
1631023460073,2048
1631023460077,2048
1631023460081,2047
1631023460085,2046
1631023460089,2046
1631023460093,2047
1631023460097,2048
1631023460101,2051
1631023460105,2053
1631023460109,2055
1631023460113,2057
1631023460117,2057
1631023460121,2058
1631023460125,2057
1631023460129,2056
1631023460133,2054
1631023460137,2054
1631023460141,2053
1631023460145,2052
1631023460149,2052
1631023460153,2051
1631023460157,2050
1631023460161,2049
1631023460165,2050
1631023460169,2052
1631023460173,2054
1631023460177,2051
1631023460181,2044
1631023460185,2032
1631023460189,2017
1631023460193,2008
1631023460197,2008
1631023460201,2026
1631023460205,2059
1631023460209,2108
1631023460213,2162
1631023460217,2206
1631023460221,2227
1631023460225,2219
1631023460229,2189
1631023460233,2148
1631023460237,2111
1631023460241,2086
1631023460245,2071
1631023460249,2063
1631023460253,2057
1631023460257,2051
1631023460261,2048
1631023460265,2046
1631023460269,2046
1631023460273,2045
1631023460277,2044
1631023460281,2044
1631023460285,2043
1631023460289,2043
1631023460293,2043
1631023460297,2043
1631023460301,2043
1631023460305,2043
1631023460309,2044
1631023460313,2045
1631023460317,2046
1631023460321,2047
1631023460325,2047
1631023460329,2047
1631023460333,2047
1631023460337,2047
1631023460341,2048
1631023460345,2049
1631023460349,2051
1631023460353,2052
1631023460357,2053
1631023460361,2054
1631023460365,2055
1631023460369,2056
1631023460373,2058
1631023460377,2060
1631023460381,2062
1631023460385,2064
1631023460389,2066
1631023460393,2068
1631023460397,2071
1631023460401,2073
1631023460405,2075
1631023460409,2077
1631023460413,2079
1631023460417,2081
1631023460421,2082
1631023460425,2084
1631023460429,2085
1631023460433,2086
1631023460437,2087
1631023460441,2087
1631023460445,2086
1631023460449,2085
1631023460453,2083
1631023460457,2081
1631023460461,2079
1631023460465,2075
1631023460469,2071
1631023460473,2067
1631023460477,2063
1631023460481,2059
1631023460485,2055
1631023460489,2051
1631023460493,2048
1631023460497,2046
1631023460501,2045
1631023460505,2044
1631023460509,2044
1631023460513,2044
1631023460517,2043
1631023460521,2042
1631023460525,2041
1631023460529,2040
1631023460533,2041
1631023460537,2041
1631023460541,2042
1631023460545,2042
1631023460549,2042
1631023460553,2043
1631023460557,2042
1631023460561,2042
1631023460565,2041
1631023460569,2040
1631023460573,2041
1631023460577,2041
1631023460581,2041
1631023460585,2041
1631023460589,2042
1631023460593,2043
1631023460597,2043
1631023460601,2044
1631023460605,2044
1631023460609,2044
1631023460613,2044
1631023460617,2045
1631023460621,2045
1631023460625,2046
1631023460629,2046
1631023460633,2046
1631023460637,2046
1631023460641,2046
1631023460645,2046
1631023460649,2045
1631023460653,2045
1631023460657,2045
1631023460661,2046
1631023460665,2047
1631023460669,2048
1631023460673,2048
1631023460677,2048
1631023460681,2048
1631023460685,2048
1631023460689,2047
1631023460693,2047
1631023460697,2046
1631023460701,2046
1631023460705,2047
1631023460709,2047
1631023460713,2047
1631023460717,2047
1631023460721,2047
1631023460725,2047
1631023460729,2046
1631023460733,2047
1631023460737,2047
1631023460741,2048
1631023460745,2048
1631023460749,2048
1631023460753,2048
1631023460757,2048
1631023460761,2048
1631023460765,2048
1631023460769,2048
1631023460773,2048
1631023460777,2048
1631023460781,2048
1631023460785,2048
1631023460789,2048
1631023460793,2048
1631023460797,2048
1631023460801,2049
1631023460805,2049
1631023460809,2048
1631023460813,2048
1631023460817,2048
1631023460821,2048
1631023460825,2049
1631023460829,2050
1631023460833,2050
1631023460837,2050
1631023460841,2050
1631023460845,2050
1631023460849,2049
1631023460853,2049
1631023460857,2049
1631023460861,2049
1631023460865,2050
1631023460869,2050
1631023460873,2051
1631023460877,2051
1631023460881,2050
1631023460885,2050
1631023460889,2049
1631023460893,2050
1631023460897,2050
1631023460901,2051
1631023460905,2051
1631023460909,2051
1631023460913,2050
1631023460917,2049
1631023460921,2049
1631023460925,2048
1631023460929,2049
1631023460933,2051
1631023460937,2054
1631023460941,2056
1631023460945,2058
1631023460949,2060
1631023460953,2061
1631023460957,2061
1631023460961,2061
1631023460965,2059
1631023460969,2057
1631023460973,2056
1631023460977,2054
1631023460981,2054
1631023460985,2054
1631023460989,2054
1631023460993,2054
1631023460997,2054
1631023461001,2056
1631023461005,2058
1631023461009,2058
1631023461013,2054
1631023461017,2045
1631023461021,2031
1631023461025,2017
1631023461029,2009
1631023461033,2013
1631023461037,2034
1631023461041,2073
1631023461045,2127
1631023461049,2181
1631023461053,2220
1631023461057,2231
1631023461061,2212
1631023461065,2173
1631023461069,2130
1631023461073,2096
1631023461077,2077
1631023461081,2068
1631023461085,2064
1631023461089,2059
1631023461093,2055
1631023461097,2051
1631023461101,2049
1631023461105,2048
1631023461109,2048
1631023461113,2048
1631023461117,2047
1631023461121,2046
1631023461125,2046
1631023461129,2045
1631023461133,2046
1631023461137,2047
1631023461141,2048
1631023461145,2048
1631023461149,2048
1631023461153,2049
1631023461157,2049
1631023461161,2049
1631023461165,2049
1631023461169,2050
1631023461173,2050
1631023461177,2051
1631023461181,2052
1631023461185,2054
1631023461189,2055
1631023461193,2056
1631023461197,2056
1631023461201,2057
1631023461205,2058
1631023461209,2060
1631023461213,2062
1631023461217,2063
1631023461221,2066
1631023461225,2068
1631023461229,2070
1631023461233,2072
1631023461237,2074
1631023461241,2077
1631023461245,2079
1631023461249,2081
1631023461253,2083
1631023461257,2084
1631023461261,2086
1631023461265,2087
1631023461269,2088
1631023461273,2089
1631023461277,2089
1631023461281,2088
1631023461285,2086
1631023461289,2084
1631023461293,2080
1631023461297,2077
1631023461301,2073
1631023461305,2069
1631023461309,2065
1631023461313,2061
1631023461317,2057
1631023461321,2053
1631023461325,2050
1631023461329,2048
1631023461333,2046
1631023461337,2044
1631023461341,2043
1631023461345,2043
1631023461349,2042
1631023461353,2042
1631023461357,2041
1631023461361,2041
1631023461365,2041
1631023461369,2041
1631023461373,2041
1631023461377,2042
1631023461381,2042
1631023461385,2042
1631023461389,2042
1631023461393,2042
1631023461397,2042
1631023461401,2042
1631023461405,2041
1631023461409,2041
1631023461413,2041
1631023461417,2041
1631023461421,2042
1631023461425,2043
1631023461429,2043
1631023461433,2044
1631023461437,2044
1631023461441,2044
1631023461445,2044
1631023461449,2043
1631023461453,2044
1631023461457,2044
1631023461461,2045
1631023461465,2045
1631023461469,2046
1631023461473,2046
1631023461477,2047
1631023461481,2047
1631023461485,2047
1631023461489,2047
1631023461493,2046
1631023461497,2046
1631023461501,2047
1631023461505,2047
1631023461509,2048
1631023461513,2048
1631023461517,2048
1631023461521,2047
1631023461525,2047
1631023461529,2047
1631023461533,2048
1631023461537,2048
1631023461541,2047
1631023461545,2048
1631023461549,2048
1631023461553,2048
1631023461557,2048
1631023461561,2048
1631023461565,2048
1631023461569,2048
1631023461573,2048
1631023461577,2048
1631023461581,2048
1631023461585,2048
1631023461589,2048
1631023461593,2048
1631023461597,2048
1631023461601,2048
1631023461605,2048
1631023461609,2048
1631023461613,2048
1631023461617,2048
1631023461621,2048
1631023461625,2048
1631023461629,2049
1631023461633,2049
1631023461637,2049
1631023461641,2048
1631023461645,2048
1631023461649,2048
1631023461653,2048
1631023461657,2048
1631023461661,2048
1631023461665,2049
1631023461669,2049
1631023461673,2049
1631023461677,2049
1631023461681,2049
1631023461685,2049
1631023461689,2049
1631023461693,2049
1631023461697,2049
1631023461701,2049
1631023461705,2049
1631023461709,2049
1631023461713,2049
1631023461717,2049
1631023461721,2049
1631023461725,2049
1631023461729,2048
1631023461733,2048
1631023461737,2048
1631023461741,2049
1631023461745,2049
1631023461749,2050
1631023461753,2050
1631023461757,2050
1631023461761,2048
1631023461765,2048
1631023461769,2046
1631023461773,2046
1631023461777,2046
1631023461781,2048
1631023461785,2050
1631023461789,2053
1631023461793,2055
1631023461797,2056
1631023461801,2057
1631023461805,2058
1631023461809,2057
1631023461813,2057
1631023461817,2055
1631023461821,2054
1631023461825,2053
1631023461829,2053
1631023461833,2052
1631023461837,2052
1631023461841,2051
1631023461845,2050
1631023461849,2051
1631023461853,2053
1631023461857,2054
1631023461861,2053
1631023461865,2047
1631023461869,2035
1631023461873,2019
1631023461877,2006
1631023461881,2002
1631023461885,2013
1631023461889,2042
1631023461893,2089
1631023461897,2147
1631023461901,2200
1631023461905,2234
1631023461909,2240
1631023461913,2218
1631023461917,2180
1631023461921,2139
1631023461925,2106
1631023461929,2084
1631023461933,2071
1631023461937,2062
1631023461941,2054
1631023461945,2048
1631023461949,2046
1631023461953,2045
1631023461957,2044
1631023461961,2043
1631023461965,2042
1631023461969,2041
1631023461973,2040
1631023461977,2040
1631023461981,2041
1631023461985,2041
1631023461989,2042
1631023461993,2043
1631023461997,2043
1631023462001,2044
1631023462005,2044
1631023462009,2044
1631023462013,2044
1631023462017,2045
1631023462021,2045
1631023462025,2046
1631023462029,2047
1631023462033,2048
1631023462037,2049
1631023462041,2050
1631023462045,2050
1631023462049,2051
1631023462053,2052
1631023462057,2054
1631023462061,2055
1631023462065,2057
1631023462069,2059
1631023462073,2060
1631023462077,2062
1631023462081,2064
1631023462085,2066
1631023462089,2067
1631023462093,2070
1631023462097,2072
1631023462101,2074
1631023462105,2076
1631023462109,2078
1631023462113,2079
1631023462117,2080
1631023462121,2080
1631023462125,2079
1631023462129,2079
1631023462133,2079
1631023462137,2078
1631023462141,2076
1631023462145,2074
1631023462149,2070
1631023462153,2066
1631023462157,2062
1631023462161,2057
1631023462165,2053
1631023462169,2049
1631023462173,2047
1631023462177,2044
1631023462181,2042
1631023462185,2041
1631023462189,2040
1631023462193,2039
1631023462197,2038
1631023462201,2037
1631023462205,2036
1631023462209,2036
1631023462213,2036
1631023462217,2036
1631023462221,2036
1631023462225,2037
1631023462229,2037
1631023462233,2037
1631023462237,2037
1631023462241,2037
1631023462245,2037
1631023462249,2036
1631023462253,2036
1631023462257,2036
1631023462261,2037
1631023462265,2038
1631023462269,2038
1631023462273,2039
1631023462277,2038
1631023462281,2038
1631023462285,2038
1631023462289,2037
1631023462293,2037
1631023462297,2037
1631023462301,2038
1631023462305,2039
1631023462309,2040
1631023462313,2040
1631023462317,2040
1631023462321,2040
1631023462325,2040
1631023462329,2040
1631023462333,2040
1631023462337,2040
1631023462341,2041
1631023462345,2041
1631023462349,2041
1631023462353,2042
1631023462357,2042
1631023462361,2042
1631023462365,2042
1631023462369,2041
1631023462373,2041
1631023462377,2042
1631023462381,2042
1631023462385,2043
1631023462389,2043
1631023462393,2044
1631023462397,2043
1631023462401,2043
1631023462405,2043
1631023462409,2042
1631023462413,2042
1631023462417,2042
1631023462421,2042
1631023462425,2043
1631023462429,2043
1631023462433,2044
1631023462437,2044
1631023462441,2044
1631023462445,2044
1631023462449,2043
1631023462453,2043
1631023462457,2043
1631023462461,2044
1631023462465,2044
1631023462469,2044
1631023462473,2045
1631023462477,2045
1631023462481,2045
1631023462485,2045
1631023462489,2044
1631023462493,2044
1631023462497,2044
1631023462501,2045
1631023462505,2046
1631023462509,2046
1631023462513,2047
1631023462517,2047
1631023462521,2047
1631023462525,2047
1631023462529,2046
1631023462533,2046
1631023462537,2046
1631023462541,2046
1631023462545,2047
1631023462549,2047
1631023462553,2047
1631023462557,2047
1631023462561,2047
1631023462565,2047
1631023462569,2047
1631023462573,2047
1631023462577,2047
1631023462581,2047
1631023462585,2048
1631023462589,2048
1631023462593,2048
1631023462597,2048
1631023462601,2048
1631023462605,2047
1631023462609,2047
1631023462613,2047
1631023462617,2047
1631023462621,2048
1631023462625,2048
1631023462629,2048
1631023462633,2048
1631023462637,2048
1631023462641,2048
1631023462645,2047
1631023462649,2047
1631023462653,2047
1631023462657,2047
1631023462661,2047
1631023462665,2047
1631023462669,2046
1631023462673,2046
1631023462677,2047
1631023462681,2048
1631023462685,2049
1631023462689,2050
1631023462693,2052
1631023462697,2053
1631023462701,2055
1631023462705,2056
1631023462709,2056
1631023462713,2056
1631023462717,2055
1631023462721,2053
1631023462725,2052
1631023462729,2051
1631023462733,2050
1631023462737,2050
1631023462741,2049
1631023462745,2049
1631023462749,2049
1631023462753,2050
1631023462757,2052
1631023462761,2053
1631023462765,2050
1631023462769,2044
1631023462773,2030
1631023462777,2015
1631023462781,2005
1631023462785,2004
1631023462789,2019
1631023462793,2050
1631023462797,2099
1631023462801,2154
1631023462805,2202
1631023462809,2230
1631023462813,2232
1631023462817,2208
1631023462821,2171
1631023462825,2132
1631023462829,2102
1631023462833,2082
1631023462837,2069
1631023462841,2059
1631023462845,2052
1631023462849,2047
1631023462853,2044
1631023462857,2043
1631023462861,2042
1631023462865,2042
1631023462869,2041
1631023462873,2041
1631023462877,2040
1631023462881,2041
1631023462885,2040
1631023462889,2040
1631023462893,2040
1631023462897,2041
1631023462901,2041
1631023462905,2043
1631023462909,2044
1631023462913,2045
1631023462917,2045
1631023462921,2046
1631023462925,2046
1631023462929,2046
1631023462933,2047
1631023462937,2048
1631023462941,2048
1631023462945,2050
1631023462949,2051
1631023462953,2052
1631023462957,2054
1631023462961,2055
1631023462965,2057
1631023462969,2058
1631023462973,2059
1631023462977,2061
1631023462981,2063
1631023462985,2065
1631023462989,2067
1631023462993,2070
1631023462997,2072
1631023463001,2074
1631023463005,2076
1631023463009,2077
1631023463013,2078
1631023463017,2079
1631023463021,2080
1631023463025,2081
1631023463029,2081
1631023463033,2081
1631023463037,2081
1631023463041,2079
1631023463045,2076
1631023463049,2073
1631023463053,2069
1631023463057,2065
1631023463061,2061
1631023463065,2058
1631023463069,2054
1631023463073,2051
1631023463077,2048
1631023463081,2046
1631023463085,2044
1631023463089,2042
1631023463093,2040
1631023463097,2039
1631023463101,2038
1631023463105,2038
1631023463109,2038
1631023463113,2039
1631023463117,2039
1631023463121,2039
1631023463125,2038
1631023463129,2037
1631023463133,2037
1631023463137,2037
1631023463141,2038
1631023463145,2039
1631023463149,2039
1631023463153,2039
1631023463157,2039
1631023463161,2039
1631023463165,2039
1631023463169,2039
1631023463173,2039
1631023463177,2040
1631023463181,2040
1631023463185,2041
1631023463189,2041
1631023463193,2041
1631023463197,2041
1631023463201,2042
1631023463205,2041
1631023463209,2041
1631023463213,2041
1631023463217,2041
1631023463221,2041
1631023463225,2042
1631023463229,2042
1631023463233,2042
1631023463237,2042
1631023463241,2042
1631023463245,2042
1631023463249,2042
1631023463253,2042
1631023463257,2042
1631023463261,2043
1631023463265,2043
1631023463269,2044
1631023463273,2044
1631023463277,2045
1631023463281,2044
1631023463285,2044
1631023463289,2044
1631023463293,2045
1631023463297,2045
1631023463301,2046
1631023463305,2046
1631023463309,2047
1631023463313,2047
1631023463317,2046
1631023463321,2046
1631023463325,2045
1631023463329,2045
1631023463333,2045
1631023463337,2045
1631023463341,2046
1631023463345,2047
1631023463349,2047
1631023463353,2047
1631023463357,2047
1631023463361,2047
1631023463365,2048
1631023463369,2048
1631023463373,2047
1631023463377,2047
1631023463381,2047
1631023463385,2048
1631023463389,2048
1631023463393,2048
1631023463397,2048
1631023463401,2048
1631023463405,2048
1631023463409,2048
1631023463413,2048
1631023463417,2048
1631023463421,2048
1631023463425,2048
1631023463429,2048
1631023463433,2048
1631023463437,2048
1631023463441,2048
1631023463445,2048
1631023463449,2048
1631023463453,2048
1631023463457,2049
1631023463461,2049
1631023463465,2049
1631023463469,2049
1631023463473,2049
1631023463477,2049
1631023463481,2049
1631023463485,2049
1631023463489,2050
1631023463493,2050
1631023463497,2049
1631023463501,2050
1631023463505,2050
1631023463509,2050
1631023463513,2050
1631023463517,2050
1631023463521,2050
1631023463525,2050
1631023463529,2050
1631023463533,2050
1631023463537,2050
1631023463541,2050
1631023463545,2050
1631023463549,2050
1631023463553,2051
1631023463557,2051
1631023463561,2051
1631023463565,2051
1631023463569,2050
1631023463573,2049
1631023463577,2048
1631023463581,2048
1631023463585,2048
1631023463589,2048
1631023463593,2049
1631023463597,2051
1631023463601,2053
1631023463605,2055
1631023463609,2056
1631023463613,2057
1631023463617,2058
1631023463621,2059
1631023463625,2059
1631023463629,2059
1631023463633,2058
1631023463637,2056
1631023463641,2054
1631023463645,2053
1631023463649,2052
1631023463653,2051
1631023463657,2051
1631023463661,2050
1631023463665,2051
1631023463669,2053
1631023463673,2055
1631023463677,2054
1631023463681,2048
1631023463685,2037
1631023463689,2022
1631023463693,2009
1631023463697,2005
1631023463701,2016
1631023463705,2046
1631023463709,2092
1631023463713,2148
1631023463717,2197
1631023463721,2224
1631023463725,2222
1631023463729,2193
1631023463733,2151
1631023463737,2111
1631023463741,2084
1631023463745,2070
1631023463749,2063
1631023463753,2059
1631023463757,2053
1631023463761,2048
1631023463765,2046
1631023463769,2044
1631023463773,2044
1631023463777,2043
1631023463781,2043
1631023463785,2043
1631023463789,2043
1631023463793,2043
1631023463797,2043
1631023463801,2043
1631023463805,2043
1631023463809,2043
1631023463813,2044
1631023463817,2044
1631023463821,2045
1631023463825,2045
1631023463829,2046
1631023463833,2047
1631023463837,2048
1631023463841,2048
1631023463845,2049
1631023463849,2049
1631023463853,2050
1631023463857,2050
1631023463861,2051
1631023463865,2053
1631023463869,2055
1631023463873,2057
1631023463877,2058
1631023463881,2059
1631023463885,2061
1631023463889,2062
1631023463893,2064
1631023463897,2066
1631023463901,2069
1631023463905,2072
1631023463909,2075
1631023463913,2077
1631023463917,2079
1631023463921,2080
1631023463925,2081
1631023463929,2082
1631023463933,2083
1631023463937,2084
1631023463941,2084
1631023463945,2085
1631023463949,2084
1631023463953,2082
1631023463957,2080
1631023463961,2078
1631023463965,2074
1631023463969,2070
1631023463973,2066
1631023463977,2062
1631023463981,2058
1631023463985,2055
1631023463989,2052
1631023463993,2049
1631023463997,2048
1631023464001,2046
1631023464005,2044
1631023464009,2042
1631023464013,2041
1631023464017,2040
1631023464021,2040
1631023464025,2040
1631023464029,2041
1631023464033,2041
1631023464037,2041
1631023464041,2041
1631023464045,2040
1631023464049,2040
1631023464053,2040
1631023464057,2040
1631023464061,2040
1631023464065,2040
1631023464069,2040
1631023464073,2040
1631023464077,2040
1631023464081,2041
1631023464085,2041
1631023464089,2041
1631023464093,2041
1631023464097,2041
1631023464101,2041
1631023464105,2042
1631023464109,2043
1631023464113,2043
1631023464117,2043
1631023464121,2043
1631023464125,2043
1631023464129,2043
1631023464133,2043
1631023464137,2044
1631023464141,2044
1631023464145,2045
1631023464149,2045
1631023464153,2045
1631023464157,2045
1631023464161,2045
1631023464165,2045
1631023464169,2045
1631023464173,2045
1631023464177,2045
1631023464181,2045
1631023464185,2046
1631023464189,2046
1631023464193,2046
1631023464197,2045
1631023464201,2045
1631023464205,2045
1631023464209,2044
1631023464213,2044
1631023464217,2044
1631023464221,2044
1631023464225,2044
1631023464229,2045
1631023464233,2046
1631023464237,2046
1631023464241,2046
1631023464245,2045
1631023464249,2044
1631023464253,2044
1631023464257,2044
1631023464261,2044
1631023464265,2045
1631023464269,2045
1631023464273,2046
1631023464277,2046
1631023464281,2046
1631023464285,2046
1631023464289,2046
1631023464293,2046
1631023464297,2046
1631023464301,2046
1631023464305,2046
1631023464309,2047
1631023464313,2047
1631023464317,2047
1631023464321,2047
1631023464325,2047
1631023464329,2047
1631023464333,2046
1631023464337,2046
1631023464341,2047
1631023464345,2047
1631023464349,2048
1631023464353,2048
1631023464357,2047
1631023464361,2047
1631023464365,2047
1631023464369,2047
1631023464373,2047
1631023464377,2047
1631023464381,2047
1631023464385,2047
1631023464389,2048
1631023464393,2048
1631023464397,2048
1631023464401,2048
1631023464405,2048
1631023464409,2048
1631023464413,2048
1631023464417,2048
1631023464421,2048
1631023464425,2048
1631023464429,2048
1631023464433,2048
1631023464437,2046
1631023464441,2045
1631023464445,2045
1631023464449,2046
1631023464453,2047
1631023464457,2049
1631023464461,2051
1631023464465,2054
1631023464469,2056
1631023464473,2057
1631023464477,2058
1631023464481,2057
1631023464485,2056
1631023464489,2053
1631023464493,2052
1631023464497,2051
1631023464501,2050
1631023464505,2051
1631023464509,2050
1631023464513,2050
1631023464517,2050
1631023464521,2050
1631023464525,2052
1631023464529,2053
1631023464533,2050
1631023464537,2043
1631023464541,2030
1631023464545,2015
1631023464549,2004
1631023464553,2003
1631023464557,2018
1631023464561,2050
1631023464565,2100
1631023464569,2157
1631023464573,2205
1631023464577,2230
1631023464581,2226
1631023464585,2196
1631023464589,2154
1631023464593,2115
1631023464597,2089
1631023464601,2074
1631023464605,2065
1631023464609,2058
1631023464613,2051
1631023464617,2046
1631023464621,2043
1631023464625,2043
1631023464629,2043
1631023464633,2042
1631023464637,2041
1631023464641,2040
1631023464645,2040
1631023464649,2040
1631023464653,2040
1631023464657,2041
1631023464661,2041
1631023464665,2042
1631023464669,2043
1631023464673,2043
1631023464677,2044
1631023464681,2044
1631023464685,2044
1631023464689,2044
1631023464693,2045
1631023464697,2046
1631023464701,2047
1631023464705,2048
1631023464709,2049
1631023464713,2051
1631023464717,2052
1631023464721,2054
1631023464725,2055
1631023464729,2056
1631023464733,2057
1631023464737,2059
1631023464741,2061
1631023464745,2063
1631023464749,2065
1631023464753,2068
1631023464757,2070
1631023464761,2072
1631023464765,2074
1631023464769,2076
1631023464773,2078
1631023464777,2080
1631023464781,2082
1631023464785,2083
1631023464789,2085
1631023464793,2085
1631023464797,2086
1631023464801,2085
1631023464805,2084
1631023464809,2083
1631023464813,2080
1631023464817,2077
1631023464821,2073
1631023464825,2069
1631023464829,2065
1631023464833,2061
1631023464837,2057
1631023464841,2053
1631023464845,2050
1631023464849,2047
1631023464853,2045
1631023464857,2043
1631023464861,2043
1631023464865,2042
1631023464869,2042
1631023464873,2042
1631023464877,2042
1631023464881,2041
1631023464885,2040
1631023464889,2040
1631023464893,2039
1631023464897,2039
1631023464901,2040
1631023464905,2041
1631023464909,2041
1631023464913,2041
1631023464917,2041
1631023464921,2041
1631023464925,2041
1631023464929,2041
1631023464933,2041
1631023464937,2042
1631023464941,2042
1631023464945,2043
1631023464949,2043
1631023464953,2043
1631023464957,2044
1631023464961,2044
1631023464965,2044
1631023464969,2043
1631023464973,2044
1631023464977,2044
1631023464981,2045
1631023464985,2046
1631023464989,2046
1631023464993,2046
1631023464997,2046
1631023465001,2046
1631023465005,2046
1631023465009,2046
1631023465013,2046
1631023465017,2046
1631023465021,2047
1631023465025,2048
1631023465029,2048
1631023465033,2048
1631023465037,2048
1631023465041,2048
1631023465045,2048
1631023465049,2047
1631023465053,2048
1631023465057,2048
1631023465061,2048
1631023465065,2048
1631023465069,2048
1631023465073,2049
1631023465077,2049
1631023465081,2049
1631023465085,2049
1631023465089,2048
1631023465093,2048
1631023465097,2048
1631023465101,2049
1631023465105,2050
1631023465109,2050
1631023465113,2050
1631023465117,2050
1631023465121,2050
1631023465125,2049
1631023465129,2049
1631023465133,2050
1631023465137,2050
1631023465141,2051
1631023465145,2051
1631023465149,2051
1631023465153,2051
1631023465157,2051
1631023465161,2051
1631023465165,2051
1631023465169,2051
1631023465173,2051
1631023465177,2051
1631023465181,2051
1631023465185,2052
1631023465189,2053
1631023465193,2053
1631023465197,2053
1631023465201,2053
1631023465205,2053
1631023465209,2052
1631023465213,2052
1631023465217,2052
1631023465221,2053
1631023465225,2054
1631023465229,2054
1631023465233,2054
1631023465237,2054
1631023465241,2054
1631023465245,2054
1631023465249,2053
1631023465253,2053
1631023465257,2053
1631023465261,2053
1631023465265,2054
1631023465269,2055
1631023465273,2055
1631023465277,2055
1631023465281,2055
1631023465285,2054
1631023465289,2054
1631023465293,2054
1631023465297,2054
1631023465301,2054
1631023465305,2054
1631023465309,2054
1631023465313,2053
1631023465317,2051
1631023465321,2051
1631023465325,2051
1631023465329,2052
1631023465333,2054
1631023465337,2056
1631023465341,2058
1631023465345,2060
1631023465349,2061
1631023465353,2061
1631023465357,2062
1631023465361,2062
1631023465365,2061
1631023465369,2060
1631023465373,2059
1631023465377,2058
1631023465381,2057
1631023465385,2056
1631023465389,2055
1631023465393,2055
1631023465397,2054
1631023465401,2055
1631023465405,2057
1631023465409,2058
1631023465413,2056
1631023465417,2048
1631023465421,2035
1631023465425,2019
1631023465429,2007
1631023465433,2007
1631023465437,2021
1631023465441,2054
1631023465445,2104
1631023465449,2160
1631023465453,2210
1631023465457,2239
1631023465461,2241
1631023465465,2216
1631023465469,2177
1631023465473,2138
1631023465477,2107
1631023465481,2086
1631023465485,2073
1631023465489,2063
1631023465493,2055
1631023465497,2049
1631023465501,2047
1631023465505,2046
1631023465509,2046
1631023465513,2045
1631023465517,2044
1631023465521,2043
1631023465525,2043
1631023465529,2042
1631023465533,2043
1631023465537,2043
1631023465541,2043
1631023465545,2044
1631023465549,2045
1631023465553,2045
1631023465557,2046
1631023465561,2046
1631023465565,2047
1631023465569,2047
1631023465573,2048
1631023465577,2048
1631023465581,2049
1631023465585,2050
1631023465589,2052
1631023465593,2053
1631023465597,2054
1631023465601,2055
1631023465605,2056
1631023465609,2057
1631023465613,2058
1631023465617,2060
1631023465621,2062
1631023465625,2064
1631023465629,2067
1631023465633,2069
1631023465637,2071
1631023465641,2073
1631023465645,2075
1631023465649,2077
1631023465653,2078
1631023465657,2080
1631023465661,2081
1631023465665,2083
1631023465669,2084
1631023465673,2085
1631023465677,2085
1631023465681,2085
1631023465685,2084
1631023465689,2082
1631023465693,2080
1631023465697,2077
1631023465701,2074
1631023465705,2071
1631023465709,2067
1631023465713,2063
1631023465717,2059
1631023465721,2055
1631023465725,2051
1631023465729,2048
1631023465733,2047
1631023465737,2045
1631023465741,2044
1631023465745,2043
1631023465749,2042
1631023465753,2042
1631023465757,2041
1631023465761,2041
1631023465765,2040
1631023465769,2040
1631023465773,2040
1631023465777,2040
1631023465781,2041
1631023465785,2041
1631023465789,2042
1631023465793,2042
1631023465797,2042
1631023465801,2042
1631023465805,2041
1631023465809,2041
1631023465813,2041
1631023465817,2041
1631023465821,2041
1631023465825,2042
1631023465829,2042
1631023465833,2042
1631023465837,2042
1631023465841,2042
1631023465845,2042
1631023465849,2042
1631023465853,2042
1631023465857,2042
1631023465861,2043
1631023465865,2043
1631023465869,2044
1631023465873,2044
1631023465877,2044
1631023465881,2045
1631023465885,2044
1631023465889,2044
1631023465893,2044
1631023465897,2044
1631023465901,2044
1631023465905,2045
1631023465909,2045
1631023465913,2046
1631023465917,2046
1631023465921,2045
1631023465925,2045
1631023465929,2044
1631023465933,2044
1631023465937,2045
1631023465941,2045
1631023465945,2046
1631023465949,2046
1631023465953,2046
1631023465957,2046
1631023465961,2045
1631023465965,2045
1631023465969,2045
1631023465973,2045
1631023465977,2045
1631023465981,2046
1631023465985,2046
1631023465989,2047
1631023465993,2047
1631023465997,2047
1631023466001,2047
1631023466005,2047
1631023466009,2046
1631023466013,2046
1631023466017,2046
1631023466021,2046
1631023466025,2047
1631023466029,2047
1631023466033,2047
1631023466037,2047
1631023466041,2047
1631023466045,2047
1631023466049,2047
1631023466053,2047
1631023466057,2047
1631023466061,2048
1631023466065,2048
1631023466069,2048
1631023466073,2048
1631023466077,2048
1631023466081,2047
1631023466085,2047
1631023466089,2046
1631023466093,2046
1631023466097,2046
1631023466101,2047
1631023466105,2048
1631023466109,2048
1631023466113,2048
1631023466117,2048
1631023466121,2048
1631023466125,2047
1631023466129,2047
1631023466133,2046
1631023466137,2046
1631023466141,2047
1631023466145,2047
1631023466149,2047
1631023466153,2048
1631023466157,2048
1631023466161,2048
1631023466165,2048
1631023466169,2047
1631023466173,2047
1631023466177,2047
1631023466181,2047
1631023466185,2048
1631023466189,2048
1631023466193,2048
1631023466197,2048
1631023466201,2048
1631023466205,2048
1631023466209,2048
1631023466213,2048
1631023466217,2048
1631023466221,2048
1631023466225,2047
1631023466229,2046
1631023466233,2045
1631023466237,2045
1631023466241,2046
1631023466245,2048
1631023466249,2049
1631023466253,2051
1631023466257,2052
1631023466261,2054
1631023466265,2055
1631023466269,2056
1631023466273,2056
1631023466277,2055
1631023466281,2054
1631023466285,2052
1631023466289,2051
1631023466293,2050
1631023466297,2049
1631023466301,2049
1631023466305,2049
1631023466309,2049
1631023466313,2050
1631023466317,2051
1631023466321,2053
1631023466325,2050
1631023466329,2044
1631023466333,2031
1631023466337,2016
1631023466341,2006
1631023466345,2004
1631023466349,2019
1631023466353,2049
1631023466357,2098
1631023466361,2152
1631023466365,2199
1631023466369,2225
1631023466373,2223
1631023466377,2196
1631023466381,2156
1631023466385,2118
1631023466389,2090
1631023466393,2074
1631023466397,2065
1631023466401,2057
1631023466405,2051
1631023466409,2046
1631023466413,2043
1631023466417,2042
1631023466421,2041
1631023466425,2040
1631023466429,2039
1631023466433,2039
1631023466437,2038
1631023466441,2038
1631023466445,2038
1631023466449,2039
1631023466453,2039
1631023466457,2039
1631023466461,2040
1631023466465,2041
1631023466469,2041
1631023466473,2042
1631023466477,2043
1631023466481,2043
1631023466485,2043
1631023466489,2043
1631023466493,2044
1631023466497,2045
1631023466501,2047
1631023466505,2048
1631023466509,2049
1631023466513,2051
1631023466517,2052
1631023466521,2052
1631023466525,2054
1631023466529,2055
1631023466533,2057
1631023466537,2059
1631023466541,2061
1631023466545,2064
1631023466549,2066
1631023466553,2069
1631023466557,2071
1631023466561,2073
1631023466565,2075
1631023466569,2076
1631023466573,2078
1631023466577,2079
1631023466581,2080
1631023466585,2081
1631023466589,2081
1631023466593,2081
1631023466597,2081
1631023466601,2079
1631023466605,2077
1631023466609,2074
1631023466613,2070
1631023466617,2066
1631023466621,2062
1631023466625,2059
1631023466629,2055
1631023466633,2052
1631023466637,2048
1631023466641,2046
1631023466645,2043
1631023466649,2040
1631023466653,2038
1631023466657,2037
1631023466661,2037
1631023466665,2038
1631023466669,2038
1631023466673,2038
1631023466677,2038
1631023466681,2037
1631023466685,2036
1631023466689,2036
1631023466693,2036
1631023466697,2037
1631023466701,2037
1631023466705,2038
1631023466709,2038
1631023466713,2038
1631023466717,2038
1631023466721,2037
1631023466725,2037
1631023466729,2037
1631023466733,2037
1631023466737,2038
1631023466741,2039
1631023466745,2040
1631023466749,2040
1631023466753,2040
1631023466757,2040
1631023466761,2040
1631023466765,2040
1631023466769,2039
1631023466773,2040
1631023466777,2040
1631023466781,2040
1631023466785,2040
1631023466789,2041
1631023466793,2041
1631023466797,2042
1631023466801,2042
1631023466805,2042
1631023466809,2042
1631023466813,2042
1631023466817,2041
1631023466821,2042
1631023466825,2042
1631023466829,2042
1631023466833,2043
1631023466837,2043
1631023466841,2043
1631023466845,2043
1631023466849,2043
1631023466853,2043
1631023466857,2043
1631023466861,2043
1631023466865,2043
1631023466869,2044
1631023466873,2044
1631023466877,2044
1631023466881,2043
1631023466885,2042
1631023466889,2042
1631023466893,2042
1631023466897,2042
1631023466901,2043
1631023466905,2044
1631023466909,2044
1631023466913,2045
1631023466917,2045
1631023466921,2045
1631023466925,2045
1631023466929,2044
1631023466933,2044
1631023466937,2043
1631023466941,2043
1631023466945,2044
1631023466949,2045
1631023466953,2045
1631023466957,2045
1631023466961,2044
1631023466965,2044
1631023466969,2044
1631023466973,2044
1631023466977,2044
1631023466981,2045
1631023466985,2046
1631023466989,2046
1631023466993,2045
1631023466997,2045
1631023467001,2045
1631023467005,2045
1631023467009,2044
1631023467013,2045
1631023467017,2045
1631023467021,2045
1631023467025,2045
1631023467029,2045
1631023467033,2046
1631023467037,2046
1631023467041,2045
1631023467045,2045
1631023467049,2045
1631023467053,2045
1631023467057,2046
1631023467061,2047
1631023467065,2047
1631023467069,2047
1631023467073,2047
1631023467077,2046
1631023467081,2044
1631023467085,2043
1631023467089,2042
1631023467093,2043
1631023467097,2045
1631023467101,2048
1631023467105,2050
1631023467109,2052
1631023467113,2054
1631023467117,2055
1631023467121,2055
1631023467125,2055
1631023467129,2054
1631023467133,2053
1631023467137,2051
1631023467141,2051
1631023467145,2050
1631023467149,2050
1631023467153,2050
1631023467157,2049
1631023467161,2049
1631023467165,2049
1631023467169,2050
1631023467173,2052
1631023467177,2052
1631023467181,2048
1631023467185,2037
1631023467189,2022
1631023467193,2009
1631023467197,2003
1631023467201,2011
1631023467205,2038
1631023467209,2081
1631023467213,2137
1631023467217,2189
1631023467221,2221
1631023467225,2223
1631023467229,2196
1631023467233,2154
1631023467237,2111
1631023467241,2081
1631023467245,2066
1631023467249,2060
1631023467253,2058
1631023467257,2054
1631023467261,2050
1631023467265,2048
1631023467269,2047
1631023467273,2047
1631023467277,2046
1631023467281,2045
1631023467285,2044
1631023467289,2044
1631023467293,2044
1631023467297,2044
1631023467301,2045
1631023467305,2046
1631023467309,2047
1631023467313,2048
1631023467317,2048
1631023467321,2048
1631023467325,2048
1631023467329,2048
1631023467333,2048
1631023467337,2049
1631023467341,2051
1631023467345,2052
1631023467349,2053
1631023467353,2054
1631023467357,2055
1631023467361,2056
1631023467365,2057
1631023467369,2058
1631023467373,2060
1631023467377,2062
1631023467381,2065
1631023467385,2067
1631023467389,2069
1631023467393,2071
1631023467397,2073
1631023467401,2076
1631023467405,2078
1631023467409,2080
1631023467413,2082
1631023467417,2084
1631023467421,2086
1631023467425,2088
1631023467429,2090
1631023467433,2091
1631023467437,2092
1631023467441,2092
1631023467445,2092
1631023467449,2091
1631023467453,2090
1631023467457,2089
1631023467461,2086
1631023467465,2083
1631023467469,2079
1631023467473,2074
1631023467477,2070
1631023467481,2066
1631023467485,2062
1631023467489,2058
1631023467493,2055
1631023467497,2052
1631023467501,2051
1631023467505,2049
1631023467509,2049
1631023467513,2048
1631023467517,2048
1631023467521,2047
1631023467525,2047
1631023467529,2047
1631023467533,2048
1631023467537,2048
1631023467541,2048
1631023467545,2048
1631023467549,2048
1631023467553,2048
1631023467557,2048
1631023467561,2048
1631023467565,2048
1631023467569,2048
1631023467573,2048
1631023467577,2048
1631023467581,2048
1631023467585,2049
1631023467589,2049
1631023467593,2050
1631023467597,2050
1631023467601,2051
1631023467605,2051
1631023467609,2051
1631023467613,2051
1631023467617,2051
1631023467621,2052
1631023467625,2053
1631023467629,2054
1631023467633,2055
1631023467637,2055
1631023467641,2055
1631023467645,2055
1631023467649,2055
1631023467653,2055
1631023467657,2056
1631023467661,2056
1631023467665,2057
1631023467669,2057
1631023467673,2057
1631023467677,2057
1631023467681,2057
1631023467685,2057
1631023467689,2057
1631023467693,2057
1631023467697,2058
1631023467701,2059
1631023467705,2059
1631023467709,2060
1631023467713,2060
1631023467717,2060
1631023467721,2060
1631023467725,2060
1631023467729,2059
1631023467733,2060
1631023467737,2060
1631023467741,2060
1631023467745,2061
1631023467749,2061
1631023467753,2062
1631023467757,2062
1631023467761,2062
1631023467765,2062
1631023467769,2062
1631023467773,2062
1631023467777,2062
1631023467781,2063
1631023467785,2063
1631023467789,2064
1631023467793,2064
1631023467797,2064
1631023467801,2064
1631023467805,2064
1631023467809,2064
1631023467813,2064
1631023467817,2064
1631023467821,2065
1631023467825,2065
1631023467829,2066
1631023467833,2067
1631023467837,2067
1631023467841,2067
1631023467845,2066
1631023467849,2066
1631023467853,2066
1631023467857,2066
1631023467861,2066
1631023467865,2067
1631023467869,2067
1631023467873,2068
1631023467877,2068
1631023467881,2068
1631023467885,2068
1631023467889,2068
1631023467893,2067
1631023467897,2067
1631023467901,2068
1631023467905,2068
1631023467909,2069
1631023467913,2069
1631023467917,2069
1631023467921,2068
1631023467925,2067
1631023467929,2065
1631023467933,2065
1631023467937,2066
1631023467941,2068
1631023467945,2071
1631023467949,2073
1631023467953,2075
1631023467957,2076
1631023467961,2077
1631023467965,2077
1631023467969,2077
1631023467973,2077
1631023467977,2076
1631023467981,2075
1631023467985,2074
1631023467989,2073
1631023467993,2073
1631023467997,2072
1631023468001,2071
1631023468005,2070
1631023468009,2070
1631023468013,2072
1631023468017,2074
1631023468021,2074
1631023468025,2070
1631023468029,2059
1631023468033,2044
1631023468037,2029
1631023468041,2020
1631023468045,2027
1631023468049,2049
1631023468053,2092
1631023468057,2149
1631023468061,2206
1631023468065,2248
1631023468069,2265
1631023468073,2252
1631023468077,2218
1631023468081,2176
1631023468085,2139
1631023468089,2113
1631023468093,2096
1631023468097,2085
1631023468101,2078
1631023468105,2071
1631023468109,2066
1631023468113,2065
1631023468117,2063
1631023468121,2062
1631023468125,2061
1631023468129,2060
1631023468133,2060
1631023468137,2060
1631023468141,2060
1631023468145,2061
1631023468149,2062
1631023468153,2062
1631023468157,2063
1631023468161,2063
1631023468165,2064
1631023468169,2064
1631023468173,2064
1631023468177,2065
1631023468181,2066
1631023468185,2067
1631023468189,2068
1631023468193,2069
1631023468197,2070
1631023468201,2070
1631023468205,2071
1631023468209,2071
1631023468213,2073
1631023468217,2074
1631023468221,2076
1631023468225,2078
1631023468229,2080
1631023468233,2082
1631023468237,2083
1631023468241,2085
1631023468245,2087
1631023468249,2088
1631023468253,2091
1631023468257,2093
1631023468261,2095
1631023468265,2097
1631023468269,2099
1631023468273,2100
1631023468277,2101
1631023468281,2102
1631023468285,2102
1631023468289,2102
1631023468293,2101
1631023468297,2100
1631023468301,2099
1631023468305,2097
1631023468309,2094
1631023468313,2091
1631023468317,2087
1631023468321,2083
1631023468325,2079
1631023468329,2075
1631023468333,2072
1631023468337,2069
1631023468341,2067
1631023468345,2065
1631023468349,2064
1631023468353,2063
1631023468357,2062
1631023468361,2062
1631023468365,2061
1631023468369,2060
1631023468373,2060
1631023468377,2060
1631023468381,2061
1631023468385,2061
1631023468389,2061
1631023468393,2062
1631023468397,2061
1631023468401,2061
1631023468405,2061
1631023468409,2061
1631023468413,2061
1631023468417,2060
1631023468421,2061
1631023468425,2061
1631023468429,2061
1631023468433,2061
1631023468437,2061
1631023468441,2061
1631023468445,2061
1631023468449,2061
1631023468453,2061
1631023468457,2061
1631023468461,2061
1631023468465,2062
1631023468469,2062
1631023468473,2062
1631023468477,2062
1631023468481,2062
1631023468485,2062
1631023468489,2061
1631023468493,2061
1631023468497,2061
1631023468501,2061
1631023468505,2061
1631023468509,2062
1631023468513,2062
1631023468517,2062
1631023468521,2062
1631023468525,2062
1631023468529,2062
1631023468533,2062
1631023468537,2061
1631023468541,2062
1631023468545,2062
1631023468549,2062
1631023468553,2062
1631023468557,2062
1631023468561,2062
1631023468565,2062
1631023468569,2061
1631023468573,2061
1631023468577,2061
1631023468581,2062
1631023468585,2062
1631023468589,2062
1631023468593,2062
1631023468597,2062
1631023468601,2062
1631023468605,2061
1631023468609,2061
1631023468613,2061
1631023468617,2061
1631023468621,2061
1631023468625,2062
1631023468629,2062
1631023468633,2063
1631023468637,2063
1631023468641,2062
1631023468645,2062
1631023468649,2061
1631023468653,2061
1631023468657,2062
1631023468661,2062
1631023468665,2063
1631023468669,2063
1631023468673,2063
1631023468677,2063
1631023468681,2063
1631023468685,2063
1631023468689,2063
1631023468693,2063
1631023468697,2062
1631023468701,2062
1631023468705,2062
1631023468709,2062
1631023468713,2063
1631023468717,2062
1631023468721,2062
1631023468725,2062
1631023468729,2062
1631023468733,2061
1631023468737,2061
1631023468741,2062
1631023468745,2062
1631023468749,2062
1631023468753,2062
1631023468757,2061
1631023468761,2061
1631023468765,2061
1631023468769,2061
1631023468773,2061
1631023468777,2061
1631023468781,2061
1631023468785,2061
1631023468789,2060
1631023468793,2061
1631023468797,2060
1631023468801,2060
1631023468805,2058
1631023468809,2057
1631023468813,2056
1631023468817,2055
1631023468821,2057
1631023468825,2059
1631023468829,2061
1631023468833,2063
1631023468837,2065
1631023468841,2066
1631023468845,2066
1631023468849,2065
1631023468853,2065
1631023468857,2064
1631023468861,2063
1631023468865,2063
1631023468869,2062
1631023468873,2061
1631023468877,2059
1631023468881,2058
1631023468885,2057
1631023468889,2056
1631023468893,2056
1631023468897,2058
1631023468901,2060
1631023468905,2060
1631023468909,2056
1631023468913,2046
1631023468917,2031
1631023468921,2017
1631023468925,2009
1631023468929,2016
1631023468933,2039
1631023468937,2080
1631023468941,2135
1631023468945,2188
1631023468949,2227
1631023468953,2240
1631023468957,2225
1631023468961,2191
1631023468965,2150
1631023468969,2116
1631023468973,2092
1631023468977,2078
1631023468981,2069
1631023468985,2062
1631023468989,2056
1631023468993,2051
1631023468997,2049
1631023469001,2048
1631023469005,2048
1631023469009,2047
1631023469013,2046
1631023469017,2045
1631023469021,2045
1631023469025,2045
1631023469029,2046
1631023469033,2046
1631023469037,2047
1631023469041,2047
1631023469045,2047
1631023469049,2047
1631023469053,2047
1631023469057,2048
1631023469061,2048
1631023469065,2050
1631023469069,2051
1631023469073,2051
1631023469077,2051
1631023469081,2052
1631023469085,2052
1631023469089,2053
1631023469093,2054
1631023469097,2056
1631023469101,2058
1631023469105,2060
1631023469109,2062
1631023469113,2063
1631023469117,2064
1631023469121,2065
1631023469125,2067
1631023469129,2069
1631023469133,2071
1631023469137,2074
1631023469141,2076
1631023469145,2079
1631023469149,2081
1631023469153,2082
1631023469157,2084
1631023469161,2085
1631023469165,2085
1631023469169,2086
1631023469173,2086
1631023469177,2086
1631023469181,2084
1631023469185,2083
1631023469189,2080
1631023469193,2077
1631023469197,2073
1631023469201,2069
1631023469205,2065
1631023469209,2060
1631023469213,2056
1631023469217,2052
1631023469221,2050
1631023469225,2048
1631023469229,2048
1631023469233,2047
1631023469237,2045
1631023469241,2044
1631023469245,2043
1631023469249,2042
1631023469253,2042
1631023469257,2041
1631023469261,2042
1631023469265,2042
1631023469269,2043
1631023469273,2043
1631023469277,2043
1631023469281,2043
1631023469285,2042
1631023469289,2042
1631023469293,2042
1631023469297,2042
1631023469301,2043
1631023469305,2044
1631023469309,2044
1631023469313,2044
1631023469317,2044
1631023469321,2044
1631023469325,2044
1631023469329,2044
1631023469333,2044
1631023469337,2044
1631023469341,2044
1631023469345,2045
1631023469349,2045
1631023469353,2045
1631023469357,2045
1631023469361,2045
1631023469365,2045
1631023469369,2045
1631023469373,2045
1631023469377,2045
1631023469381,2045
1631023469385,2046
1631023469389,2046
1631023469393,2046
1631023469397,2046
1631023469401,2046
1631023469405,2046
1631023469409,2047
1631023469413,2047
1631023469417,2047
1631023469421,2047
1631023469425,2047
1631023469429,2047
1631023469433,2047
1631023469437,2047
1631023469441,2047
1631023469445,2047
1631023469449,2047
1631023469453,2047
1631023469457,2047
1631023469461,2047
1631023469465,2047
1631023469469,2047
1631023469473,2047
1631023469477,2047
1631023469481,2047
1631023469485,2047
1631023469489,2046
1631023469493,2046
1631023469497,2045
1631023469501,2046
1631023469505,2046
1631023469509,2047
1631023469513,2048
1631023469517,2048
1631023469521,2048
1631023469525,2048
1631023469529,2048
1631023469533,2048
1631023469537,2047
1631023469541,2047
1631023469545,2047
1631023469549,2047
1631023469553,2048
1631023469557,2048
1631023469561,2048
1631023469565,2048
1631023469569,2047
1631023469573,2047
1631023469577,2047
1631023469581,2047
1631023469585,2048
1631023469589,2048
1631023469593,2048
1631023469597,2048
1631023469601,2048
1631023469605,2048
1631023469609,2047
1631023469613,2047
1631023469617,2047
1631023469621,2048
1631023469625,2048
1631023469629,2048
1631023469633,2049
1631023469637,2048
1631023469641,2048
1631023469645,2048
1631023469649,2048
1631023469653,2048
1631023469657,2048
1631023469661,2048
1631023469665,2048
1631023469669,2048
1631023469673,2048
1631023469677,2047
1631023469681,2046
1631023469685,2046
1631023469689,2047
1631023469693,2049
1631023469697,2051
1631023469701,2054
1631023469705,2056
1631023469709,2057
1631023469713,2057
1631023469717,2057
1631023469721,2056
1631023469725,2054
1631023469729,2052
1631023469733,2050
1631023469737,2049
1631023469741,2048
1631023469745,2049
1631023469749,2049
1631023469753,2049
1631023469757,2049
1631023469761,2051
1631023469765,2052
1631023469769,2051
1631023469773,2046
1631023469777,2034
1631023469781,2019
1631023469785,2007
1631023469789,2002
1631023469793,2012
1631023469797,2041
1631023469801,2086
1631023469805,2141
1631023469809,2192
1631023469813,2221
1631023469817,2219
1631023469821,2190
1631023469825,2147
1631023469829,2105
1631023469833,2077
1631023469837,2063
1631023469841,2058
1631023469845,2055
1631023469849,2050
1631023469853,2046
1631023469857,2042
1631023469861,2041
1631023469865,2041
1631023469869,2041
1631023469873,2041
1631023469877,2040
1631023469881,2039
1631023469885,2039
1631023469889,2039
1631023469893,2040
1631023469897,2040
1631023469901,2041
1631023469905,2041
1631023469909,2042
1631023469913,2042
1631023469917,2043
1631023469921,2043
1631023469925,2043
1631023469929,2044
1631023469933,2045
1631023469937,2046
1631023469941,2047
1631023469945,2048
1631023469949,2049
1631023469953,2050
1631023469957,2051
1631023469961,2052
1631023469965,2053
1631023469969,2055
1631023469973,2057
1631023469977,2059
1631023469981,2061
1631023469985,2063
1631023469989,2065
1631023469993,2068
1631023469997,2070
1631023470001,2073
1631023470005,2075
1631023470009,2077
1631023470013,2079
1631023470017,2080
1631023470021,2082
1631023470025,2083
1631023470029,2084
1631023470033,2085
1631023470037,2085
1631023470041,2084
1631023470045,2082
1631023470049,2080
1631023470053,2077
1631023470057,2073
1631023470061,2068
1631023470065,2064
1631023470069,2060
1631023470073,2056
1631023470077,2052
1631023470081,2048
1631023470085,2046
1631023470089,2043
1631023470093,2041
1631023470097,2039
1631023470101,2039
1631023470105,2038
1631023470109,2038
1631023470113,2037
1631023470117,2037
1631023470121,2037
1631023470125,2036
1631023470129,2035
1631023470133,2035
1631023470137,2035
1631023470141,2036
1631023470145,2036
1631023470149,2037
1631023470153,2037
1631023470157,2037
1631023470161,2037
1631023470165,2036
1631023470169,2036
1631023470173,2036
1631023470177,2036
1631023470181,2036
1631023470185,2037
1631023470189,2037
1631023470193,2038
1631023470197,2039
1631023470201,2039
1631023470205,2038
1631023470209,2038
1631023470213,2039
1631023470217,2039
1631023470221,2040
1631023470225,2041
1631023470229,2041
1631023470233,2041
1631023470237,2041
1631023470241,2041
1631023470245,2041
1631023470249,2041
1631023470253,2042
1631023470257,2042
1631023470261,2042
1631023470265,2042
1631023470269,2043
1631023470273,2043
1631023470277,2043
1631023470281,2043
1631023470285,2043
1631023470289,2043
1631023470293,2043
1631023470297,2043
1631023470301,2043
1631023470305,2044
1631023470309,2044
1631023470313,2044
1631023470317,2044
1631023470321,2043
1631023470325,2043
1631023470329,2042
1631023470333,2042
1631023470337,2043
1631023470341,2043
1631023470345,2044
1631023470349,2045
1631023470353,2045
1631023470357,2044
1631023470361,2044
1631023470365,2044
1631023470369,2044
1631023470373,2044
1631023470377,2044
1631023470381,2045
1631023470385,2045
1631023470389,2045
1631023470393,2045
1631023470397,2045
1631023470401,2045
1631023470405,2045
1631023470409,2045
1631023470413,2046
1631023470417,2046
1631023470421,2046
1631023470425,2047
1631023470429,2047
1631023470433,2047
1631023470437,2046
1631023470441,2046
1631023470445,2046
1631023470449,2046
1631023470453,2046
1631023470457,2046
1631023470461,2046
1631023470465,2047
1631023470469,2047
1631023470473,2048
1631023470477,2048
1631023470481,2048
1631023470485,2047
1631023470489,2047
1631023470493,2046
1631023470497,2046
1631023470501,2047
1631023470505,2048
1631023470509,2048
1631023470513,2048
1631023470517,2048
1631023470521,2047
1631023470525,2045
1631023470529,2044
1631023470533,2044
1631023470537,2046
1631023470541,2048
1631023470545,2051
1631023470549,2053
1631023470553,2055
1631023470557,2056
1631023470561,2056
1631023470565,2055
1631023470569,2054
1631023470573,2053
1631023470577,2052
1631023470581,2052
1631023470585,2051
1631023470589,2051
1631023470593,2050
1631023470597,2049
1631023470601,2048
1631023470605,2048
1631023470609,2049
1631023470613,2051
1631023470617,2051
1631023470621,2048
1631023470625,2039
1631023470629,2024
1631023470633,2008
1631023470637,1999
1631023470641,2003
1631023470645,2025
1631023470649,2064
1631023470653,2120
1631023470657,2178
1631023470661,2221
1631023470665,2238
1631023470669,2225
1631023470673,2190
1631023470677,2148
1631023470681,2111
1631023470685,2087
1631023470689,2072
1631023470693,2063
1631023470697,2055
1631023470701,2048
1631023470705,2045
1631023470709,2042
1631023470713,2041
1631023470717,2040
1631023470721,2039
1631023470725,2038
1631023470729,2038
1631023470733,2038
1631023470737,2038
1631023470741,2038
1631023470745,2038
1631023470749,2039
1631023470753,2040
1631023470757,2040
1631023470761,2041
1631023470765,2041
1631023470769,2041
1631023470773,2041
1631023470777,2042
1631023470781,2043
1631023470785,2044
1631023470789,2046
1631023470793,2047
1631023470797,2048
1631023470801,2048
1631023470805,2048
1631023470809,2049
1631023470813,2051
1631023470817,2053
1631023470821,2055
1631023470825,2057
1631023470829,2060
1631023470833,2062
1631023470837,2064
1631023470841,2066
1631023470845,2068
1631023470849,2070
1631023470853,2072
1631023470857,2074
1631023470861,2077
1631023470865,2079
1631023470869,2081
1631023470873,2083
1631023470877,2084
1631023470881,2084
1631023470885,2084
1631023470889,2083
1631023470893,2082
1631023470897,2080
1631023470901,2078
1631023470905,2075
1631023470909,2071
1631023470913,2067
1631023470917,2062
1631023470921,2057
1631023470925,2053
1631023470929,2049
1631023470933,2047
1631023470937,2044
1631023470941,2043
1631023470945,2042
1631023470949,2041
1631023470953,2040
1631023470957,2039
1631023470961,2039
1631023470965,2038
1631023470969,2038
1631023470973,2037
1631023470977,2037
1631023470981,2038
1631023470985,2038
1631023470989,2038
1631023470993,2039
1631023470997,2039
1631023471001,2039
1631023471005,2039
1631023471009,2039
1631023471013,2039
1631023471017,2039
1631023471021,2039
1631023471025,2040
1631023471029,2040
1631023471033,2040
1631023471037,2040
1631023471041,2040
1631023471045,2040
1631023471049,2040
1631023471053,2040
1631023471057,2040
1631023471061,2041
1631023471065,2042
1631023471069,2042
1631023471073,2043
1631023471077,2043
1631023471081,2043
1631023471085,2042
1631023471089,2042
1631023471093,2042
1631023471097,2043
1631023471101,2044
1631023471105,2045
1631023471109,2045
1631023471113,2045
1631023471117,2045
1631023471121,2045
1631023471125,2045
1631023471129,2044
1631023471133,2045
1631023471137,2045
1631023471141,2046
1631023471145,2046
1631023471149,2047
1631023471153,2047
1631023471157,2047
1631023471161,2047
1631023471165,2047
1631023471169,2047
1631023471173,2047
1631023471177,2047
1631023471181,2048
1631023471185,2048
1631023471189,2048
1631023471193,2048
1631023471197,2049
1631023471201,2049
1631023471205,2048
1631023471209,2048
1631023471213,2048
1631023471217,2048
1631023471221,2048
1631023471225,2049
1631023471229,2049
1631023471233,2050
1631023471237,2050
1631023471241,2050
1631023471245,2050
1631023471249,2049
1631023471253,2049
1631023471257,2049
1631023471261,2050
1631023471265,2050
1631023471269,2051
1631023471273,2051
1631023471277,2052
1631023471281,2052
1631023471285,2051
1631023471289,2051
1631023471293,2051
1631023471297,2051
1631023471301,2052
1631023471305,2052
1631023471309,2052
1631023471313,2053
1631023471317,2052
1631023471321,2052
1631023471325,2052
1631023471329,2052
1631023471333,2052
1631023471337,2052
1631023471341,2052
1631023471345,2053
1631023471349,2053
1631023471353,2053
1631023471357,2052
1631023471361,2053
1631023471365,2053
1631023471369,2053
1631023471373,2052
1631023471377,2052
1631023471381,2053
1631023471385,2053
1631023471389,2053
1631023471393,2053
1631023471397,2053
1631023471401,2053
1631023471405,2052
1631023471409,2052
1631023471413,2052
1631023471417,2052
1631023471421,2053
1631023471425,2053
1631023471429,2053
1631023471433,2053
1631023471437,2051
1631023471441,2050
1631023471445,2049
1631023471449,2049
1631023471453,2051
1631023471457,2053
1631023471461,2055
1631023471465,2057
1631023471469,2059
1631023471473,2060
1631023471477,2061
1631023471481,2061
1631023471485,2060
1631023471489,2059
1631023471493,2058
1631023471497,2056
1631023471501,2055
1631023471505,2055
1631023471509,2055
1631023471513,2054
1631023471517,2053
1631023471521,2052
1631023471525,2053
1631023471529,2055
1631023471533,2056
1631023471537,2054
1631023471541,2047
1631023471545,2034
1631023471549,2018
1631023471553,2007
1631023471557,2006
1631023471561,2021
1631023471565,2052
1631023471569,2102
1631023471573,2159
1631023471577,2210
1631023471581,2240
1631023471585,2243
1631023471589,2220
1631023471593,2181
1631023471597,2140
1631023471601,2108
1631023471605,2085
1631023471609,2071
1631023471613,2062
1631023471617,2055
1631023471621,2049
1631023471625,2047
1631023471629,2046
1631023471633,2045
1631023471637,2044
1631023471641,2043
1631023471645,2042
1631023471649,2041
1631023471653,2041
1631023471657,2041
1631023471661,2042
1631023471665,2042
1631023471669,2043
1631023471673,2044
1631023471677,2045
1631023471681,2045
1631023471685,2045
1631023471689,2045
1631023471693,2046
1631023471697,2047
1631023471701,2048
1631023471705,2048
1631023471709,2049
1631023471713,2050
1631023471717,2051
1631023471721,2052
1631023471725,2053
1631023471729,2054
1631023471733,2055
1631023471737,2056
1631023471741,2058
1631023471745,2060
1631023471749,2061
1631023471753,2063
1631023471757,2065
1631023471761,2067
1631023471765,2069
1631023471769,2071
1631023471773,2073
1631023471777,2074
1631023471781,2076
1631023471785,2078
1631023471789,2079
1631023471793,2080
1631023471797,2081
1631023471801,2082
1631023471805,2081
1631023471809,2080
1631023471813,2079
1631023471817,2077
1631023471821,2074
1631023471825,2071
1631023471829,2067
1631023471833,2063
1631023471837,2058
1631023471841,2054
1631023471845,2050
1631023471849,2047
1631023471853,2045
1631023471857,2042
1631023471861,2041
1631023471865,2040
1631023471869,2039
1631023471873,2039
1631023471877,2038
1631023471881,2037
1631023471885,2037
1631023471889,2036
1631023471893,2036
1631023471897,2036
1631023471901,2037
1631023471905,2037
1631023471909,2037
1631023471913,2037
1631023471917,2037
1631023471921,2037
1631023471925,2037
1631023471929,2036
1631023471933,2037
1631023471937,2037
1631023471941,2038
1631023471945,2038
1631023471949,2038
1631023471953,2038
1631023471957,2038
1631023471961,2038
1631023471965,2038
1631023471969,2038
1631023471973,2038
1631023471977,2039
1631023471981,2039
1631023471985,2039
1631023471989,2039
1631023471993,2039
1631023471997,2039
1631023472001,2039
1631023472005,2040
1631023472009,2040
1631023472013,2040
1631023472017,2039
1631023472021,2039
1631023472025,2039
1631023472029,2039
1631023472033,2039
1631023472037,2040
1631023472041,2040
1631023472045,2040
1631023472049,2040
1631023472053,2039
1631023472057,2039
1631023472061,2040
1631023472065,2041
1631023472069,2041
1631023472073,2042
1631023472077,2043
1631023472081,2043
1631023472085,2042
1631023472089,2041
1631023472093,2041
1631023472097,2041
1631023472101,2042
1631023472105,2042
1631023472109,2043
1631023472113,2043
1631023472117,2043
1631023472121,2043
1631023472125,2042
1631023472129,2041
1631023472133,2041
1631023472137,2041
1631023472141,2042
1631023472145,2044
1631023472149,2044
1631023472153,2045
1631023472157,2045
1631023472161,2045
1631023472165,2045
1631023472169,2045
1631023472173,2045
1631023472177,2045
1631023472181,2046
1631023472185,2047
1631023472189,2047
1631023472193,2047
1631023472197,2046
1631023472201,2046
1631023472205,2046
1631023472209,2046
1631023472213,2047
1631023472217,2048
1631023472221,2048
1631023472225,2049
1631023472229,2049
1631023472233,2050
1631023472237,2050
1631023472241,2050
1631023472245,2049
1631023472249,2048
1631023472253,2049
1631023472257,2049
1631023472261,2050
1631023472265,2051
1631023472269,2051
1631023472273,2051
1631023472277,2051
1631023472281,2051
1631023472285,2050
1631023472289,2051
1631023472293,2051
1631023472297,2052
1631023472301,2053
1631023472305,2054
1631023472309,2055
1631023472313,2056
1631023472317,2056
1631023472321,2055
1631023472325,2055
1631023472329,2055
1631023472333,2056
1631023472337,2056
1631023472341,2057
1631023472345,2057
1631023472349,2056
1631023472353,2055
1631023472357,2055
1631023472361,2055
1631023472365,2057
1631023472369,2059
1631023472373,2062
1631023472377,2064
1631023472381,2067
1631023472385,2069
1631023472389,2071
1631023472393,2072
1631023472397,2072
1631023472401,2071
1631023472405,2069
1631023472409,2068
1631023472413,2067
1631023472417,2066
1631023472421,2067
1631023472425,2067
1631023472429,2067
1631023472433,2068
1631023472437,2070
1631023472441,2072
1631023472445,2074
1631023472449,2072
1631023472453,2065
1631023472457,2053
1631023472461,2040
1631023472465,2029
1631023472469,2028
1631023472473,2043
1631023472477,2074
1631023472481,2122
1631023472485,2178
1631023472489,2227
1631023472493,2253
1631023472497,2249
1631023472501,2220
1631023472505,2179
1631023472509,2140
1631023472513,2114
1631023472517,2100
1631023472521,2094
1631023472525,2089
1631023472529,2084
1631023472533,2079
1631023472537,2076
1631023472541,2076
1631023472545,2076
1631023472549,2076
1631023472553,2076
1631023472557,2076
1631023472561,2077
1631023472565,2077
1631023472569,2077
1631023472573,2078
1631023472577,2079
1631023472581,2080
1631023472585,2081
1631023472589,2082
1631023472593,2084
1631023472597,2085
1631023472601,2086
1631023472605,2087
1631023472609,2088
1631023472613,2089
1631023472617,2090
1631023472621,2092
1631023472625,2093
1631023472629,2094
1631023472633,2096
1631023472637,2098
1631023472641,2100
1631023472645,2102
1631023472649,2104
1631023472653,2106
1631023472657,2108
1631023472661,2111
1631023472665,2113
1631023472669,2116
1631023472673,2120
1631023472677,2123
1631023472681,2126
1631023472685,2129
1631023472689,2131
1631023472693,2133
1631023472697,2135
1631023472701,2137
1631023472705,2138
1631023472709,2139
1631023472713,2141
1631023472717,2141
1631023472721,2141
1631023472725,2140
1631023472729,2138
1631023472733,2135
1631023472737,2131
1631023472741,2128
1631023472745,2125
1631023472749,2121
1631023472753,2117
1631023472757,2113
1631023472761,2109
1631023472765,2106
1631023472769,2103
1631023472773,2102
1631023472777,2100
1631023472781,2100
1631023472785,2100
1631023472789,2100
1631023472793,2100
1631023472797,2100
1631023472801,2100
1631023472805,2099
1631023472809,2099
1631023472813,2099
1631023472817,2099
1631023472821,2100
1631023472825,2101
1631023472829,2101
1631023472833,2102
1631023472837,2101
1631023472841,2101
1631023472845,2101
1631023472849,2101
1631023472853,2101
1631023472857,2101
1631023472861,2101
1631023472865,2102
1631023472869,2102
1631023472873,2102
1631023472877,2102
1631023472881,2102
1631023472885,2102
1631023472889,2102
1631023472893,2102
1631023472897,2102
1631023472901,2103
1631023472905,2103
1631023472909,2103
1631023472913,2104
1631023472917,2103
1631023472921,2103
1631023472925,2103
1631023472929,2103
1631023472933,2103
1631023472937,2103
1631023472941,2103
1631023472945,2103
1631023472949,2104
1631023472953,2104
1631023472957,2103
1631023472961,2103
1631023472965,2102
1631023472969,2102
1631023472973,2101
1631023472977,2101
1631023472981,2100
1631023472985,2100
1631023472989,2100
1631023472993,2100
1631023472997,2099
1631023473001,2099
1631023473005,2099
1631023473009,2098
1631023473013,2098
1631023473017,2097
1631023473021,2097
1631023473025,2097
1631023473029,2097
1631023473033,2096
1631023473037,2096
1631023473041,2095
1631023473045,2094
1631023473049,2093
1631023473053,2093
1631023473057,2094
1631023473061,2095
1631023473065,2095
1631023473069,2094
1631023473073,2094
1631023473077,2093
1631023473081,2092
1631023473085,2091
1631023473089,2090
1631023473093,2090
1631023473097,2089
1631023473101,2090
1631023473105,2090
1631023473109,2090
1631023473113,2090
1631023473117,2089
1631023473121,2088
1631023473125,2088
1631023473129,2088
1631023473133,2088
1631023473137,2088
1631023473141,2088
1631023473145,2088
1631023473149,2088
1631023473153,2087
1631023473157,2087
1631023473161,2086
1631023473165,2085
1631023473169,2085
1631023473173,2084
1631023473177,2084
1631023473181,2084
1631023473185,2083
1631023473189,2083
1631023473193,2082
1631023473197,2081
1631023473201,2081
1631023473205,2080
1631023473209,2079
1631023473213,2078
1631023473217,2077
1631023473221,2076
1631023473225,2074
1631023473229,2073
1631023473233,2072
1631023473237,2070
1631023473241,2071
1631023473245,2071
1631023473249,2073
1631023473253,2074
1631023473257,2074
1631023473261,2075
1631023473265,2075
1631023473269,2075
1631023473273,2074
1631023473277,2073
1631023473281,2071
1631023473285,2069
1631023473289,2067
1631023473293,2065
1631023473297,2064
1631023473301,2063
1631023473305,2061
1631023473309,2061
1631023473313,2062
1631023473317,2063
1631023473321,2064
1631023473325,2061
1631023473329,2053
1631023473333,2040
1631023473337,2023
1631023473341,2011
1631023473345,2009
1631023473349,2024
1631023473353,2057
1631023473357,2108
1631023473361,2167
1631023473365,2215
1631023473369,2241
1631023473373,2236
1631023473377,2205
1631023473381,2163
1631023473385,2123
1631023473389,2095
1631023473393,2079
1631023473397,2070
1631023473401,2063
1631023473405,2056
1631023473409,2049
1631023473413,2046
1631023473417,2045
1631023473421,2044
1631023473425,2043
1631023473429,2042
1631023473433,2042
1631023473437,2041
1631023473441,2041
1631023473445,2041
1631023473449,2040
1631023473453,2040
1631023473457,2040
1631023473461,2040
1631023473465,2041
1631023473469,2041
1631023473473,2042
1631023473477,2043
1631023473481,2044
1631023473485,2044
1631023473489,2045
1631023473493,2045
1631023473497,2045
1631023473501,2046
1631023473505,2047
1631023473509,2048
1631023473513,2048
1631023473517,2048
1631023473521,2049
1631023473525,2051
1631023473529,2052
1631023473533,2055
1631023473537,2057
1631023473541,2059
1631023473545,2061
1631023473549,2064
1631023473553,2067
1631023473557,2069
1631023473561,2071
1631023473565,2073
1631023473569,2074
1631023473573,2076
1631023473577,2077
1631023473581,2078
1631023473585,2079
1631023473589,2080
1631023473593,2080
1631023473597,2079
1631023473601,2077
1631023473605,2075
1631023473609,2071
1631023473613,2068
1631023473617,2063
1631023473621,2059
1631023473625,2055
1631023473629,2051
1631023473633,2048
1631023473637,2046
1631023473641,2043
1631023473645,2041
1631023473649,2039
1631023473653,2037
1631023473657,2036
1631023473661,2036
1631023473665,2036
1631023473669,2036
1631023473673,2036
1631023473677,2036
1631023473681,2036
1631023473685,2036
1631023473689,2036
1631023473693,2036
1631023473697,2036
1631023473701,2037
1631023473705,2037
1631023473709,2037
1631023473713,2038
1631023473717,2038
1631023473721,2038
1631023473725,2038
1631023473729,2037
1631023473733,2037
1631023473737,2037
1631023473741,2037
1631023473745,2038
1631023473749,2038
1631023473753,2039
1631023473757,2040
1631023473761,2040
1631023473765,2040
1631023473769,2040
1631023473773,2041
1631023473777,2041
1631023473781,2042
1631023473785,2043
1631023473789,2044
1631023473793,2045
1631023473797,2046
1631023473801,2046
1631023473805,2047
1631023473809,2047
1631023473813,2047
1631023473817,2048
1631023473821,2048
1631023473825,2049
1631023473829,2049
1631023473833,2050
1631023473837,2050
1631023473841,2050
1631023473845,2050
1631023473849,2050
1631023473853,2051
1631023473857,2051
1631023473861,2051
1631023473865,2052
1631023473869,2053
1631023473873,2053
1631023473877,2053
1631023473881,2053
1631023473885,2053
1631023473889,2053
1631023473893,2054
1631023473897,2054
1631023473901,2054
1631023473905,2055
1631023473909,2055
1631023473913,2055
1631023473917,2056
1631023473921,2056
1631023473925,2056
1631023473929,2055
1631023473933,2055
1631023473937,2055
1631023473941,2056
1631023473945,2056
1631023473949,2057
1631023473953,2058
1631023473957,2059
1631023473961,2059
1631023473965,2058
1631023473969,2058
1631023473973,2058
1631023473977,2058
1631023473981,2058
1631023473985,2059
1631023473989,2059
1631023473993,2060
1631023473997,2060
1631023474001,2060
1631023474005,2060
1631023474009,2060
1631023474013,2060
1631023474017,2060
1631023474021,2061
1631023474025,2062
1631023474029,2063
1631023474033,2063
1631023474037,2063
1631023474041,2063
1631023474045,2062
1631023474049,2062
1631023474053,2062
1631023474057,2062
1631023474061,2062
1631023474065,2063
1631023474069,2064
1631023474073,2064
1631023474077,2064
1631023474081,2064
1631023474085,2064
1631023474089,2063
1631023474093,2063
1631023474097,2064
1631023474101,2065
1631023474105,2065
1631023474109,2066
1631023474113,2066
1631023474117,2066
1631023474121,2065
1631023474125,2065
1631023474129,2065
1631023474133,2065
1631023474137,2066
1631023474141,2067
1631023474145,2067
1631023474149,2067
1631023474153,2066
1631023474157,2065
1631023474161,2064
1631023474165,2064
1631023474169,2065
1631023474173,2068
1631023474177,2070
1631023474181,2072
1631023474185,2074
1631023474189,2075
1631023474193,2076
1631023474197,2077
1631023474201,2077
1631023474205,2076
1631023474209,2074
1631023474213,2073
1631023474217,2072
1631023474221,2071
1631023474225,2071
1631023474229,2071
1631023474233,2071
1631023474237,2070
1631023474241,2071
1631023474245,2073
1631023474249,2075
1631023474253,2074
1631023474257,2066
1631023474261,2054
1631023474265,2039
1631023474269,2028
1631023474273,2026
1631023474277,2040
1631023474281,2071
1631023474285,2121
1631023474289,2178
1631023474293,2228
1631023474297,2258
1631023474301,2261
1631023474305,2238
1631023474309,2199
1631023474313,2159
1631023474317,2127
1631023474321,2107
1631023474325,2094
1631023474329,2085
1631023474333,2077
1631023474337,2071
1631023474341,2069
1631023474345,2068
1631023474349,2067
1631023474353,2066
1631023474357,2066
1631023474361,2065
1631023474365,2065
1631023474369,2065
1631023474373,2065
1631023474377,2065
1631023474381,2066
1631023474385,2067
1631023474389,2068
1631023474393,2070
1631023474397,2070
1631023474401,2071
1631023474405,2071
1631023474409,2071
1631023474413,2072
1631023474417,2072
1631023474421,2074
1631023474425,2075
1631023474429,2077
1631023474433,2078
1631023474437,2079
1631023474441,2080
1631023474445,2081
1631023474449,2083
1631023474453,2084
1631023474457,2085
1631023474461,2087
1631023474465,2089
1631023474469,2091
1631023474473,2093
1631023474477,2095
1631023474481,2098
1631023474485,2100
1631023474489,2102
1631023474493,2103
1631023474497,2104
1631023474501,2106
1631023474505,2108
1631023474509,2109
1631023474513,2110
1631023474517,2111
1631023474521,2110
1631023474525,2110
1631023474529,2108
1631023474533,2106
1631023474537,2104
1631023474541,2100
1631023474545,2097
1631023474549,2093
1631023474553,2089
1631023474557,2085
1631023474561,2081
1631023474565,2077
1631023474569,2074
1631023474573,2071
1631023474577,2068
1631023474581,2067
1631023474585,2066
1631023474589,2065
1631023474593,2065
1631023474597,2064
1631023474601,2064
1631023474605,2063
1631023474609,2062
1631023474613,2063
1631023474617,2063
1631023474621,2063
1631023474625,2063
1631023474629,2064
1631023474633,2064
1631023474637,2064
1631023474641,2064
1631023474645,2064
1631023474649,2063
1631023474653,2064
1631023474657,2063
1631023474661,2064
1631023474665,2064
1631023474669,2064
1631023474673,2065
1631023474677,2065
1631023474681,2065
1631023474685,2065
1631023474689,2064
1631023474693,2064
1631023474697,2064
1631023474701,2065
1631023474705,2065
1631023474709,2065
1631023474713,2065
1631023474717,2065
1631023474721,2065
1631023474725,2066
1631023474729,2066
1631023474733,2066
1631023474737,2066
1631023474741,2066
1631023474745,2066
1631023474749,2067
1631023474753,2067
1631023474757,2067
1631023474761,2067
1631023474765,2067
1631023474769,2066
1631023474773,2066
1631023474777,2066
1631023474781,2066
1631023474785,2067
1631023474789,2067
1631023474793,2067
1631023474797,2067
1631023474801,2067
1631023474805,2067
1631023474809,2067
1631023474813,2067
1631023474817,2067
1631023474821,2067
1631023474825,2067
1631023474829,2068
1631023474833,2068
1631023474837,2068
1631023474841,2068
1631023474845,2067
1631023474849,2067
1631023474853,2067
1631023474857,2067
1631023474861,2068
1631023474865,2068
1631023474869,2068
1631023474873,2069
1631023474877,2069
1631023474881,2069
1631023474885,2069
1631023474889,2068
1631023474893,2068
1631023474897,2068
1631023474901,2068
1631023474905,2068
1631023474909,2068
1631023474913,2068
1631023474917,2068
1631023474921,2069
1631023474925,2069
1631023474929,2068
1631023474933,2068
1631023474937,2068
1631023474941,2068
1631023474945,2069
1631023474949,2069
1631023474953,2069
1631023474957,2069
1631023474961,2068
1631023474965,2068
1631023474969,2067
1631023474973,2067
1631023474977,2067
1631023474981,2067
1631023474985,2068
1631023474989,2068
1631023474993,2068
1631023474997,2067
1631023475001,2067
1631023475005,2066
1631023475009,2066
1631023475013,2065
1631023475017,2065
1631023475021,2065
1631023475025,2066
1631023475029,2066
1631023475033,2066
1631023475037,2066
1631023475041,2066
1631023475045,2065
1631023475049,2065
1631023475053,2065
1631023475057,2065
1631023475061,2065
1631023475065,2065
1631023475069,2066
1631023475073,2066
1631023475077,2066
1631023475081,2066
1631023475085,2064
1631023475089,2062
1631023475093,2061
1631023475097,2060
1631023475101,2061
1631023475105,2063
1631023475109,2065
1631023475113,2067
1631023475117,2068
1631023475121,2069
1631023475125,2069
1631023475129,2069
1631023475133,2070
1631023475137,2070
1631023475141,2070
1631023475145,2069
1631023475149,2067
1631023475153,2066
1631023475157,2065
1631023475161,2064
1631023475165,2063
1631023475169,2062
1631023475173,2062
1631023475177,2063
1631023475181,2065
1631023475185,2066
1631023475189,2063
1631023475193,2054
1631023475197,2041
1631023475201,2026
1631023475205,2016
1631023475209,2018
1631023475213,2037
1631023475217,2073
1631023475221,2124
1631023475225,2180
1631023475229,2223
1631023475233,2242
1631023475237,2232
1631023475241,2199
1631023475245,2157
1631023475249,2119
1631023475253,2094
1631023475257,2080
1631023475261,2072
1631023475265,2066
1631023475269,2060
1631023475273,2055
1631023475277,2052
1631023475281,2051
1631023475285,2049
1631023475289,2048
1631023475293,2048
1631023475297,2047
1631023475301,2047
1631023475305,2047
1631023475309,2048
1631023475313,2048
1631023475317,2048
1631023475321,2048
1631023475325,2048
1631023475329,2048
1631023475333,2048
1631023475337,2048
1631023475341,2048
1631023475345,2049
1631023475349,2050
1631023475353,2051
1631023475357,2052
1631023475361,2053
1631023475365,2053
1631023475369,2054
1631023475373,2054
1631023475377,2055
1631023475381,2057
1631023475385,2059
1631023475389,2061
1631023475393,2062
1631023475397,2064
1631023475401,2066
1631023475405,2067
1631023475409,2068
1631023475413,2070
1631023475417,2072
1631023475421,2074
1631023475425,2076
1631023475429,2078
1631023475433,2081
1631023475437,2082
1631023475441,2084
1631023475445,2084
1631023475449,2084
1631023475453,2084
1631023475457,2083
1631023475461,2083
1631023475465,2082
1631023475469,2081
1631023475473,2078
1631023475477,2074
1631023475481,2070
1631023475485,2065
1631023475489,2060
1631023475493,2056
1631023475497,2052
1631023475501,2049
1631023475505,2048
1631023475509,2046
1631023475513,2043
1631023475517,2041
1631023475521,2040
1631023475525,2039
1631023475529,2038
1631023475533,2038
1631023475537,2038
1631023475541,2038
1631023475545,2038
1631023475549,2038
1631023475553,2038
1631023475557,2038
1631023475561,2038
1631023475565,2038
1631023475569,2038
1631023475573,2038
1631023475577,2038
1631023475581,2038
1631023475585,2038
1631023475589,2038
1631023475593,2038
1631023475597,2039
1631023475601,2039
1631023475605,2039
1631023475609,2038
1631023475613,2038
1631023475617,2038
1631023475621,2039
1631023475625,2040
1631023475629,2041
1631023475633,2042
1631023475637,2042
1631023475641,2042
1631023475645,2042
1631023475649,2042
1631023475653,2043
1631023475657,2043
1631023475661,2044
1631023475665,2045
1631023475669,2045
1631023475673,2045
1631023475677,2045
1631023475681,2046
1631023475685,2046
1631023475689,2046
1631023475693,2047
1631023475697,2047
1631023475701,2048
1631023475705,2048
1631023475709,2048
1631023475713,2048
1631023475717,2049
1631023475721,2049
1631023475725,2048
1631023475729,2048
1631023475733,2048
1631023475737,2048
1631023475741,2049
1631023475745,2050
1631023475749,2051
1631023475753,2052
1631023475757,2052
1631023475761,2052
1631023475765,2052
1631023475769,2052
1631023475773,2052
1631023475777,2053
1631023475781,2054
1631023475785,2055
1631023475789,2056
1631023475793,2056
1631023475797,2057
1631023475801,2057
1631023475805,2057
1631023475809,2057
1631023475813,2058
1631023475817,2058
1631023475821,2059
1631023475825,2059
1631023475829,2059
1631023475833,2060
1631023475837,2060
1631023475841,2060
1631023475845,2061
1631023475849,2061
1631023475853,2061
1631023475857,2062
1631023475861,2063
1631023475865,2064
1631023475869,2064
1631023475873,2065
1631023475877,2065
1631023475881,2065
1631023475885,2065
1631023475889,2065
1631023475893,2065
1631023475897,2065
1631023475901,2066
1631023475905,2067
1631023475909,2068
1631023475913,2068
1631023475917,2068
1631023475921,2068
1631023475925,2068
1631023475929,2068
1631023475933,2069
1631023475937,2069
1631023475941,2070
1631023475945,2071
1631023475949,2072
1631023475953,2073
1631023475957,2073
1631023475961,2073
1631023475965,2073
1631023475969,2071
1631023475973,2070
1631023475977,2069
