timestamp,ecg_waveform
1631204135231,2048
1631204135235,2046
1631204135239,2044
1631204135243,2044
1631204135247,2050
1631204135251,2068
1631204135255,2102
1631204135259,2149
1631204135263,2201
1631204135267,2240
1631204135271,2250
1631204135275,2222
1631204135279,2162
1631204135283,2091
1631204135287,2034
1631204135291,2005
1631204135295,2005
1631204135299,2024
1631204135303,2044
1631204135307,2055
1631204135311,2058
1631204135315,2056
1631204135319,2054
1631204135323,2054
1631204135327,2055
1631204135331,2056
1631204135335,2057
1631204135339,2058
1631204135343,2059
1631204135347,2060
1631204135351,2061
1631204135355,2062
1631204135359,2062
1631204135363,2061
1631204135367,2061
1631204135371,2061
1631204135375,2063
1631204135379,2067
1631204135383,2071
1631204135387,2074
1631204135391,2076
1631204135395,2075
1631204135399,2073
1631204135403,2072
1631204135407,2073
1631204135411,2075
1631204135415,2077
1631204135419,2080
1631204135423,2081
1631204135427,2083
1631204135431,2084
1631204135435,2085
1631204135439,2086
1631204135443,2087
1631204135447,2088
1631204135451,2089
1631204135455,2093
1631204135459,2098
1631204135463,2104
1631204135467,2109
1631204135471,2113
1631204135475,2115
1631204135479,2116
1631204135483,2119
1631204135487,2123
1631204135491,2127
1631204135495,2131
1631204135499,2134
1631204135503,2137
1631204135507,2140
1631204135511,2142
1631204135515,2144
1631204135519,2144
1631204135523,2144
1631204135527,2143
1631204135531,2142
1631204135535,2140
1631204135539,2138
1631204135543,2136
1631204135547,2133
1631204135551,2127
1631204135555,2120
1631204135559,2112
1631204135563,2103
1631204135567,2095
1631204135571,2086
1631204135575,2078
1631204135579,2069
1631204135583,2061
1631204135587,2054
1631204135591,2050
1631204135595,2047
1631204135599,2043
1631204135603,2039
1631204135607,2035
1631204135611,2034
1631204135615,2033
1631204135619,2034
1631204135623,2035
1631204135627,2035
1631204135631,2034
1631204135635,2033
1631204135639,2032
1631204135643,2033
1631204135647,2034
1631204135651,2035
1631204135655,2035
1631204135659,2034
1631204135663,2033
1631204135667,2033
1631204135671,2034
1631204135675,2036
1631204135679,2038
1631204135683,2040
1631204135687,2040
1631204135691,2038
1631204135695,2036
1631204135699,2034
1631204135703,2034
1631204135707,2035
1631204135711,2037
1631204135715,2037
1631204135719,2037
1631204135723,2036
1631204135727,2035
1631204135731,2036
1631204135735,2037
1631204135739,2039
1631204135743,2040
1631204135747,2040
1631204135751,2040
1631204135755,2039
1631204135759,2038
1631204135763,2038
1631204135767,2037
1631204135771,2036
1631204135775,2035
1631204135779,2036
1631204135783,2038
1631204135787,2040
1631204135791,2041
1631204135795,2041
1631204135799,2040
1631204135803,2039
1631204135807,2038
1631204135811,2037
1631204135815,2037
1631204135819,2037
1631204135823,2037
1631204135827,2038
1631204135831,2039
1631204135835,2039
1631204135839,2038
1631204135843,2037
1631204135847,2037
1631204135851,2038
1631204135855,2039
1631204135859,2039
1631204135863,2039
1631204135867,2038
1631204135871,2037
1631204135875,2039
1631204135879,2041
1631204135883,2044
1631204135887,2044
1631204135891,2044
1631204135895,2043
1631204135899,2042
1631204135903,2042
1631204135907,2043
1631204135911,2044
1631204135915,2043
1631204135919,2043
1631204135923,2043
1631204135927,2043
1631204135931,2043
1631204135935,2043
1631204135939,2044
1631204135943,2045
1631204135947,2046
1631204135951,2046
1631204135955,2045
1631204135959,2043
1631204135963,2042
1631204135967,2040
1631204135971,2040
1631204135975,2041
1631204135979,2041
1631204135983,2042
1631204135987,2044
1631204135991,2046
1631204135995,2048
1631204135999,2049
1631204136003,2051
1631204136007,2051
1631204136011,2051
1631204136015,2050
1631204136019,2050
1631204136023,2051
1631204136027,2052
1631204136031,2054
1631204136035,2055
1631204136039,2055
1631204136043,2054
1631204136047,2051
1631204136051,2048
1631204136055,2047
1631204136059,2045
1631204136063,2045
1631204136067,2046
1631204136071,2047
1631204136075,2048
1631204136079,2048
1631204136083,2047
1631204136087,2046
1631204136091,2045
1631204136095,2044
1631204136099,2044
1631204136103,2045
1631204136107,2046
1631204136111,2048
1631204136115,2048
1631204136119,2048
1631204136123,2048
1631204136127,2046
1631204136131,2044
1631204136135,2045
1631204136139,2047
1631204136143,2050
1631204136147,2051
1631204136151,2048
1631204136155,2044
1631204136159,2041
1631204136163,2045
1631204136167,2058
1631204136171,2088
1631204136175,2132
1631204136179,2182
1631204136183,2226
1631204136187,2244
1631204136191,2226
1631204136195,2175
1631204136199,2106
1631204136203,2045
1631204136207,2008
1631204136211,1999
1631204136215,2013
1631204136219,2033
1631204136223,2048
1631204136227,2055
1631204136231,2056
1631204136235,2056
1631204136239,2056
1631204136243,2055
1631204136247,2054
1631204136251,2054
1631204136255,2054
1631204136259,2056
1631204136263,2057
1631204136267,2058
1631204136271,2059
1631204136275,2058
1631204136279,2057
1631204136283,2057
1631204136287,2058
1631204136291,2060
1631204136295,2062
1631204136299,2065
1631204136303,2067
1631204136307,2068
1631204136311,2068
1631204136315,2069
1631204136319,2070
1631204136323,2071
1631204136327,2071
1631204136331,2071
1631204136335,2071
1631204136339,2072
1631204136343,2075
1631204136347,2080
1631204136351,2085
1631204136355,2088
1631204136359,2090
1631204136363,2091
1631204136367,2092
1631204136371,2093
1631204136375,2095
1631204136379,2098
1631204136383,2101
1631204136387,2106
1631204136391,2110
1631204136395,2113
1631204136399,2115
1631204136403,2116
1631204136407,2118
1631204136411,2120
1631204136415,2123
1631204136419,2127
1631204136423,2131
1631204136427,2135
1631204136431,2138
1631204136435,2141
1631204136439,2142
1631204136443,2141
1631204136447,2140
1631204136451,2138
1631204136455,2136
1631204136459,2133
1631204136463,2129
1631204136467,2124
1631204136471,2117
1631204136475,2110
1631204136479,2101
1631204136483,2092
1631204136487,2082
1631204136491,2073
1631204136495,2063
1631204136499,2056
1631204136503,2051
1631204136507,2048
1631204136511,2047
1631204136515,2044
1631204136519,2040
1631204136523,2035
1631204136527,2031
1631204136531,2029
1631204136535,2029
1631204136539,2030
1631204136543,2031
1631204136547,2030
1631204136551,2029
1631204136555,2027
1631204136559,2025
1631204136563,2025
1631204136567,2025
1631204136571,2026
1631204136575,2028
1631204136579,2029
1631204136583,2032
1631204136587,2034
1631204136591,2035
1631204136595,2035
1631204136599,2034
1631204136603,2033
1631204136607,2031
1631204136611,2030
1631204136615,2031
1631204136619,2032
1631204136623,2033
1631204136627,2034
1631204136631,2034
1631204136635,2032
1631204136639,2030
1631204136643,2028
1631204136647,2029
1631204136651,2031
1631204136655,2032
1631204136659,2032
1631204136663,2030
1631204136667,2028
1631204136671,2027
1631204136675,2028
1631204136679,2029
1631204136683,2031
1631204136687,2032
1631204136691,2032
1631204136695,2032
1631204136699,2032
1631204136703,2033
1631204136707,2034
1631204136711,2033
1631204136715,2032
1631204136719,2029
1631204136723,2026
1631204136727,2025
1631204136731,2025
1631204136735,2026
1631204136739,2028
1631204136743,2029
1631204136747,2029
1631204136751,2029
1631204136755,2027
1631204136759,2025
1631204136763,2024
1631204136767,2024
1631204136771,2026
1631204136775,2029
1631204136779,2031
1631204136783,2032
1631204136787,2029
1631204136791,2026
1631204136795,2023
1631204136799,2023
1631204136803,2025
1631204136807,2028
1631204136811,2030
1631204136815,2030
1631204136819,2030
1631204136823,2030
1631204136827,2029
1631204136831,2028
1631204136835,2027
1631204136839,2027
1631204136843,2026
1631204136847,2025
1631204136851,2025
1631204136855,2025
1631204136859,2026
1631204136863,2027
1631204136867,2029
1631204136871,2030
1631204136875,2030
1631204136879,2029
1631204136883,2029
1631204136887,2028
1631204136891,2028
1631204136895,2028
1631204136899,2029
1631204136903,2030
1631204136907,2033
1631204136911,2035
1631204136915,2036
1631204136919,2036
1631204136923,2036
1631204136927,2035
1631204136931,2036
1631204136935,2038
1631204136939,2040
1631204136943,2040
1631204136947,2038
1631204136951,2035
1631204136955,2033
1631204136959,2030
1631204136963,2029
1631204136967,2028
1631204136971,2027
1631204136975,2027
1631204136979,2027
1631204136983,2028
1631204136987,2029
1631204136991,2031
1631204136995,2033
1631204136999,2033
1631204137003,2031
1631204137007,2028
1631204137011,2024
1631204137015,2023
1631204137019,2023
1631204137023,2026
1631204137027,2029
1631204137031,2032
1631204137035,2032
1631204137039,2030
1631204137043,2029
1631204137047,2028
1631204137051,2028
1631204137055,2027
1631204137059,2025
1631204137063,2024
1631204137067,2026
1631204137071,2035
1631204137075,2054
1631204137079,2090
1631204137083,2137
1631204137087,2186
1631204137091,2221
1631204137095,2226
1631204137099,2194
1631204137103,2133
1631204137107,2064
1631204137111,2012
1631204137115,1987
1631204137119,1989
1631204137123,2007
1631204137127,2026
1631204137131,2035
1631204137135,2037
1631204137139,2035
1631204137143,2033
1631204137147,2034
1631204137151,2036
1631204137155,2039
1631204137159,2040
1631204137163,2041
1631204137167,2041
1631204137171,2041
1631204137175,2043
1631204137179,2043
1631204137183,2045
1631204137187,2046
1631204137191,2047
1631204137195,2048
1631204137199,2051
1631204137203,2054
1631204137207,2056
1631204137211,2056
1631204137215,2054
1631204137219,2052
1631204137223,2053
1631204137227,2055
1631204137231,2059
1631204137235,2063
1631204137239,2065
1631204137243,2067
1631204137247,2066
1631204137251,2065
1631204137255,2065
1631204137259,2066
1631204137263,2068
1631204137267,2072
1631204137271,2075
1631204137275,2078
1631204137279,2081
1631204137283,2085
1631204137287,2088
1631204137291,2092
1631204137295,2096
1631204137299,2100
1631204137303,2103
1631204137307,2106
1631204137311,2110
1631204137315,2113
1631204137319,2116
1631204137323,2119
1631204137327,2121
1631204137331,2122
1631204137335,2122
1631204137339,2123
1631204137343,2125
1631204137347,2127
1631204137351,2128
1631204137355,2128
1631204137359,2127
1631204137363,2124
1631204137367,2121
1631204137371,2117
1631204137375,2110
1631204137379,2102
1631204137383,2091
1631204137387,2081
1631204137391,2073
1631204137395,2067
1631204137399,2062
1631204137403,2055
1631204137407,2048
1631204137411,2039
1631204137415,2031
1631204137419,2026
1631204137423,2023
1631204137427,2020
1631204137431,2017
1631204137435,2015
1631204137439,2013
1631204137443,2014
1631204137447,2015
1631204137451,2016
1631204137455,2016
1631204137459,2016
1631204137463,2016
1631204137467,2017
1631204137471,2017
1631204137475,2017
1631204137479,2016
1631204137483,2016
1631204137487,2016
1631204137491,2018
1631204137495,2019
1631204137499,2020
1631204137503,2019
1631204137507,2018
1631204137511,2018
1631204137515,2019
1631204137519,2022
1631204137523,2024
1631204137527,2023
1631204137531,2021
1631204137535,2020
1631204137539,2019
1631204137543,2020
1631204137547,2022
1631204137551,2024
1631204137555,2024
1631204137559,2023
1631204137563,2022
1631204137567,2020
1631204137571,2020
1631204137575,2020
1631204137579,2021
1631204137583,2021
1631204137587,2022
1631204137591,2023
1631204137595,2024
1631204137599,2024
1631204137603,2024
1631204137607,2022
1631204137611,2020
1631204137615,2020
1631204137619,2021
1631204137623,2023
1631204137627,2025
1631204137631,2025
1631204137635,2024
1631204137639,2023
1631204137643,2022
1631204137647,2023
1631204137651,2025
1631204137655,2027
1631204137659,2028
1631204137663,2028
1631204137667,2027
1631204137671,2025
1631204137675,2024
1631204137679,2023
1631204137683,2024
1631204137687,2026
1631204137691,2027
1631204137695,2027
1631204137699,2026
1631204137703,2026
1631204137707,2027
1631204137711,2029
1631204137715,2031
1631204137719,2031
1631204137723,2029
1631204137727,2027
1631204137731,2026
1631204137735,2026
1631204137739,2026
1631204137743,2027
1631204137747,2028
1631204137751,2029
1631204137755,2031
1631204137759,2031
1631204137763,2030
1631204137767,2028
1631204137771,2028
1631204137775,2030
1631204137779,2033
1631204137783,2037
1631204137787,2038
1631204137791,2038
1631204137795,2037
1631204137799,2035
1631204137803,2035
1631204137807,2037
1631204137811,2040
1631204137815,2044
1631204137819,2045
1631204137823,2045
1631204137827,2042
1631204137831,2038
1631204137835,2034
1631204137839,2033
1631204137843,2033
1631204137847,2034
1631204137851,2034
1631204137855,2034
1631204137859,2033
1631204137863,2032
1631204137867,2033
1631204137871,2033
1631204137875,2034
1631204137879,2035
1631204137883,2036
1631204137887,2037
1631204137891,2038
1631204137895,2038
1631204137899,2037
1631204137903,2035
1631204137907,2034
1631204137911,2035
1631204137915,2037
1631204137919,2039
1631204137923,2041
1631204137927,2042
1631204137931,2043
1631204137935,2041
1631204137939,2037
1631204137943,2033
1631204137947,2032
1631204137951,2038
1631204137955,2055
1631204137959,2089
1631204137963,2135
1631204137967,2185
1631204137971,2224
1631204137975,2235
1631204137979,2208
1631204137983,2151
1631204137987,2080
1631204137991,2022
1631204137995,1992
1631204137999,1991
1631204138003,2009
1631204138007,2031
1631204138011,2043
1631204138015,2048
1631204138019,2046
1631204138023,2044
1631204138027,2045
1631204138031,2047
1631204138035,2048
1631204138039,2050
1631204138043,2052
1631204138047,2052
1631204138051,2052
1631204138055,2051
1631204138059,2051
1631204138063,2052
1631204138067,2054
1631204138071,2056
1631204138075,2058
1631204138079,2059
1631204138083,2061
1631204138087,2063
1631204138091,2064
1631204138095,2065
1631204138099,2066
1631204138103,2067
1631204138107,2067
1631204138111,2069
1631204138115,2071
1631204138119,2074
1631204138123,2075
1631204138127,2076
1631204138131,2075
1631204138135,2075
1631204138139,2076
1631204138143,2079
1631204138147,2082
1631204138151,2085
1631204138155,2089
1631204138159,2091
1631204138163,2094
1631204138167,2096
1631204138171,2099
1631204138175,2103
1631204138179,2107
1631204138183,2112
1631204138187,2117
1631204138191,2121
1631204138195,2125
1631204138199,2128
1631204138203,2130
1631204138207,2131
1631204138211,2132
1631204138215,2133
1631204138219,2134
1631204138223,2136
1631204138227,2138
1631204138231,2139
1631204138235,2139
1631204138239,2137
1631204138243,2134
1631204138247,2130
1631204138251,2125
1631204138255,2118
1631204138259,2110
1631204138263,2101
1631204138267,2092
1631204138271,2084
1631204138275,2077
1631204138279,2068
1631204138283,2060
1631204138287,2051
1631204138291,2045
1631204138295,2041
1631204138299,2038
1631204138303,2037
1631204138307,2034
1631204138311,2032
1631204138315,2030
1631204138319,2028
1631204138323,2027
1631204138327,2027
1631204138331,2027
1631204138335,2028
1631204138339,2029
1631204138343,2029
1631204138347,2029
1631204138351,2028
1631204138355,2026
1631204138359,2024
1631204138363,2024
1631204138367,2025
1631204138371,2027
1631204138375,2028
1631204138379,2029
1631204138383,2030
1631204138387,2032
1631204138391,2032
1631204138395,2031
1631204138399,2030
1631204138403,2029
1631204138407,2029
1631204138411,2030
1631204138415,2033
1631204138419,2034
1631204138423,2035
1631204138427,2035
1631204138431,2033
1631204138435,2032
1631204138439,2032
1631204138443,2032
1631204138447,2033
1631204138451,2033
1631204138455,2034
1631204138459,2034
1631204138463,2033
1631204138467,2032
1631204138471,2031
1631204138475,2031
1631204138479,2031
1631204138483,2032
1631204138487,2033
1631204138491,2033
1631204138495,2033
1631204138499,2032
1631204138503,2031
1631204138507,2031
1631204138511,2030
1631204138515,2029
1631204138519,2028
1631204138523,2028
1631204138527,2028
1631204138531,2030
1631204138535,2033
1631204138539,2035
1631204138543,2036
1631204138547,2036
1631204138551,2036
1631204138555,2035
1631204138559,2035
1631204138563,2036
1631204138567,2037
1631204138571,2037
1631204138575,2036
1631204138579,2035
1631204138583,2034
1631204138587,2033
1631204138591,2034
1631204138595,2036
1631204138599,2038
1631204138603,2039
1631204138607,2039
1631204138611,2038
1631204138615,2036
1631204138619,2034
1631204138623,2033
1631204138627,2033
1631204138631,2035
1631204138635,2037
1631204138639,2038
1631204138643,2038
1631204138647,2038
1631204138651,2038
1631204138655,2038
1631204138659,2037
1631204138663,2036
1631204138667,2035
1631204138671,2036
1631204138675,2038
1631204138679,2040
1631204138683,2043
1631204138687,2045
1631204138691,2047
1631204138695,2048
1631204138699,2048
1631204138703,2048
1631204138707,2048
1631204138711,2047
1631204138715,2047
1631204138719,2047
1631204138723,2047
1631204138727,2046
1631204138731,2044
1631204138735,2042
1631204138739,2040
1631204138743,2040
1631204138747,2041
1631204138751,2042
1631204138755,2042
1631204138759,2042
1631204138763,2040
1631204138767,2039
1631204138771,2039
1631204138775,2038
1631204138779,2037
1631204138783,2037
1631204138787,2036
1631204138791,2037
1631204138795,2040
1631204138799,2043
1631204138803,2045
1631204138807,2046
1631204138811,2045
1631204138815,2044
1631204138819,2043
1631204138823,2043
1631204138827,2043
1631204138831,2042
1631204138835,2038
1631204138839,2033
1631204138843,2031
1631204138847,2036
1631204138851,2051
1631204138855,2082
1631204138859,2125
1631204138863,2174
1631204138867,2217
1631204138871,2236
1631204138875,2220
1631204138879,2170
1631204138883,2103
1631204138887,2042
1631204138891,2004
1631204138895,1995
1631204138899,2008
1631204138903,2027
1631204138907,2041
1631204138911,2048
1631204138915,2048
1631204138919,2048
1631204138923,2049
1631204138927,2050
1631204138931,2050
1631204138935,2051
1631204138939,2051
1631204138943,2052
1631204138947,2053
1631204138951,2054
1631204138955,2055
1631204138959,2055
1631204138963,2054
1631204138967,2053
1631204138971,2052
1631204138975,2053
1631204138979,2055
1631204138983,2057
1631204138987,2059
1631204138991,2059
1631204138995,2060
1631204138999,2060
1631204139003,2062
1631204139007,2065
1631204139011,2068
1631204139015,2072
1631204139019,2074
1631204139023,2075
1631204139027,2076
1631204139031,2076
1631204139035,2076
1631204139039,2077
1631204139043,2079
1631204139047,2081
1631204139051,2085
1631204139055,2089
1631204139059,2093
1631204139063,2097
1631204139067,2100
1631204139071,2102
1631204139075,2104
1631204139079,2106
1631204139083,2107
1631204139087,2110
1631204139091,2113
1631204139095,2117
1631204139099,2121
1631204139103,2125
1631204139107,2129
1631204139111,2132
1631204139115,2134
1631204139119,2134
1631204139123,2134
1631204139127,2133
1631204139131,2132
1631204139135,2132
1631204139139,2133
1631204139143,2132
1631204139147,2127
1631204139151,2121
1631204139155,2113
1631204139159,2105
1631204139163,2097
1631204139167,2091
1631204139171,2082
1631204139175,2073
1631204139179,2062
1631204139183,2051
1631204139187,2043
1631204139191,2037
1631204139195,2033
1631204139199,2031
1631204139203,2030
1631204139207,2030
1631204139211,2028
1631204139215,2027
1631204139219,2026
1631204139223,2026
1631204139227,2027
1631204139231,2027
1631204139235,2028
1631204139239,2027
1631204139243,2026
1631204139247,2025
1631204139251,2025
1631204139255,2026
1631204139259,2027
1631204139263,2028
1631204139267,2029
1631204139271,2030
1631204139275,2030
1631204139279,2030
1631204139283,2028
1631204139287,2025
1631204139291,2023
1631204139295,2023
1631204139299,2025
1631204139303,2027
1631204139307,2029
1631204139311,2030
1631204139315,2031
1631204139319,2031
1631204139323,2032
1631204139327,2032
1631204139331,2032
1631204139335,2031
1631204139339,2030
1631204139343,2031
1631204139347,2033
1631204139351,2034
1631204139355,2034
1631204139359,2033
1631204139363,2031
1631204139367,2029
1631204139371,2029
1631204139375,2028
1631204139379,2029
1631204139383,2029
1631204139387,2030
1631204139391,2031
1631204139395,2032
1631204139399,2032
1631204139403,2031
1631204139407,2030
1631204139411,2029
1631204139415,2028
1631204139419,2028
1631204139423,2028
1631204139427,2028
1631204139431,2028
1631204139435,2029
1631204139439,2030
1631204139443,2031
1631204139447,2032
1631204139451,2032
1631204139455,2033
1631204139459,2034
1631204139463,2033
1631204139467,2033
1631204139471,2032
1631204139475,2032
1631204139479,2032
1631204139483,2034
1631204139487,2035
1631204139491,2035
1631204139495,2035
1631204139499,2035
1631204139503,2036
1631204139507,2035
1631204139511,2035
1631204139515,2034
1631204139519,2032
1631204139523,2030
1631204139527,2030
1631204139531,2031
1631204139535,2033
1631204139539,2034
1631204139543,2035
1631204139547,2034
1631204139551,2032
1631204139555,2031
1631204139559,2030
1631204139563,2031
1631204139567,2033
1631204139571,2036
1631204139575,2040
1631204139579,2044
1631204139583,2048
1631204139587,2048
1631204139591,2047
1631204139595,2043
1631204139599,2039
1631204139603,2037
1631204139607,2037
1631204139611,2039
1631204139615,2041
1631204139619,2042
1631204139623,2042
1631204139627,2040
1631204139631,2037
1631204139635,2033
1631204139639,2030
1631204139643,2029
1631204139647,2029
1631204139651,2031
1631204139655,2034
1631204139659,2035
1631204139663,2034
1631204139667,2032
1631204139671,2030
1631204139675,2029
1631204139679,2029
1631204139683,2030
1631204139687,2030
1631204139691,2031
1631204139695,2031
1631204139699,2032
1631204139703,2033
1631204139707,2035
1631204139711,2036
1631204139715,2036
1631204139719,2034
1631204139723,2031
1631204139727,2027
1631204139731,2025
1631204139735,2027
1631204139739,2036
1631204139743,2057
1631204139747,2093
1631204139751,2141
1631204139755,2193
1631204139759,2230
1631204139763,2234
1631204139767,2199
1631204139771,2133
1631204139775,2061
1631204139779,2006
1631204139783,1981
1631204139787,1985
1631204139791,2005
1631204139795,2024
1631204139799,2034
1631204139803,2038
1631204139807,2037
1631204139811,2037
1631204139815,2038
1631204139819,2039
1631204139823,2041
1631204139827,2044
1631204139831,2046
1631204139835,2046
1631204139839,2046
1631204139843,2045
1631204139847,2044
1631204139851,2044
1631204139855,2044
1631204139859,2045
1631204139863,2047
1631204139867,2048
1631204139871,2051
1631204139875,2053
1631204139879,2054
1631204139883,2054
1631204139887,2053
1631204139891,2053
1631204139895,2053
1631204139899,2055
1631204139903,2057
1631204139907,2059
1631204139911,2062
1631204139915,2064
1631204139919,2067
1631204139923,2069
1631204139927,2071
1631204139931,2072
1631204139935,2073
1631204139939,2075
1631204139943,2079
1631204139947,2085
1631204139951,2090
1631204139955,2094
1631204139959,2098
1631204139963,2100
1631204139967,2102
1631204139971,2103
1631204139975,2104
1631204139979,2106
1631204139983,2111
1631204139987,2117
1631204139991,2122
1631204139995,2126
1631204139999,2126
1631204140003,2125
1631204140007,2124
1631204140011,2125
1631204140015,2127
1631204140019,2130
1631204140023,2132
1631204140027,2132
1631204140031,2129
1631204140035,2124
1631204140039,2116
1631204140043,2108
1631204140047,2099
1631204140051,2091
1631204140055,2082
1631204140059,2074
1631204140063,2066
1631204140067,2057
1631204140071,2050
1631204140075,2044
1631204140079,2037
1631204140083,2031
1631204140087,2025
1631204140091,2021
1631204140095,2019
1631204140099,2020
1631204140103,2022
1631204140107,2023
1631204140111,2023
1631204140115,2020
1631204140119,2015
1631204140123,2012
1631204140127,2011
1631204140131,2013
1631204140135,2015
1631204140139,2018
1631204140143,2020
1631204140147,2021
1631204140151,2021
1631204140155,2021
1631204140159,2022
1631204140163,2022
1631204140167,2022
1631204140171,2021
1631204140175,2020
1631204140179,2019
1631204140183,2020
1631204140187,2021
1631204140191,2023
1631204140195,2024
1631204140199,2024
1631204140203,2025
1631204140207,2024
1631204140211,2023
1631204140215,2022
1631204140219,2021
1631204140223,2021
1631204140227,2021
1631204140231,2022
1631204140235,2023
1631204140239,2024
1631204140243,2025
1631204140247,2024
1631204140251,2023
1631204140255,2021
1631204140259,2021
1631204140263,2021
1631204140267,2023
1631204140271,2024
1631204140275,2024
1631204140279,2024
1631204140283,2023
1631204140287,2022
1631204140291,2022
1631204140295,2022
1631204140299,2023
1631204140303,2024
1631204140307,2024
1631204140311,2025
1631204140315,2027
1631204140319,2028
1631204140323,2028
1631204140327,2027
1631204140331,2025
1631204140335,2023
1631204140339,2022
1631204140343,2022
1631204140347,2023
1631204140351,2026
1631204140355,2028
1631204140359,2030
1631204140363,2031
1631204140367,2032
1631204140371,2030
1631204140375,2028
1631204140379,2026
1631204140383,2026
1631204140387,2027
1631204140391,2029
1631204140395,2030
1631204140399,2031
1631204140403,2030
1631204140407,2029
1631204140411,2028
1631204140415,2028
1631204140419,2027
1631204140423,2028
1631204140427,2030
1631204140431,2034
1631204140435,2039
1631204140439,2042
1631204140443,2043
1631204140447,2041
1631204140451,2039
1631204140455,2038
1631204140459,2037
1631204140463,2039
1631204140467,2041
1631204140471,2043
1631204140475,2043
1631204140479,2042
1631204140483,2039
1631204140487,2036
1631204140491,2033
1631204140495,2032
1631204140499,2034
1631204140503,2038
1631204140507,2041
1631204140511,2041
1631204140515,2039
1631204140519,2037
1631204140523,2035
1631204140527,2035
1631204140531,2036
1631204140535,2036
1631204140539,2035
1631204140543,2034
1631204140547,2034
1631204140551,2035
1631204140555,2036
1631204140559,2036
1631204140563,2035
1631204140567,2033
1631204140571,2032
1631204140575,2033
1631204140579,2036
1631204140583,2039
1631204140587,2039
1631204140591,2037
1631204140595,2034
1631204140599,2035
1631204140603,2043
1631204140607,2064
1631204140611,2103
1631204140615,2152
1631204140619,2201
1631204140623,2233
1631204140627,2230
1631204140631,2190
1631204140635,2125
1631204140639,2055
1631204140643,2007
1631204140647,1987
1631204140651,1994
1631204140655,2014
1631204140659,2032
1631204140663,2041
1631204140667,2044
1631204140671,2044
1631204140675,2044
1631204140679,2045
1631204140683,2046
1631204140687,2048
1631204140691,2050
1631204140695,2053
1631204140699,2054
1631204140703,2054
1631204140707,2053
1631204140711,2052
1631204140715,2052
1631204140719,2053
1631204140723,2055
1631204140727,2057
1631204140731,2059
1631204140735,2060
1631204140739,2061
1631204140743,2062
1631204140747,2064
1631204140751,2066
1631204140755,2068
1631204140759,2069
1631204140763,2070
1631204140767,2071
1631204140771,2072
1631204140775,2074
1631204140779,2076
1631204140783,2077
1631204140787,2079
1631204140791,2081
1631204140795,2083
1631204140799,2084
1631204140803,2086
1631204140807,2087
1631204140811,2089
1631204140815,2093
1631204140819,2099
1631204140823,2106
1631204140827,2111
1631204140831,2114
1631204140835,2115
1631204140839,2116
1631204140843,2118
1631204140847,2122
1631204140851,2127
1631204140855,2132
1631204140859,2135
1631204140863,2138
1631204140867,2140
1631204140871,2142
1631204140875,2144
1631204140879,2146
1631204140883,2147
1631204140887,2146
1631204140891,2143
1631204140895,2139
1631204140899,2132
1631204140903,2126
1631204140907,2118
1631204140911,2110
1631204140915,2102
1631204140919,2093
1631204140923,2084
1631204140927,2073
1631204140931,2064
1631204140935,2056
1631204140939,2050
1631204140943,2048
1631204140947,2046
1631204140951,2044
1631204140955,2042
1631204140959,2038
1631204140963,2035
1631204140967,2033
1631204140971,2032
1631204140975,2032
1631204140979,2032
1631204140983,2032
1631204140987,2032
1631204140991,2033
1631204140995,2033
1631204140999,2032
1631204141003,2031
1631204141007,2031
1631204141011,2031
1631204141015,2032
1631204141019,2035
1631204141023,2037
1631204141027,2038
1631204141031,2037
1631204141035,2036
1631204141039,2035
1631204141043,2035
1631204141047,2034
1631204141051,2034
1631204141055,2033
1631204141059,2032
1631204141063,2033
1631204141067,2034
1631204141071,2036
1631204141075,2038
1631204141079,2038
1631204141083,2039
1631204141087,2038
1631204141091,2038
1631204141095,2037
1631204141099,2036
1631204141103,2036
1631204141107,2036
1631204141111,2036
1631204141115,2036
1631204141119,2035
1631204141123,2035
1631204141127,2034
1631204141131,2034
1631204141135,2034
1631204141139,2034
1631204141143,2034
1631204141147,2034
1631204141151,2036
1631204141155,2037
1631204141159,2038
1631204141163,2038
1631204141167,2037
1631204141171,2036
1631204141175,2035
1631204141179,2036
1631204141183,2037
1631204141187,2038
1631204141191,2039
1631204141195,2039
1631204141199,2039
1631204141203,2039
1631204141207,2038
1631204141211,2036
1631204141215,2035
1631204141219,2034
1631204141223,2035
1631204141227,2037
1631204141231,2039
1631204141235,2040
1631204141239,2040
1631204141243,2039
1631204141247,2038
1631204141251,2037
1631204141255,2037
1631204141259,2037
1631204141263,2038
1631204141267,2039
1631204141271,2040
1631204141275,2041
1631204141279,2041
1631204141283,2041
1631204141287,2040
1631204141291,2040
1631204141295,2039
1631204141299,2038
1631204141303,2038
1631204141307,2039
1631204141311,2041
1631204141315,2043
1631204141319,2045
1631204141323,2046
1631204141327,2045
1631204141331,2046
1631204141335,2047
1631204141339,2048
1631204141343,2049
1631204141347,2050
1631204141351,2051
1631204141355,2051
1631204141359,2051
1631204141363,2050
1631204141367,2048
1631204141371,2046
1631204141375,2045
1631204141379,2045
1631204141383,2045
1631204141387,2045
1631204141391,2044
1631204141395,2043
1631204141399,2042
1631204141403,2042
1631204141407,2043
1631204141411,2044
1631204141415,2045
1631204141419,2046
1631204141423,2046
1631204141427,2046
1631204141431,2046
1631204141435,2046
1631204141439,2046
1631204141443,2045
1631204141447,2045
1631204141451,2044
1631204141455,2043
1631204141459,2043
1631204141463,2043
1631204141467,2044
1631204141471,2045
1631204141475,2047
1631204141479,2045
1631204141483,2041
1631204141487,2039
1631204141491,2041
1631204141495,2053
1631204141499,2081
1631204141503,2125
1631204141507,2177
1631204141511,2223
1631204141515,2244
1631204141519,2228
1631204141523,2177
1631204141527,2107
1631204141531,2046
1631204141535,2008
1631204141539,2000
1631204141543,2015
1631204141547,2035
1631204141551,2048
1631204141555,2052
1631204141559,2051
1631204141563,2049
1631204141567,2048
1631204141571,2049
1631204141575,2050
1631204141579,2052
1631204141583,2055
1631204141587,2057
1631204141591,2058
1631204141595,2058
1631204141599,2055
1631204141603,2053
1631204141607,2052
1631204141611,2052
1631204141615,2055
1631204141619,2057
1631204141623,2061
1631204141627,2064
1631204141631,2065
1631204141635,2066
1631204141639,2066
1631204141643,2066
1631204141647,2066
1631204141651,2067
1631204141655,2069
1631204141659,2071
1631204141663,2073
1631204141667,2076
1631204141671,2079
1631204141675,2082
1631204141679,2083
1631204141683,2084
1631204141687,2084
1631204141691,2085
1631204141695,2086
1631204141699,2088
1631204141703,2091
1631204141707,2094
1631204141711,2097
1631204141715,2101
1631204141719,2106
1631204141723,2110
1631204141727,2114
1631204141731,2116
1631204141735,2118
1631204141739,2121
1631204141743,2125
1631204141747,2131
1631204141751,2135
1631204141755,2139
1631204141759,2141
1631204141763,2141
1631204141767,2140
1631204141771,2139
1631204141775,2138
1631204141779,2136
1631204141783,2134
1631204141787,2131
1631204141791,2127
1631204141795,2122
1631204141799,2115
1631204141803,2108
1631204141807,2099
1631204141811,2088
1631204141815,2077
1631204141819,2067
1631204141823,2059
1631204141827,2053
1631204141831,2048
1631204141835,2044
1631204141839,2039
1631204141843,2034
1631204141847,2030
1631204141851,2027
1631204141855,2025
1631204141859,2024
1631204141863,2025
1631204141867,2026
1631204141871,2027
1631204141875,2027
1631204141879,2026
1631204141883,2025
1631204141887,2024
1631204141891,2024
1631204141895,2024
1631204141899,2025
1631204141903,2026
1631204141907,2027
1631204141911,2027
1631204141915,2028
1631204141919,2029
1631204141923,2029
1631204141927,2030
1631204141931,2030
1631204141935,2031
1631204141939,2031
1631204141943,2031
1631204141947,2030
1631204141951,2029
1631204141955,2029
1631204141959,2029
1631204141963,2029
1631204141967,2030
1631204141971,2031
1631204141975,2032
1631204141979,2033
1631204141983,2033
1631204141987,2033
1631204141991,2032
1631204141995,2031
1631204141999,2030
1631204142003,2029
1631204142007,2030
1631204142011,2032
1631204142015,2033
1631204142019,2033
1631204142023,2031
1631204142027,2028
1631204142031,2027
1631204142035,2027
1631204142039,2029
1631204142043,2032
1631204142047,2033
1631204142051,2033
1631204142055,2031
1631204142059,2030
1631204142063,2031
1631204142067,2033
1631204142071,2034
1631204142075,2034
1631204142079,2032
1631204142083,2031
1631204142087,2030
1631204142091,2030
1631204142095,2031
1631204142099,2033
1631204142103,2034
1631204142107,2034
1631204142111,2035
1631204142115,2035
1631204142119,2034
1631204142123,2032
1631204142127,2030
1631204142131,2030
1631204142135,2031
1631204142139,2035
1631204142143,2038
1631204142147,2039
1631204142151,2037
1631204142155,2034
1631204142159,2031
1631204142163,2031
1631204142167,2033
1631204142171,2035
1631204142175,2037
1631204142179,2036
1631204142183,2035
1631204142187,2034
1631204142191,2034
1631204142195,2034
1631204142199,2034
1631204142203,2034
1631204142207,2034
1631204142211,2034
1631204142215,2036
1631204142219,2038
1631204142223,2041
1631204142227,2044
1631204142231,2046
1631204142235,2047
1631204142239,2046
1631204142243,2044
1631204142247,2043
1631204142251,2043
1631204142255,2045
1631204142259,2046
1631204142263,2047
1631204142267,2047
1631204142271,2046
1631204142275,2044
1631204142279,2041
1631204142283,2039
1631204142287,2037
1631204142291,2035
1631204142295,2035
1631204142299,2035
1631204142303,2036
1631204142307,2037
1631204142311,2039
1631204142315,2040
1631204142319,2041
1631204142323,2041
1631204142327,2041
1631204142331,2040
1631204142335,2040
1631204142339,2039
1631204142343,2040
1631204142347,2041
1631204142351,2042
1631204142355,2042
1631204142359,2042
1631204142363,2042
1631204142367,2041
1631204142371,2040
1631204142375,2037
1631204142379,2033
1631204142383,2032
1631204142387,2037
1631204142391,2050
1631204142395,2077
1631204142399,2117
1631204142403,2165
1631204142407,2210
1631204142411,2234
1631204142415,2222
1631204142419,2176
1631204142423,2110
1631204142427,2048
1631204142431,2009
1631204142435,1999
1631204142439,2010
1631204142443,2029
1631204142447,2042
1631204142451,2047
1631204142455,2047
1631204142459,2046
1631204142463,2047
1631204142467,2048
1631204142471,2048
1631204142475,2048
1631204142479,2047
1631204142483,2046
1631204142487,2047
1631204142491,2050
1631204142495,2053
1631204142499,2055
1631204142503,2056
1631204142507,2056
1631204142511,2057
1631204142515,2059
1631204142519,2061
1631204142523,2061
1631204142527,2060
1631204142531,2058
1631204142535,2056
1631204142539,2056
1631204142543,2058
1631204142547,2062
1631204142551,2065
1631204142555,2067
1631204142559,2068
1631204142563,2068
1631204142567,2068
1631204142571,2069
1631204142575,2072
1631204142579,2075
1631204142583,2079
1631204142587,2081
1631204142591,2083
1631204142595,2085
1631204142599,2087
1631204142603,2090
1631204142607,2094
1631204142611,2098
1631204142615,2101
1631204142619,2105
1631204142623,2108
1631204142627,2112
1631204142631,2114
1631204142635,2115
1631204142639,2116
1631204142643,2119
1631204142647,2123
1631204142651,2129
1631204142655,2135
1631204142659,2139
1631204142663,2141
1631204142667,2139
1631204142671,2136
1631204142675,2133
1631204142679,2129
1631204142683,2126
1631204142687,2121
1631204142691,2114
1631204142695,2106
1631204142699,2096
1631204142703,2087
1631204142707,2079
1631204142711,2070
1631204142715,2062
1631204142719,2054
1631204142723,2047
1631204142727,2040
1631204142731,2035
1631204142735,2032
1631204142739,2028
1631204142743,2026
1631204142747,2024
1631204142751,2022
1631204142755,2021
1631204142759,2021
1631204142763,2020
1631204142767,2019
1631204142771,2018
1631204142775,2017
1631204142779,2017
1631204142783,2018
1631204142787,2020
1631204142791,2020
1631204142795,2019
1631204142799,2017
1631204142803,2014
1631204142807,2013
1631204142811,2013
1631204142815,2015
1631204142819,2017
1631204142823,2019
1631204142827,2020
1631204142831,2020
1631204142835,2020
1631204142839,2020
1631204142843,2020
1631204142847,2020
1631204142851,2020
1631204142855,2020
1631204142859,2019
1631204142863,2019
1631204142867,2019
1631204142871,2020
1631204142875,2020
1631204142879,2021
1631204142883,2021
1631204142887,2020
1631204142891,2019
1631204142895,2019
1631204142899,2018
1631204142903,2018
1631204142907,2018
1631204142911,2017
1631204142915,2017
1631204142919,2017
1631204142923,2017
1631204142927,2017
1631204142931,2018
1631204142935,2019
1631204142939,2019
1631204142943,2019
1631204142947,2019
1631204142951,2019
1631204142955,2019
1631204142959,2020
1631204142963,2022
1631204142967,2022
1631204142971,2023
1631204142975,2023
1631204142979,2022
1631204142983,2023
1631204142987,2023
1631204142991,2024
1631204142995,2024
1631204142999,2022
1631204143003,2020
1631204143007,2018
1631204143011,2017
1631204143015,2017
1631204143019,2019
1631204143023,2022
1631204143027,2024
1631204143031,2025
1631204143035,2025
1631204143039,2025
1631204143043,2024
1631204143047,2024
1631204143051,2023
1631204143055,2022
1631204143059,2021
1631204143063,2021
1631204143067,2022
1631204143071,2024
1631204143075,2026
1631204143079,2026
1631204143083,2026
1631204143087,2025
1631204143091,2024
1631204143095,2023
1631204143099,2023
1631204143103,2024
1631204143107,2025
1631204143111,2028
1631204143115,2031
1631204143119,2034
1631204143123,2036
1631204143127,2036
1631204143131,2035
1631204143135,2034
1631204143139,2033
1631204143143,2034
1631204143147,2036
1631204143151,2038
1631204143155,2040
1631204143159,2039
1631204143163,2037
1631204143167,2034
1631204143171,2032
1631204143175,2030
1631204143179,2029
1631204143183,2029
1631204143187,2030
1631204143191,2031
1631204143195,2033
1631204143199,2034
1631204143203,2031
1631204143207,2027
1631204143211,2023
1631204143215,2021
1631204143219,2023
1631204143223,2027
1631204143227,2033
1631204143231,2036
1631204143235,2037
1631204143239,2035
1631204143243,2033
1631204143247,2031
1631204143251,2031
1631204143255,2031
1631204143259,2032
1631204143263,2033
1631204143267,2033
1631204143271,2031
1631204143275,2028
1631204143279,2029
1631204143283,2035
1631204143287,2050
1631204143291,2080
1631204143295,2124
1631204143299,2173
1631204143303,2215
1631204143307,2230
1631204143311,2208
1631204143315,2152
1631204143319,2080
1631204143323,2018
1631204143327,1984
1631204143331,1980
1631204143335,1998
1631204143339,2021
1631204143343,2036
1631204143347,2042
1631204143351,2042
1631204143355,2041
1631204143359,2042
1631204143363,2043
1631204143367,2043
1631204143371,2043
1631204143375,2044
1631204143379,2046
1631204143383,2048
1631204143387,2049
1631204143391,2050
1631204143395,2050
1631204143399,2049
1631204143403,2048
1631204143407,2048
1631204143411,2048
1631204143415,2050
1631204143419,2051
1631204143423,2053
1631204143427,2054
1631204143431,2054
1631204143435,2055
1631204143439,2055
1631204143443,2056
1631204143447,2058
1631204143451,2060
1631204143455,2063
1631204143459,2065
1631204143463,2067
1631204143467,2069
1631204143471,2071
1631204143475,2075
1631204143479,2079
1631204143483,2083
1631204143487,2085
1631204143491,2086
1631204143495,2087
1631204143499,2089
1631204143503,2092
1631204143507,2094
1631204143511,2098
1631204143515,2101
1631204143519,2105
1631204143523,2109
1631204143527,2114
1631204143531,2118
1631204143535,2121
1631204143539,2122
1631204143543,2123
1631204143547,2125
1631204143551,2126
1631204143555,2128
1631204143559,2129
1631204143563,2130
1631204143567,2130
1631204143571,2131
1631204143575,2131
1631204143579,2131
1631204143583,2128
1631204143587,2121
1631204143591,2110
1631204143595,2097
1631204143599,2084
1631204143603,2073
1631204143607,2063
1631204143611,2055
1631204143615,2049
1631204143619,2043
1631204143623,2037
1631204143627,2032
1631204143631,2028
1631204143635,2025
1631204143639,2023
1631204143643,2021
1631204143647,2020
1631204143651,2018
1631204143655,2017
1631204143659,2017
1631204143663,2018
1631204143667,2019
1631204143671,2019
1631204143675,2019
1631204143679,2018
1631204143683,2017
1631204143687,2017
1631204143691,2018
1631204143695,2019
1631204143699,2019
1631204143703,2019
1631204143707,2019
1631204143711,2020
1631204143715,2022
1631204143719,2023
1631204143723,2023
1631204143727,2022
1631204143731,2021
1631204143735,2021
1631204143739,2022
1631204143743,2024
1631204143747,2026
1631204143751,2027
1631204143755,2028
1631204143759,2027
1631204143763,2025
1631204143767,2023
1631204143771,2023
1631204143775,2024
1631204143779,2026
1631204143783,2029
1631204143787,2031
1631204143791,2032
1631204143795,2031
1631204143799,2030
1631204143803,2028
1631204143807,2027
1631204143811,2026
1631204143815,2026
1631204143819,2025
1631204143823,2026
1631204143827,2027
1631204143831,2028
1631204143835,2030
1631204143839,2031
1631204143843,2033
1631204143847,2034
1631204143851,2034
1631204143855,2034
1631204143859,2032
1631204143863,2031
1631204143867,2030
1631204143871,2031
1631204143875,2033
1631204143879,2035
1631204143883,2036
1631204143887,2035
1631204143891,2034
1631204143895,2032
1631204143899,2031
1631204143903,2032
1631204143907,2035
1631204143911,2038
1631204143915,2042
1631204143919,2042
1631204143923,2039
1631204143927,2035
1631204143931,2030
1631204143935,2029
1631204143939,2032
1631204143943,2037
1631204143947,2042
1631204143951,2045
1631204143955,2043
1631204143959,2040
1631204143963,2038
1631204143967,2036
1631204143971,2036
1631204143975,2037
1631204143979,2037
1631204143983,2038
1631204143987,2039
1631204143991,2039
1631204143995,2037
1631204143999,2034
1631204144003,2033
1631204144007,2036
1631204144011,2042
1631204144015,2050
1631204144019,2056
1631204144023,2057
1631204144027,2052
1631204144031,2046
1631204144035,2042
1631204144039,2041
1631204144043,2042
1631204144047,2045
1631204144051,2045
1631204144055,2045
1631204144059,2043
1631204144063,2042
1631204144067,2041
1631204144071,2042
1631204144075,2044
1631204144079,2045
1631204144083,2046
1631204144087,2047
1631204144091,2048
1631204144095,2048
1631204144099,2048
1631204144103,2047
1631204144107,2044
1631204144111,2041
1631204144115,2038
1631204144119,2036
1631204144123,2037
1631204144127,2039
1631204144131,2043
1631204144135,2046
1631204144139,2049
1631204144143,2051
1631204144147,2050
1631204144151,2048
1631204144155,2042
1631204144159,2037
1631204144163,2037
1631204144167,2047
1631204144171,2068
1631204144175,2105
1631204144179,2153
1631204144183,2202
1631204144187,2234
1631204144191,2235
1631204144195,2200
1631204144199,2137
1631204144203,2069
1631204144207,2019
1631204144211,1995
1631204144215,1999
1631204144219,2017
1631204144223,2036
1631204144227,2048
1631204144231,2053
1631204144235,2054
1631204144239,2055
1631204144243,2055
1631204144247,2054
1631204144251,2053
1631204144255,2052
1631204144259,2051
1631204144263,2050
1631204144267,2051
1631204144271,2055
1631204144275,2058
1631204144279,2061
1631204144283,2063
1631204144287,2063
1631204144291,2063
1631204144295,2063
1631204144299,2063
1631204144303,2064
1631204144307,2065
1631204144311,2066
1631204144315,2068
1631204144319,2069
1631204144323,2070
1631204144327,2071
1631204144331,2074
1631204144335,2077
1631204144339,2079
1631204144343,2080
1631204144347,2079
1631204144351,2079
1631204144355,2080
1631204144359,2082
1631204144363,2086
1631204144367,2089
1631204144371,2092
1631204144375,2094
1631204144379,2097
1631204144383,2101
1631204144387,2105
1631204144391,2109
1631204144395,2113
1631204144399,2116
1631204144403,2120
1631204144407,2124
1631204144411,2127
1631204144415,2131
1631204144419,2134
1631204144423,2139
1631204144427,2143
1631204144431,2148
1631204144435,2152
1631204144439,2154
1631204144443,2152
1631204144447,2148
1631204144451,2143
1631204144455,2138
1631204144459,2135
1631204144463,2132
1631204144467,2128
1631204144471,2123
1631204144475,2117
1631204144479,2108
1631204144483,2098
1631204144487,2088
1631204144491,2077
1631204144495,2068
1631204144499,2060
1631204144503,2055
1631204144507,2051
1631204144511,2048
1631204144515,2046
1631204144519,2042
1631204144523,2037
1631204144527,2032
1631204144531,2028
1631204144535,2026
1631204144539,2024
1631204144543,2024
1631204144547,2025
1631204144551,2026
1631204144555,2027
1631204144559,2027
1631204144563,2026
1631204144567,2024
1631204144571,2023
1631204144575,2023
1631204144579,2022
1631204144583,2023
1631204144587,2023
1631204144591,2024
1631204144595,2026
1631204144599,2027
1631204144603,2028
1631204144607,2028
1631204144611,2028
1631204144615,2027
1631204144619,2027
1631204144623,2026
1631204144627,2025
1631204144631,2025
1631204144635,2025
1631204144639,2027
1631204144643,2031
1631204144647,2035
1631204144651,2037
1631204144655,2037
1631204144659,2036
1631204144663,2033
1631204144667,2031
1631204144671,2030
1631204144675,2030
1631204144679,2030
1631204144683,2030
1631204144687,2030
1631204144691,2030
1631204144695,2030
1631204144699,2031
1631204144703,2032
1631204144707,2032
1631204144711,2032
1631204144715,2031
1631204144719,2031
1631204144723,2030
1631204144727,2031
1631204144731,2031
1631204144735,2032
1631204144739,2033
1631204144743,2035
1631204144747,2036
1631204144751,2035
1631204144755,2034
1631204144759,2034
1631204144763,2034
1631204144767,2035
1631204144771,2037
1631204144775,2037
1631204144779,2037
1631204144783,2036
1631204144787,2036
1631204144791,2036
1631204144795,2036
1631204144799,2037
1631204144803,2037
1631204144807,2038
1631204144811,2038
1631204144815,2038
1631204144819,2037
1631204144823,2037
1631204144827,2037
1631204144831,2038
1631204144835,2040
1631204144839,2041
1631204144843,2041
1631204144847,2039
1631204144851,2038
1631204144855,2037
1631204144859,2037
1631204144863,2039
1631204144867,2040
1631204144871,2041
1631204144875,2041
1631204144879,2039
1631204144883,2038
1631204144887,2038
1631204144891,2039
1631204144895,2042
1631204144899,2046
1631204144903,2048
1631204144907,2050
1631204144911,2050
1631204144915,2049
1631204144919,2049
1631204144923,2048
1631204144927,2048
1631204144931,2049
1631204144935,2049
1631204144939,2048
1631204144943,2047
1631204144947,2046
1631204144951,2045
1631204144955,2045
1631204144959,2045
1631204144963,2046
1631204144967,2046
1631204144971,2045
1631204144975,2043
1631204144979,2041
1631204144983,2040
1631204144987,2040
1631204144991,2041
1631204144995,2043
1631204144999,2043
1631204145003,2043
1631204145007,2043
1631204145011,2043
1631204145015,2044
1631204145019,2045
1631204145023,2046
1631204145027,2047
1631204145031,2048
1631204145035,2049
1631204145039,2048
1631204145043,2043
1631204145047,2037
1631204145051,2034
1631204145055,2040
1631204145059,2057
1631204145063,2092
1631204145067,2139
1631204145071,2190
1631204145075,2230
1631204145079,2242
1631204145083,2219
1631204145087,2165
1631204145091,2097
1631204145095,2039
1631204145099,2006
1631204145103,2001
1631204145107,2015
1631204145111,2035
1631204145115,2048
1631204145119,2053
1631204145123,2052
1631204145127,2049
1631204145131,2048
1631204145135,2048
1631204145139,2049
1631204145143,2053
1631204145147,2056
1631204145151,2056
1631204145155,2054
1631204145159,2053
1631204145163,2053
1631204145167,2056
1631204145171,2061
1631204145175,2064
1631204145179,2064
1631204145183,2061
1631204145187,2059
1631204145191,2057
1631204145195,2059
1631204145199,2061
1631204145203,2064
1631204145207,2067
1631204145211,2068
1631204145215,2069
1631204145219,2069
1631204145223,2068
1631204145227,2068
1631204145231,2070
1631204145235,2074
1631204145239,2080
1631204145243,2086
1631204145247,2090
1631204145251,2090
1631204145255,2088
1631204145259,2086
1631204145263,2087
1631204145267,2090
1631204145271,2095
1631204145275,2101
1631204145279,2105
1631204145283,2108
1631204145287,2111
1631204145291,2113
1631204145295,2117
1631204145299,2121
1631204145303,2126
1631204145307,2130
1631204145311,2133
1631204145315,2136
1631204145319,2136
1631204145323,2136
1631204145327,2134
1631204145331,2134
1631204145335,2134
1631204145339,2135
1631204145343,2137
1631204145347,2138
1631204145351,2136
1631204145355,2130
1631204145359,2122
1631204145363,2112
1631204145367,2102
1631204145371,2093
1631204145375,2084
1631204145379,2076
1631204145383,2068
1631204145387,2061
1631204145391,2054
1631204145395,2048
1631204145399,2043
1631204145403,2039
1631204145407,2036
1631204145411,2033
1631204145415,2030
1631204145419,2028
1631204145423,2025
1631204145427,2023
1631204145431,2022
1631204145435,2023
1631204145439,2026
1631204145443,2029
1631204145447,2032
1631204145451,2032
1631204145455,2029
1631204145459,2025
1631204145463,2023
1631204145467,2023
1631204145471,2025
1631204145475,2027
1631204145479,2028
1631204145483,2027
1631204145487,2025
1631204145491,2024
1631204145495,2025
1631204145499,2026
1631204145503,2029
1631204145507,2031
1631204145511,2033
1631204145515,2033
1631204145519,2032
1631204145523,2031
1631204145527,2030
1631204145531,2030
1631204145535,2031
1631204145539,2033
1631204145543,2036
1631204145547,2036
1631204145551,2034
1631204145555,2028
1631204145559,2023
1631204145563,2019
1631204145567,2020
1631204145571,2025
1631204145575,2032
1631204145579,2037
1631204145583,2039
1631204145587,2038
1631204145591,2035
1631204145595,2033
1631204145599,2032
1631204145603,2032
1631204145607,2031
1631204145611,2031
1631204145615,2031
1631204145619,2032
1631204145623,2033
1631204145627,2035
1631204145631,2036
1631204145635,2035
1631204145639,2032
1631204145643,2029
1631204145647,2026
1631204145651,2026
1631204145655,2028
1631204145659,2032
1631204145663,2036
1631204145667,2038
1631204145671,2038
1631204145675,2038
1631204145679,2037
1631204145683,2036
1631204145687,2034
1631204145691,2032
1631204145695,2032
1631204145699,2033
1631204145703,2035
1631204145707,2037
1631204145711,2038
1631204145715,2038
1631204145719,2037
1631204145723,2035
1631204145727,2034
1631204145731,2033
1631204145735,2032
1631204145739,2031
1631204145743,2032
1631204145747,2035
1631204145751,2039
1631204145755,2043
1631204145759,2045
1631204145763,2045
1631204145767,2043
1631204145771,2041
1631204145775,2040
1631204145779,2041
1631204145783,2044
1631204145787,2046
1631204145791,2047
1631204145795,2047
1631204145799,2047
1631204145803,2046
1631204145807,2045
1631204145811,2045
1631204145815,2044
1631204145819,2043
1631204145823,2042
1631204145827,2040
1631204145831,2037
1631204145835,2034
1631204145839,2032
1631204145843,2033
1631204145847,2034
1631204145851,2035
1631204145855,2036
1631204145859,2036
1631204145863,2036
1631204145867,2035
1631204145871,2036
1631204145875,2037
1631204145879,2039
1631204145883,2040
1631204145887,2041
1631204145891,2042
1631204145895,2043
1631204145899,2043
1631204145903,2044
1631204145907,2043
1631204145911,2041
1631204145915,2037
1631204145919,2035
1631204145923,2037
1631204145927,2048
1631204145931,2074
1631204145935,2115
1631204145939,2166
1631204145943,2214
1631204145947,2239
1631204145951,2227
1631204145955,2178
1631204145959,2107
1631204145963,2040
1631204145967,1996
1631204145971,1984
1631204145975,1997
1631204145979,2019
1631204145983,2037
1631204145987,2046
1631204145991,2048
1631204145995,2048
1631204145999,2047
1631204146003,2046
1631204146007,2046
1631204146011,2046
1631204146015,2047
1631204146019,2048
1631204146023,2050
1631204146027,2051
1631204146031,2052
1631204146035,2053
1631204146039,2055
1631204146043,2056
1631204146047,2058
1631204146051,2059
1631204146055,2059
1631204146059,2059
1631204146063,2059
1631204146067,2060
1631204146071,2063
1631204146075,2067
1631204146079,2070
1631204146083,2071
1631204146087,2070
1631204146091,2067
1631204146095,2064
1631204146099,2063
1631204146103,2066
1631204146107,2071
1631204146111,2078
1631204146115,2082
1631204146119,2084
1631204146123,2085
1631204146127,2086
1631204146131,2088
1631204146135,2091
1631204146139,2094
1631204146143,2099
1631204146147,2103
1631204146151,2106
1631204146155,2111
1631204146159,2114
1631204146163,2117
1631204146167,2120
1631204146171,2122
1631204146175,2124
1631204146179,2127
1631204146183,2131
1631204146187,2134
1631204146191,2138
1631204146195,2140
1631204146199,2141
1631204146203,2141
1631204146207,2138
1631204146211,2133
1631204146215,2128
1631204146219,2123
1631204146223,2118
1631204146227,2114
1631204146231,2109
1631204146235,2103
1631204146239,2094
1631204146243,2084
1631204146247,2073
1631204146251,2064
1631204146255,2056
1631204146259,2050
1631204146263,2047
1631204146267,2043
1631204146271,2038
1631204146275,2033
1631204146279,2029
1631204146283,2027
1631204146287,2026
1631204146291,2026
1631204146295,2025
1631204146299,2023
1631204146303,2019
1631204146307,2017
1631204146311,2017
1631204146315,2018
1631204146319,2020
1631204146323,2020
1631204146327,2019
1631204146331,2019
1631204146335,2020
1631204146339,2022
1631204146343,2025
1631204146347,2028
1631204146351,2029
1631204146355,2029
1631204146359,2028
1631204146363,2027
1631204146367,2025
1631204146371,2025
1631204146375,2026
1631204146379,2027
1631204146383,2027
1631204146387,2028
1631204146391,2027
1631204146395,2026
1631204146399,2025
1631204146403,2024
1631204146407,2024
1631204146411,2023
1631204146415,2022
1631204146419,2021
1631204146423,2022
1631204146427,2023
1631204146431,2026
1631204146435,2029
1631204146439,2030
1631204146443,2030
1631204146447,2029
1631204146451,2027
1631204146455,2026
1631204146459,2026
1631204146463,2027
1631204146467,2027
1631204146471,2027
1631204146475,2027
1631204146479,2028
1631204146483,2029
1631204146487,2031
1631204146491,2031
1631204146495,2031
1631204146499,2030
1631204146503,2028
1631204146507,2025
1631204146511,2024
1631204146515,2024
1631204146519,2025
1631204146523,2028
1631204146527,2032
1631204146531,2034
1631204146535,2035
1631204146539,2035
1631204146543,2035
1631204146547,2034
1631204146551,2034
1631204146555,2034
1631204146559,2034
1631204146563,2033
1631204146567,2033
1631204146571,2033
1631204146575,2034
1631204146579,2034
1631204146583,2034
1631204146587,2033
1631204146591,2034
1631204146595,2035
1631204146599,2036
1631204146603,2038
1631204146607,2038
1631204146611,2039
1631204146615,2039
1631204146619,2040
1631204146623,2041
1631204146627,2043
1631204146631,2045
1631204146635,2045
1631204146639,2045
1631204146643,2045
1631204146647,2044
1631204146651,2043
1631204146655,2041
1631204146659,2040
1631204146663,2039
1631204146667,2039
1631204146671,2040
1631204146675,2042
1631204146679,2042
1631204146683,2042
1631204146687,2042
1631204146691,2041
1631204146695,2041
1631204146699,2040
1631204146703,2039
1631204146707,2036
1631204146711,2035
1631204146715,2034
1631204146719,2034
1631204146723,2034
1631204146727,2033
1631204146731,2033
1631204146735,2034
1631204146739,2037
1631204146743,2041
1631204146747,2045
1631204146751,2047
1631204146755,2046
1631204146759,2042
1631204146763,2036
1631204146767,2033
1631204146771,2036
1631204146775,2049
1631204146779,2077
1631204146783,2119
1631204146787,2169
1631204146791,2215
1631204146795,2238
1631204146799,2225
1631204146803,2177
1631204146807,2108
1631204146811,2045
1631204146815,2004
1631204146819,1993
1631204146823,2005
1631204146827,2024
1631204146831,2038
1631204146835,2043
1631204146839,2043
1631204146843,2042
1631204146847,2042
1631204146851,2044
1631204146855,2046
1631204146859,2048
1631204146863,2049
1631204146867,2050
1631204146871,2051
1631204146875,2052
1631204146879,2053
1631204146883,2054
1631204146887,2054
1631204146891,2054
1631204146895,2055
1631204146899,2056
1631204146903,2058
1631204146907,2059
1631204146911,2059
1631204146915,2059
1631204146919,2058
1631204146923,2059
1631204146927,2061
1631204146931,2063
1631204146935,2066
1631204146939,2067
1631204146943,2068
1631204146947,2070
1631204146951,2073
1631204146955,2076
1631204146959,2079
1631204146963,2080
1631204146967,2080
1631204146971,2078
1631204146975,2079
1631204146979,2082
1631204146983,2088
1631204146987,2093
1631204146991,2097
1631204146995,2100
1631204146999,2101
1631204147003,2103
1631204147007,2106
1631204147011,2110
1631204147015,2115
1631204147019,2119
1631204147023,2123
1631204147027,2128
1631204147031,2132
1631204147035,2134
1631204147039,2135
1631204147043,2134
1631204147047,2133
1631204147051,2132
1631204147055,2132
1631204147059,2132
1631204147063,2132
1631204147067,2129
1631204147071,2124
1631204147075,2116
1631204147079,2107
1631204147083,2098
1631204147087,2089
1631204147091,2081
1631204147095,2075
1631204147099,2069
1631204147103,2062
1631204147107,2053
1631204147111,2045
1631204147115,2036
1631204147119,2029
1631204147123,2025
1631204147127,2024
1631204147131,2024
1631204147135,2024
1631204147139,2023
1631204147143,2023
1631204147147,2023
1631204147151,2023
1631204147155,2025
1631204147159,2025
1631204147163,2025
1631204147167,2025
1631204147171,2024
1631204147175,2024
1631204147179,2024
1631204147183,2026
1631204147187,2027
1631204147191,2027
1631204147195,2027
1631204147199,2027
1631204147203,2027
1631204147207,2027
1631204147211,2026
1631204147215,2025
1631204147219,2024
1631204147223,2025
1631204147227,2026
1631204147231,2028
1631204147235,2029
1631204147239,2028
1631204147243,2027
1631204147247,2025
1631204147251,2025
1631204147255,2027
1631204147259,2029
1631204147263,2032
1631204147267,2032
1631204147271,2031
1631204147275,2030
1631204147279,2030
1631204147283,2031
1631204147287,2032
1631204147291,2033
1631204147295,2033
1631204147299,2032
1631204147303,2031
1631204147307,2029
1631204147311,2028
1631204147315,2027
1631204147319,2027
1631204147323,2028
1631204147327,2029
1631204147331,2031
1631204147335,2032
1631204147339,2032
1631204147343,2032
1631204147347,2032
1631204147351,2032
1631204147355,2031
1631204147359,2029
1631204147363,2026
1631204147367,2025
1631204147371,2026
1631204147375,2029
1631204147379,2033
1631204147383,2037
1631204147387,2039
1631204147391,2039
1631204147395,2038
1631204147399,2036
1631204147403,2035
1631204147407,2034
1631204147411,2033
1631204147415,2033
1631204147419,2034
1631204147423,2036
1631204147427,2037
1631204147431,2037
1631204147435,2036
1631204147439,2035
1631204147443,2033
1631204147447,2032
1631204147451,2031
1631204147455,2030
1631204147459,2030
1631204147463,2031
1631204147467,2034
1631204147471,2037
1631204147475,2041
1631204147479,2044
1631204147483,2046
1631204147487,2046
1631204147491,2044
1631204147495,2042
1631204147499,2041
1631204147503,2041
1631204147507,2043
1631204147511,2047
1631204147515,2049
1631204147519,2050
1631204147523,2050
1631204147527,2048
1631204147531,2046
1631204147535,2044
1631204147539,2043
1631204147543,2042
1631204147547,2041
1631204147551,2039
1631204147555,2038
1631204147559,2037
1631204147563,2037
1631204147567,2038
1631204147571,2039
1631204147575,2040
1631204147579,2040
1631204147583,2039
1631204147587,2038
1631204147591,2038
1631204147595,2038
1631204147599,2038
1631204147603,2038
1631204147607,2038
1631204147611,2037
1631204147615,2038
1631204147619,2039
1631204147623,2042
1631204147627,2044
1631204147631,2043
1631204147635,2040
1631204147639,2038
1631204147643,2040
1631204147647,2049
1631204147651,2072
1631204147655,2109
1631204147659,2155
1631204147663,2202
1631204147667,2233
1631204147671,2233
1631204147675,2197
1631204147679,2136
1631204147683,2069
1631204147687,2019
1631204147691,1997
1631204147695,2001
1631204147699,2018
1631204147703,2034
1631204147707,2044
1631204147711,2047
1631204147715,2047
1631204147719,2046
1631204147723,2046
1631204147727,2046
1631204147731,2045
1631204147735,2045
1631204147739,2046
1631204147743,2048
1631204147747,2051
1631204147751,2055
1631204147755,2058
1631204147759,2059
1631204147763,2060
1631204147767,2059
1631204147771,2058
1631204147775,2057
1631204147779,2057
1631204147783,2058
1631204147787,2061
1631204147791,2064
1631204147795,2067
1631204147799,2067
1631204147803,2065
1631204147807,2063
1631204147811,2061
1631204147815,2062
1631204147819,2064
1631204147823,2068
1631204147827,2071
1631204147831,2074
1631204147835,2077
1631204147839,2080
1631204147843,2083
1631204147847,2084
1631204147851,2086
1631204147855,2089
1631204147859,2092
1631204147863,2095
1631204147867,2098
1631204147871,2100
1631204147875,2101
1631204147879,2103
1631204147883,2106
1631204147887,2111
1631204147891,2114
1631204147895,2117
1631204147899,2120
1631204147903,2123
1631204147907,2128
1631204147911,2133
1631204147915,2137
1631204147919,2139
1631204147923,2138
1631204147927,2136
1631204147931,2133
1631204147935,2130
1631204147939,2126
1631204147943,2122
1631204147947,2117
1631204147951,2110
1631204147955,2102
1631204147959,2093
1631204147963,2082
1631204147967,2072
1631204147971,2063
1631204147975,2057
1631204147979,2050
1631204147983,2046
1631204147987,2040
1631204147991,2034
1631204147995,2028
1631204147999,2025
1631204148003,2025
1631204148007,2025
1631204148011,2027
1631204148015,2027
1631204148019,2027
1631204148023,2025
1631204148027,2024
1631204148031,2024
1631204148035,2024
1631204148039,2023
1631204148043,2023
1631204148047,2021
1631204148051,2020
1631204148055,2019
1631204148059,2020
1631204148063,2022
1631204148067,2024
1631204148071,2025
1631204148075,2026
1631204148079,2024
1631204148083,2022
1631204148087,2021
1631204148091,2021
1631204148095,2023
1631204148099,2027
1631204148103,2030
1631204148107,2032
1631204148111,2032
1631204148115,2031
1631204148119,2029
1631204148123,2027
1631204148127,2025
1631204148131,2025
1631204148135,2025
1631204148139,2025
1631204148143,2026
1631204148147,2026
1631204148151,2026
1631204148155,2025
1631204148159,2024
1631204148163,2024
1631204148167,2026
1631204148171,2027
1631204148175,2028
1631204148179,2029
1631204148183,2029
1631204148187,2030
1631204148191,2031
1631204148195,2032
1631204148199,2031
1631204148203,2029
1631204148207,2028
1631204148211,2027
1631204148215,2029
1631204148219,2031
1631204148223,2034
1631204148227,2034
1631204148231,2032
1631204148235,2031
1631204148239,2029
1631204148243,2030
1631204148247,2030
1631204148251,2031
1631204148255,2032
1631204148259,2032
1631204148263,2032
1631204148267,2032
1631204148271,2032
1631204148275,2031
1631204148279,2031
1631204148283,2031
1631204148287,2031
1631204148291,2032
1631204148295,2034
1631204148299,2035
1631204148303,2037
1631204148307,2037
1631204148311,2036
1631204148315,2035
1631204148319,2034
1631204148323,2035
1631204148327,2036
1631204148331,2037
1631204148335,2037
1631204148339,2037
1631204148343,2036
1631204148347,2036
1631204148351,2036
1631204148355,2037
1631204148359,2038
1631204148363,2039
1631204148367,2041
1631204148371,2042
1631204148375,2042
1631204148379,2042
1631204148383,2042
1631204148387,2043
1631204148391,2045
1631204148395,2048
1631204148399,2049
1631204148403,2049
1631204148407,2048
1631204148411,2046
1631204148415,2044
1631204148419,2042
1631204148423,2041
1631204148427,2040
1631204148431,2039
1631204148435,2037
1631204148439,2037
1631204148443,2038
1631204148447,2041
1631204148451,2043
1631204148455,2043
1631204148459,2041
1631204148463,2038
1631204148467,2036
1631204148471,2035
1631204148475,2035
1631204148479,2037
1631204148483,2039
1631204148487,2040
1631204148491,2042
1631204148495,2042
1631204148499,2042
1631204148503,2043
1631204148507,2044
1631204148511,2046
1631204148515,2046
1631204148519,2044
1631204148523,2039
1631204148527,2033
1631204148531,2031
1631204148535,2038
1631204148539,2055
1631204148543,2089
1631204148547,2137
1631204148551,2189
1631204148555,2231
1631204148559,2244
1631204148563,2220
1631204148567,2162
1631204148571,2092
1631204148575,2033
1631204148579,2000
1631204148583,1997
1631204148587,2014
1631204148591,2034
1631204148595,2047
1631204148599,2050
1631204148603,2050
1631204148607,2048
1631204148611,2047
1631204148615,2045
1631204148619,2045
1631204148623,2047
1631204148627,2050
1631204148631,2054
1631204148635,2056
1631204148639,2055
1631204148643,2054
1631204148647,2052
1631204148651,2053
1631204148655,2055
1631204148659,2057
1631204148663,2060
1631204148667,2061
1631204148671,2060
1631204148675,2060
1631204148679,2061
1631204148683,2062
1631204148687,2064
1631204148691,2066
1631204148695,2068
1631204148699,2069
1631204148703,2071
1631204148707,2072
1631204148711,2073
1631204148715,2074
1631204148719,2075
1631204148723,2077
1631204148727,2080
1631204148731,2084
1631204148735,2089
1631204148739,2092
1631204148743,2094
1631204148747,2095
1631204148751,2096
1631204148755,2098
1631204148759,2102
1631204148763,2106
1631204148767,2111
1631204148771,2115
1631204148775,2117
1631204148779,2118
1631204148783,2120
1631204148787,2122
1631204148791,2125
1631204148795,2130
1631204148799,2135
1631204148803,2139
1631204148807,2141
1631204148811,2141
1631204148815,2140
1631204148819,2138
1631204148823,2137
1631204148827,2135
1631204148831,2131
1631204148835,2126
1631204148839,2119
1631204148843,2110
1631204148847,2100
1631204148851,2090
1631204148855,2080
1631204148859,2071
1631204148863,2064
1631204148867,2057
1631204148871,2052
1631204148875,2048
1631204148879,2045
1631204148883,2040
1631204148887,2035
1631204148891,2030
1631204148895,2026
1631204148899,2023
1631204148903,2021
1631204148907,2020
1631204148911,2021
1631204148915,2022
1631204148919,2023
1631204148923,2024
1631204148927,2022
1631204148931,2021
1631204148935,2021
1631204148939,2022
1631204148943,2025
1631204148947,2027
1631204148951,2028
1631204148955,2026
1631204148959,2024
1631204148963,2021
1631204148967,2021
1631204148971,2021
1631204148975,2022
1631204148979,2023
1631204148983,2023
1631204148987,2023
1631204148991,2024
1631204148995,2026
1631204148999,2028
1631204149003,2029
1631204149007,2029
1631204149011,2027
1631204149015,2024
1631204149019,2021
1631204149023,2022
1631204149027,2024
1631204149031,2028
1631204149035,2030
1631204149039,2030
1631204149043,2029
1631204149047,2027
1631204149051,2025
1631204149055,2025
1631204149059,2025
1631204149063,2024
1631204149067,2022
1631204149071,2022
1631204149075,2023
1631204149079,2026
1631204149083,2030
1631204149087,2032
1631204149091,2031
1631204149095,2029
1631204149099,2028
1631204149103,2028
1631204149107,2029
1631204149111,2031
1631204149115,2031
1631204149119,2030
1631204149123,2029
1631204149127,2028
1631204149131,2029
1631204149135,2030
1631204149139,2031
1631204149143,2032
1631204149147,2032
1631204149151,2031
1631204149155,2030
1631204149159,2030
1631204149163,2031
1631204149167,2031
1631204149171,2031
1631204149175,2031
1631204149179,2031
1631204149183,2032
1631204149187,2032
1631204149191,2032
1631204149195,2032
1631204149199,2031
1631204149203,2030
1631204149207,2029
1631204149211,2029
1631204149215,2030
1631204149219,2032
1631204149223,2035
1631204149227,2037
1631204149231,2040
1631204149235,2043
1631204149239,2044
1631204149243,2044
1631204149247,2043
1631204149251,2041
1631204149255,2040
1631204149259,2040
1631204149263,2041
1631204149267,2043
1631204149271,2045
1631204149275,2046
1631204149279,2046
1631204149283,2043
1631204149287,2040
1631204149291,2037
1631204149295,2035
1631204149299,2033
1631204149303,2034
1631204149307,2034
1631204149311,2035
1631204149315,2035
1631204149319,2035
1631204149323,2035
1631204149327,2036
1631204149331,2037
1631204149335,2038
1631204149339,2037
1631204149343,2035
1631204149347,2033
1631204149351,2032
1631204149355,2034
1631204149359,2038
1631204149363,2041
1631204149367,2043
1631204149371,2043
1631204149375,2041
1631204149379,2038
1631204149383,2036
1631204149387,2032
1631204149391,2029
1631204149395,2029
1631204149399,2035
1631204149403,2048
1631204149407,2074
1631204149411,2114
1631204149415,2162
1631204149419,2207
1631204149423,2232
1631204149427,2221
1631204149431,2175
1631204149435,2106
1631204149439,2040
1631204149443,1996
1631204149447,1983
1631204149451,1995
1631204149455,2016
1631204149459,2032
1631204149463,2040
1631204149467,2043
1631204149471,2045
1631204149475,2046
1631204149479,2047
1631204149483,2046
1631204149487,2044
1631204149491,2044
1631204149495,2045
1631204149499,2047
1631204149503,2048
1631204149507,2050
1631204149511,2052
1631204149515,2053
1631204149519,2053
1631204149523,2053
1631204149527,2052
1631204149531,2052
1631204149535,2053
1631204149539,2054
1631204149543,2056
1631204149547,2056
1631204149551,2057
1631204149555,2059
1631204149559,2062
1631204149563,2066
1631204149567,2070
1631204149571,2073
1631204149575,2073
1631204149579,2073
1631204149583,2074
1631204149587,2077
1631204149591,2079
1631204149595,2082
1631204149599,2082
1631204149603,2081
1631204149607,2081
1631204149611,2082
1631204149615,2085
1631204149619,2089
1631204149623,2094
1631204149627,2099
1631204149631,2102
1631204149635,2105
1631204149639,2107
1631204149643,2109
1631204149647,2112
1631204149651,2116
1631204149655,2121
1631204149659,2125
1631204149663,2129
1631204149667,2131
1631204149671,2133
1631204149675,2135
1631204149679,2136
1631204149683,2136
1631204149687,2133
1631204149691,2127
1631204149695,2120
1631204149699,2113
1631204149703,2108
1631204149707,2103
1631204149711,2097
1631204149715,2090
1631204149719,2080
1631204149723,2070
1631204149727,2059
1631204149731,2049
1631204149735,2042
1631204149739,2036
1631204149743,2033
1631204149747,2031
1631204149751,2029
1631204149755,2027
1631204149759,2024
1631204149763,2022
1631204149767,2021
1631204149771,2021
1631204149775,2021
1631204149779,2021
1631204149783,2021
1631204149787,2019
1631204149791,2017
1631204149795,2016
1631204149799,2016
1631204149803,2017
1631204149807,2018
1631204149811,2020
1631204149815,2022
1631204149819,2023
1631204149823,2024
1631204149827,2024
1631204149831,2025
1631204149835,2024
1631204149839,2022
1631204149843,2022
1631204149847,2022
1631204149851,2024
1631204149855,2028
1631204149859,2030
1631204149863,2031
1631204149867,2029
1631204149871,2027
1631204149875,2026
1631204149879,2026
1631204149883,2026
1631204149887,2026
1631204149891,2025
1631204149895,2024
1631204149899,2024
1631204149903,2025
1631204149907,2027
1631204149911,2029
1631204149915,2030
1631204149919,2028
1631204149923,2027
1631204149927,2026
1631204149931,2026
1631204149935,2025
1631204149939,2025
1631204149943,2025
1631204149947,2027
1631204149951,2030
1631204149955,2033
1631204149959,2034
1631204149963,2033
1631204149967,2030
1631204149971,2028
1631204149975,2027
1631204149979,2029
1631204149983,2031
1631204149987,2032
1631204149991,2032
1631204149995,2031
1631204149999,2030
1631204150003,2030
1631204150007,2030
1631204150011,2029
1631204150015,2029
1631204150019,2028
1631204150023,2028
1631204150027,2029
1631204150031,2031
1631204150035,2033
1631204150039,2033
1631204150043,2033
1631204150047,2033
1631204150051,2033
1631204150055,2034
1631204150059,2034
1631204150063,2034
1631204150067,2033
1631204150071,2033
1631204150075,2033
1631204150079,2034
1631204150083,2035
1631204150087,2035
1631204150091,2035
1631204150095,2035
1631204150099,2034
1631204150103,2034
1631204150107,2035
1631204150111,2037
1631204150115,2039
1631204150119,2040
1631204150123,2040
1631204150127,2040
1631204150131,2040
1631204150135,2041
1631204150139,2043
1631204150143,2046
1631204150147,2048
1631204150151,2048
1631204150155,2048
1631204150159,2045
1631204150163,2041
1631204150167,2037
1631204150171,2035
1631204150175,2035
1631204150179,2036
1631204150183,2039
1631204150187,2041
1631204150191,2042
1631204150195,2042
1631204150199,2040
1631204150203,2038
1631204150207,2037
1631204150211,2037
1631204150215,2037
1631204150219,2037
1631204150223,2038
1631204150227,2038
1631204150231,2036
1631204150235,2035
1631204150239,2034
1631204150243,2035
1631204150247,2036
1631204150251,2037
1631204150255,2039
1631204150259,2041
1631204150263,2042
1631204150267,2041
1631204150271,2038
1631204150275,2032
1631204150279,2028
1631204150283,2030
1631204150287,2041
1631204150291,2064
1631204150295,2103
1631204150299,2152
1631204150303,2199
1631204150307,2230
1631204150311,2228
1631204150315,2190
1631204150319,2127
1631204150323,2060
1631204150327,2012
1631204150331,1992
1631204150335,1997
1631204150339,2015
1631204150343,2032
1631204150347,2041
1631204150351,2045
1631204150355,2045
1631204150359,2045
1631204150363,2045
1631204150367,2046
1631204150371,2047
1631204150375,2047
1631204150379,2048
1631204150383,2048
1631204150387,2047
1631204150391,2046
1631204150395,2047
1631204150399,2048
1631204150403,2050
1631204150407,2052
1631204150411,2053
1631204150415,2053
1631204150419,2053
1631204150423,2054
1631204150427,2056
1631204150431,2058
1631204150435,2061
1631204150439,2064
1631204150443,2066
1631204150447,2068
1631204150451,2068
1631204150455,2068
1631204150459,2068
1631204150463,2068
1631204150467,2067
1631204150471,2068
1631204150475,2070
1631204150479,2074
1631204150483,2080
1631204150487,2085
1631204150491,2088
1631204150495,2089
1631204150499,2089
1631204150503,2091
1631204150507,2094
1631204150511,2097
1631204150515,2101
1631204150519,2104
1631204150523,2106
1631204150527,2109
1631204150531,2113
1631204150535,2118
1631204150539,2122
1631204150543,2125
1631204150547,2127
1631204150551,2127
1631204150555,2128
1631204150559,2128
1631204150563,2129
1631204150567,2130
1631204150571,2130
1631204150575,2129
1631204150579,2127
1631204150583,2124
1631204150587,2118
1631204150591,2112
1631204150595,2103
1631204150599,2093
1631204150603,2084
1631204150607,2074
1631204150611,2065
1631204150615,2058
1631204150619,2051
1631204150623,2046
1631204150627,2041
1631204150631,2036
1631204150635,2032
1631204150639,2028
1631204150643,2024
1631204150647,2020
1631204150651,2019
1631204150655,2018
1631204150659,2020
1631204150663,2022
1631204150667,2025
1631204150671,2026
1631204150675,2025
1631204150679,2022
1631204150683,2020
1631204150687,2019
1631204150691,2018
1631204150695,2019
1631204150699,2020
1631204150703,2022
1631204150707,2025
1631204150711,2027
1631204150715,2027
1631204150719,2026
1631204150723,2023
1631204150727,2019
1631204150731,2018
1631204150735,2019
1631204150739,2021
1631204150743,2025
1631204150747,2027
1631204150751,2028
1631204150755,2028
1631204150759,2026
1631204150763,2025
1631204150767,2024
1631204150771,2024
1631204150775,2025
1631204150779,2027
1631204150783,2029
1631204150787,2028
1631204150791,2027
1631204150795,2026
1631204150799,2026
1631204150803,2027
1631204150807,2030
1631204150811,2032
1631204150815,2034
1631204150819,2033
1631204150823,2031
1631204150827,2029
1631204150831,2027
1631204150835,2026
1631204150839,2027
1631204150843,2026
1631204150847,2026
1631204150851,2025
1631204150855,2025
1631204150859,2025
1631204150863,2026
1631204150867,2027
1631204150871,2027
1631204150875,2027
1631204150879,2026
1631204150883,2026
1631204150887,2027
1631204150891,2029
1631204150895,2032
1631204150899,2034
1631204150903,2034
1631204150907,2033
1631204150911,2031
1631204150915,2031
1631204150919,2031
1631204150923,2033
1631204150927,2033
1631204150931,2033
1631204150935,2031
1631204150939,2030
1631204150943,2031
1631204150947,2032
1631204150951,2032
1631204150955,2032
1631204150959,2031
1631204150963,2030
1631204150967,2030
1631204150971,2031
1631204150975,2033
1631204150979,2034
1631204150983,2033
1631204150987,2032
1631204150991,2031
1631204150995,2032
1631204150999,2034
1631204151003,2038
1631204151007,2040
1631204151011,2042
1631204151015,2043
1631204151019,2043
1631204151023,2043
1631204151027,2043
1631204151031,2042
1631204151035,2042
1631204151039,2042
1631204151043,2042
1631204151047,2044
1631204151051,2045
1631204151055,2045
1631204151059,2043
1631204151063,2041
1631204151067,2039
1631204151071,2038
1631204151075,2038
1631204151079,2037
1631204151083,2036
1631204151087,2034
1631204151091,2031
1631204151095,2031
1631204151099,2032
1631204151103,2034
1631204151107,2037
1631204151111,2040
1631204151115,2041
1631204151119,2041
1631204151123,2040
1631204151127,2038
1631204151131,2037
1631204151135,2036
1631204151139,2036
1631204151143,2038
1631204151147,2040
1631204151151,2042
1631204151155,2042
1631204151159,2041
1631204151163,2037
1631204151167,2033
1631204151171,2032
1631204151175,2038
1631204151179,2055
1631204151183,2088
1631204151187,2134
1631204151191,2184
1631204151195,2224
1631204151199,2234
1631204151203,2208
1631204151207,2150
1631204151211,2080
1631204151215,2023
1631204151219,1993
1631204151223,1993
1631204151227,2011
1631204151231,2033
1631204151235,2047
1631204151239,2051
1631204151243,2049
1631204151247,2047
1631204151251,2045
1631204151255,2045
1631204151259,2045
1631204151263,2046
1631204151267,2048
1631204151271,2048
1631204151275,2048
1631204151279,2049
1631204151283,2048
1631204151287,2048
1631204151291,2048
1631204151295,2048
1631204151299,2048
1631204151303,2050
1631204151307,2052
1631204151311,2056
1631204151315,2058
1631204151319,2060
1631204151323,2061
1631204151327,2060
1631204151331,2060
1631204151335,2060
1631204151339,2060
1631204151343,2062
1631204151347,2065
1631204151351,2068
1631204151355,2070
1631204151359,2072
1631204151363,2074
1631204151367,2075
1631204151371,2077
1631204151375,2079
1631204151379,2082
1631204151383,2084
1631204151387,2087
1631204151391,2090
1631204151395,2094
1631204151399,2098
1631204151403,2102
1631204151407,2104
1631204151411,2107
1631204151415,2109
1631204151419,2113
1631204151423,2117
1631204151427,2121
1631204151431,2124
1631204151435,2125
1631204151439,2126
1631204151443,2126
1631204151447,2127
1631204151451,2129
1631204151455,2130
1631204151459,2130
1631204151463,2128
1631204151467,2126
1631204151471,2123
1631204151475,2119
1631204151479,2115
1631204151483,2109
1631204151487,2101
1631204151491,2092
1631204151495,2082
1631204151499,2072
1631204151503,2063
1631204151507,2055
1631204151511,2048
1631204151515,2043
1631204151519,2039
1631204151523,2035
1631204151527,2031
1631204151531,2027
1631204151535,2024
1631204151539,2022
1631204151543,2023
1631204151547,2024
1631204151551,2027
1631204151555,2029
1631204151559,2029
1631204151563,2029
1631204151567,2027
1631204151571,2024
1631204151575,2022
1631204151579,2022
1631204151583,2024
1631204151587,2027
1631204151591,2028
1631204151595,2028
1631204151599,2026
1631204151603,2024
1631204151607,2023
1631204151611,2025
1631204151615,2027
1631204151619,2029
1631204151623,2030
1631204151627,2029
1631204151631,2028
1631204151635,2027
1631204151639,2027
1631204151643,2028
1631204151647,2029
1631204151651,2029
1631204151655,2028
1631204151659,2027
1631204151663,2026
1631204151667,2027
1631204151671,2029
1631204151675,2030
1631204151679,2030
1631204151683,2029
1631204151687,2027
1631204151691,2025
1631204151695,2025
1631204151699,2027
1631204151703,2030
1631204151707,2031
1631204151711,2031
1631204151715,2030
1631204151719,2029
1631204151723,2029
1631204151727,2029
1631204151731,2029
1631204151735,2029
1631204151739,2028
1631204151743,2028
1631204151747,2028
1631204151751,2030
1631204151755,2031
1631204151759,2031
1631204151763,2029
1631204151767,2028
1631204151771,2027
1631204151775,2027
1631204151779,2029
1631204151783,2032
1631204151787,2034
1631204151791,2035
1631204151795,2034
1631204151799,2033
1631204151803,2032
1631204151807,2031
1631204151811,2031
1631204151815,2031
1631204151819,2031
1631204151823,2031
1631204151827,2032
1631204151831,2033
1631204151835,2034
1631204151839,2034
1631204151843,2034
1631204151847,2033
1631204151851,2034
1631204151855,2034
1631204151859,2035
1631204151863,2035
1631204151867,2035
1631204151871,2035
1631204151875,2034
1631204151879,2032
1631204151883,2030
1631204151887,2029
1631204151891,2029
1631204151895,2030
1631204151899,2033
1631204151903,2035
1631204151907,2038
1631204151911,2039
1631204151915,2041
1631204151919,2042
1631204151923,2044
1631204151927,2045
1631204151931,2044
1631204151935,2043
1631204151939,2042
1631204151943,2042
1631204151947,2043
1631204151951,2044
1631204151955,2045
1631204151959,2044
1631204151963,2042
1631204151967,2039
1631204151971,2038
1631204151975,2039
1631204151979,2040
1631204151983,2043
1631204151987,2043
1631204151991,2042
1631204151995,2040
1631204151999,2037
1631204152003,2036
1631204152007,2036
1631204152011,2037
1631204152015,2038
1631204152019,2038
1631204152023,2039
1631204152027,2039
1631204152031,2040
1631204152035,2041
1631204152039,2042
1631204152043,2042
1631204152047,2041
1631204152051,2041
1631204152055,2041
1631204152059,2040
1631204152063,2040
1631204152067,2037
1631204152071,2033
1631204152075,2032
1631204152079,2037
1631204152083,2053
1631204152087,2085
1631204152091,2132
1631204152095,2185
1631204152099,2228
1631204152103,2243
1631204152107,2219
1631204152111,2161
1631204152115,2087
1631204152119,2025
1631204152123,1991
1631204152127,1988
1631204152131,2006
1631204152135,2028
1631204152139,2041
1631204152143,2045
1631204152147,2044
1631204152151,2043
1631204152155,2044
1631204152159,2045
1631204152163,2047
1631204152167,2047
1631204152171,2048
1631204152175,2048
1631204152179,2048
1631204152183,2048
1631204152187,2048
1631204152191,2049
1631204152195,2051
1631204152199,2053
1631204152203,2054
1631204152207,2055
1631204152211,2055
1631204152215,2055
1631204152219,2055
1631204152223,2057
1631204152227,2060
1631204152231,2064
1631204152235,2068
1631204152239,2070
1631204152243,2070
1631204152247,2068
1631204152251,2066
1631204152255,2065
1631204152259,2066
1631204152263,2070
1631204152267,2074
1631204152271,2078
1631204152275,2081
1631204152279,2084
1631204152283,2086
1631204152287,2088
1631204152291,2089
1631204152295,2091
1631204152299,2093
1631204152303,2097
1631204152307,2101
1631204152311,2106
1631204152315,2110
1631204152319,2112
1631204152323,2114
1631204152327,2116
1631204152331,2120
1631204152335,2124
1631204152339,2127
1631204152343,2128
1631204152347,2129
1631204152351,2131
1631204152355,2133
1631204152359,2138
1631204152363,2140
1631204152367,2140
1631204152371,2137
1631204152375,2130
1631204152379,2122
1631204152383,2115
1631204152387,2108
1631204152391,2100
1631204152395,2091
1631204152399,2081
1631204152403,2071
1631204152407,2063
1631204152411,2057
1631204152415,2051
1631204152419,2047
1631204152423,2041
1631204152427,2035
1631204152431,2031
1631204152435,2027
1631204152439,2024
1631204152443,2022
1631204152447,2020
1631204152451,2018
1631204152455,2018
1631204152459,2020
1631204152463,2024
1631204152467,2026
1631204152471,2027
1631204152475,2027
1631204152479,2025
1631204152483,2023
1631204152487,2021
1631204152491,2021
1631204152495,2022
1631204152499,2024
1631204152503,2025
1631204152507,2026
1631204152511,2025
1631204152515,2023
1631204152519,2022
1631204152523,2021
1631204152527,2022
1631204152531,2023
1631204152535,2025
1631204152539,2025
1631204152543,2025
1631204152547,2026
1631204152551,2026
1631204152555,2028
1631204152559,2028
1631204152563,2028
1631204152567,2026
1631204152571,2024
1631204152575,2023
1631204152579,2024
1631204152583,2025
1631204152587,2027
1631204152591,2026
1631204152595,2026
1631204152599,2024
1631204152603,2024
1631204152607,2024
1631204152611,2024
1631204152615,2025
1631204152619,2025
1631204152623,2024
1631204152627,2024
1631204152631,2024
1631204152635,2026
1631204152639,2027
1631204152643,2028
1631204152647,2027
1631204152651,2026
1631204152655,2026
1631204152659,2024
1631204152663,2024
1631204152667,2024
1631204152671,2025
1631204152675,2025
1631204152679,2026
1631204152683,2026
1631204152687,2026
1631204152691,2027
1631204152695,2027
1631204152699,2028
1631204152703,2030
1631204152707,2031
1631204152711,2032
1631204152715,2031
1631204152719,2030
1631204152723,2029
1631204152727,2029
1631204152731,2030
1631204152735,2030
1631204152739,2031
1631204152743,2031
1631204152747,2031
1631204152751,2029
1631204152755,2027
1631204152759,2024
1631204152763,2023
1631204152767,2024
1631204152771,2026
1631204152775,2030
1631204152779,2032
1631204152783,2035
1631204152787,2034
1631204152791,2035
1631204152795,2036
1631204152799,2038
1631204152803,2040
1631204152807,2042
1631204152811,2042
1631204152815,2041
1631204152819,2040
1631204152823,2041
1631204152827,2041
1631204152831,2042
1631204152835,2042
1631204152839,2041
1631204152843,2038
1631204152847,2035
1631204152851,2032
1631204152855,2032
1631204152859,2033
1631204152863,2036
1631204152867,2039
1631204152871,2040
1631204152875,2038
1631204152879,2035
1631204152883,2032
1631204152887,2030
1631204152891,2031
1631204152895,2034
1631204152899,2035
1631204152903,2036
1631204152907,2037
1631204152911,2038
1631204152915,2039
1631204152919,2040
1631204152923,2041
1631204152927,2041
1631204152931,2040
1631204152935,2039
1631204152939,2038
1631204152943,2037
1631204152947,2035
1631204152951,2036
1631204152955,2043
1631204152959,2060
1631204152963,2092
1631204152967,2137
1631204152971,2188
1631204152975,2227
1631204152979,2237
1631204152983,2209
1631204152987,2150
1631204152991,2079
1631204152995,2023
1631204152999,1994
1631204153003,1993
1631204153007,2009
1631204153011,2027
1631204153015,2038
1631204153019,2041
1631204153023,2040
1631204153027,2040
1631204153031,2043
1631204153035,2048
1631204153039,2051
1631204153043,2055
1631204153047,2057
1631204153051,2057
1631204153055,2056
1631204153059,2054
1631204153063,2054
1631204153067,2054
1631204153071,2056
1631204153075,2057
1631204153079,2058
1631204153083,2059
1631204153087,2059
1631204153091,2059
1631204153095,2058
1631204153099,2058
1631204153103,2060
1631204153107,2063
1631204153111,2067
1631204153115,2070
1631204153119,2073
1631204153123,2075
1631204153127,2075
1631204153131,2074
1631204153135,2072
1631204153139,2070
1631204153143,2071
1631204153147,2074
1631204153151,2079
1631204153155,2084
1631204153159,2088
1631204153163,2090
1631204153167,2092
1631204153171,2093
1631204153175,2095
1631204153179,2098
1631204153183,2103
1631204153187,2109
1631204153191,2114
1631204153195,2119
1631204153199,2122
1631204153203,2124
1631204153207,2125
1631204153211,2128
1631204153215,2131
1631204153219,2134
1631204153223,2138
1631204153227,2140
1631204153231,2140
1631204153235,2138
1631204153239,2134
1631204153243,2131
1631204153247,2127
1631204153251,2122
1631204153255,2116
1631204153259,2110
1631204153263,2103
1631204153267,2096
1631204153271,2089
1631204153275,2081
1631204153279,2073
1631204153283,2065
1631204153287,2057
1631204153291,2050
1631204153295,2045
1631204153299,2040
1631204153303,2036
1631204153307,2033
1631204153311,2030
1631204153315,2026
1631204153319,2024
1631204153323,2022
1631204153327,2022
1631204153331,2023
1631204153335,2024
1631204153339,2024
1631204153343,2024
1631204153347,2023
1631204153351,2022
1631204153355,2022
1631204153359,2023
1631204153363,2024
1631204153367,2025
1631204153371,2027
1631204153375,2028
1631204153379,2029
1631204153383,2030
1631204153387,2031
1631204153391,2032
1631204153395,2033
1631204153399,2033
1631204153403,2033
1631204153407,2032
1631204153411,2031
1631204153415,2030
1631204153419,2029
1631204153423,2030
1631204153427,2033
1631204153431,2034
1631204153435,2035
1631204153439,2034
1631204153443,2032
1631204153447,2030
1631204153451,2030
1631204153455,2031
1631204153459,2033
1631204153463,2033
1631204153467,2033
1631204153471,2033
1631204153475,2034
1631204153479,2035
1631204153483,2037
1631204153487,2037
1631204153491,2035
1631204153495,2033
1631204153499,2032
1631204153503,2032
1631204153507,2034
1631204153511,2038
1631204153515,2040
1631204153519,2039
1631204153523,2037
1631204153527,2035
1631204153531,2032
1631204153535,2031
1631204153539,2031
1631204153543,2034
1631204153547,2037
1631204153551,2039
1631204153555,2040
1631204153559,2040
1631204153563,2038
1631204153567,2036
1631204153571,2036
1631204153575,2037
1631204153579,2038
1631204153583,2040
1631204153587,2041
1631204153591,2042
1631204153595,2042
1631204153599,2042
1631204153603,2042
1631204153607,2042
1631204153611,2042
1631204153615,2042
1631204153619,2042
1631204153623,2040
1631204153627,2037
1631204153631,2036
1631204153635,2036
1631204153639,2037
1631204153643,2040
1631204153647,2041
1631204153651,2041
1631204153655,2041
1631204153659,2040
1631204153663,2040
1631204153667,2041
1631204153671,2042
1631204153675,2045
1631204153679,2046
1631204153683,2048
1631204153687,2048
1631204153691,2048
1631204153695,2050
1631204153699,2051
1631204153703,2052
1631204153707,2054
1631204153711,2055
1631204153715,2056
1631204153719,2055
1631204153723,2053
1631204153727,2050
1631204153731,2047
1631204153735,2044
1631204153739,2042
1631204153743,2042
1631204153747,2043
1631204153751,2044
1631204153755,2046
1631204153759,2046
1631204153763,2046
1631204153767,2045
1631204153771,2045
1631204153775,2047
1631204153779,2048
1631204153783,2050
1631204153787,2049
1631204153791,2048
1631204153795,2046
1631204153799,2044
1631204153803,2044
1631204153807,2045
1631204153811,2046
1631204153815,2046
1631204153819,2046
1631204153823,2046
1631204153827,2046
1631204153831,2046
1631204153835,2045
1631204153839,2043
1631204153843,2040
1631204153847,2041
1631204153851,2048
1631204153855,2068
1631204153859,2103
1631204153863,2149
1631204153867,2198
1631204153871,2235
1631204153875,2243
1631204153879,2215
1631204153883,2157
1631204153887,2089
1631204153891,2034
1631204153895,2006
1631204153899,2006
1631204153903,2022
1631204153907,2040
1631204153911,2049
1631204153915,2052
1631204153919,2050
1631204153923,2049
1631204153927,2050
1631204153931,2051
1631204153935,2053
1631204153939,2054
1631204153943,2055
1631204153947,2056
1631204153951,2057
1631204153955,2058
1631204153959,2059
1631204153963,2059
1631204153967,2059
1631204153971,2059
1631204153975,2060
1631204153979,2060
1631204153983,2062
1631204153987,2063
1631204153991,2065
1631204153995,2066
1631204153999,2067
1631204154003,2068
1631204154007,2069
1631204154011,2070
1631204154015,2071
1631204154019,2072
1631204154023,2074
1631204154027,2075
1631204154031,2076
1631204154035,2078
1631204154039,2080
1631204154043,2082
1631204154047,2084
1631204154051,2085
1631204154055,2087
1631204154059,2089
1631204154063,2093
1631204154067,2098
1631204154071,2103
1631204154075,2108
1631204154079,2111
1631204154083,2114
1631204154087,2116
1631204154091,2118
1631204154095,2121
1631204154099,2124
1631204154103,2128
1631204154107,2130
1631204154111,2132
1631204154115,2135
1631204154119,2137
1631204154123,2138
1631204154127,2139
1631204154131,2138
1631204154135,2137
1631204154139,2135
1631204154143,2133
1631204154147,2131
1631204154151,2127
1631204154155,2121
1631204154159,2113
1631204154163,2103
1631204154167,2094
1631204154171,2084
1631204154175,2075
1631204154179,2066
1631204154183,2059
1631204154187,2053
1631204154191,2048
1631204154195,2044
1631204154199,2040
1631204154203,2036
1631204154207,2033
1631204154211,2030
1631204154215,2028
1631204154219,2026
1631204154223,2026
1631204154227,2026
1631204154231,2027
1631204154235,2029
1631204154239,2030
1631204154243,2031
1631204154247,2031
1631204154251,2029
1631204154255,2027
1631204154259,2026
1631204154263,2027
1631204154267,2028
1631204154271,2029
1631204154275,2029
1631204154279,2027
1631204154283,2026
1631204154287,2025
1631204154291,2026
1631204154295,2028
1631204154299,2029
1631204154303,2029
1631204154307,2029
1631204154311,2029
1631204154315,2031
1631204154319,2033
1631204154323,2035
1631204154327,2036
1631204154331,2035
1631204154335,2034
1631204154339,2033
1631204154343,2034
1631204154347,2034
1631204154351,2034
1631204154355,2033
1631204154359,2032
1631204154363,2030
1631204154367,2030
1631204154371,2031
1631204154375,2033
1631204154379,2033
1631204154383,2033
1631204154387,2032
1631204154391,2032
1631204154395,2033
1631204154399,2035
1631204154403,2037
1631204154407,2037
1631204154411,2037
1631204154415,2036
1631204154419,2035
1631204154423,2036
1631204154427,2036
1631204154431,2036
1631204154435,2035
1631204154439,2034
1631204154443,2034
1631204154447,2034
1631204154451,2035
1631204154455,2037
1631204154459,2038
1631204154463,2039
1631204154467,2039
1631204154471,2037
1631204154475,2034
1631204154479,2031
1631204154483,2029
1631204154487,2030
1631204154491,2033
1631204154495,2038
1631204154499,2042
1631204154503,2044
1631204154507,2042
1631204154511,2039
1631204154515,2038
1631204154519,2037
1631204154523,2037
1631204154527,2036
1631204154531,2035
1631204154535,2034
1631204154539,2034
1631204154543,2035
1631204154547,2037
1631204154551,2039
1631204154555,2039
1631204154559,2039
1631204154563,2038
1631204154567,2038
1631204154571,2038
1631204154575,2037
1631204154579,2038
1631204154583,2039
1631204154587,2042
1631204154591,2045
1631204154595,2048
1631204154599,2048
1631204154603,2049
1631204154607,2049
1631204154611,2048
1631204154615,2048
1631204154619,2047
1631204154623,2046
1631204154627,2045
1631204154631,2043
1631204154635,2042
1631204154639,2041
1631204154643,2040
1631204154647,2040
1631204154651,2040
1631204154655,2041
1631204154659,2042
1631204154663,2044
1631204154667,2045
1631204154671,2046
1631204154675,2044
1631204154679,2042
1631204154683,2039
1631204154687,2037
1631204154691,2036
1631204154695,2036
1631204154699,2036
1631204154703,2036
1631204154707,2036
1631204154711,2036
1631204154715,2036
1631204154719,2037
1631204154723,2038
1631204154727,2038
1631204154731,2038
1631204154735,2035
1631204154739,2032
1631204154743,2032
1631204154747,2040
1631204154751,2058
1631204154755,2091
1631204154759,2137
1631204154763,2187
1631204154767,2226
1631204154771,2236
1631204154775,2209
1631204154779,2150
1631204154783,2080
1631204154787,2023
1631204154791,1993
1631204154795,1993
1631204154799,2010
1631204154803,2030
1631204154807,2041
1631204154811,2045
1631204154815,2043
1631204154819,2042
1631204154823,2043
1631204154827,2045
1631204154831,2047
1631204154835,2049
1631204154839,2052
1631204154843,2054
1631204154847,2053
1631204154851,2051
1631204154855,2048
1631204154859,2048
1631204154863,2049
1631204154867,2052
1631204154871,2055
1631204154875,2058
1631204154879,2060
1631204154883,2060
1631204154887,2060
1631204154891,2061
1631204154895,2061
1631204154899,2062
1631204154903,2064
1631204154907,2065
1631204154911,2067
1631204154915,2069
1631204154919,2070
1631204154923,2070
1631204154927,2071
1631204154931,2072
1631204154935,2075
1631204154939,2080
1631204154943,2085
1631204154947,2090
1631204154951,2093
1631204154955,2094
1631204154959,2094
1631204154963,2093
1631204154967,2093
1631204154971,2094
1631204154975,2098
1631204154979,2102
1631204154983,2106
1631204154987,2110
1631204154991,2114
1631204154995,2118
1631204154999,2122
1631204155003,2126
1631204155007,2130
1631204155011,2133
1631204155015,2135
1631204155019,2136
1631204155023,2134
1631204155027,2133
1631204155031,2131
1631204155035,2129
1631204155039,2126
1631204155043,2122
1631204155047,2116
1631204155051,2110
1631204155055,2103
1631204155059,2095
1631204155063,2086
1631204155067,2077
1631204155071,2067
1631204155075,2057
1631204155079,2048
1631204155083,2041
1631204155087,2033
1631204155091,2025
1631204155095,2019
1631204155099,2015
1631204155103,2014
1631204155107,2014
1631204155111,2015
1631204155115,2014
1631204155119,2013
1631204155123,2012
1631204155127,2010
1631204155131,2009
1631204155135,2008
1631204155139,2009
1631204155143,2012
1631204155147,2014
1631204155151,2016
1631204155155,2015
1631204155159,2013
1631204155163,2010
1631204155167,2009
1631204155171,2010
1631204155175,2012
1631204155179,2016
1631204155183,2019
1631204155187,2021
1631204155191,2022
1631204155195,2021
1631204155199,2018
1631204155203,2015
1631204155207,2013
1631204155211,2012
1631204155215,2013
1631204155219,2015
1631204155223,2017
1631204155227,2017
1631204155231,2018
1631204155235,2018
1631204155239,2017
1631204155243,2018
1631204155247,2017
1631204155251,2017
1631204155255,2016
1631204155259,2015
1631204155263,2015
1631204155267,2016
1631204155271,2018
1631204155275,2019
1631204155279,2019
1631204155283,2017
1631204155287,2014
1631204155291,2014
1631204155295,2016
1631204155299,2020
1631204155303,2023
1631204155307,2023
1631204155311,2021
1631204155315,2018
1631204155319,2015
1631204155323,2014
1631204155327,2015
1631204155331,2016
1631204155335,2017
1631204155339,2018
1631204155343,2019
1631204155347,2020
1631204155351,2020
1631204155355,2019
1631204155359,2019
1631204155363,2019
1631204155367,2021
1631204155371,2024
1631204155375,2025
1631204155379,2025
1631204155383,2024
1631204155387,2023
1631204155391,2023
1631204155395,2023
1631204155399,2022
1631204155403,2021
1631204155407,2019
1631204155411,2017
1631204155415,2018
1631204155419,2019
1631204155423,2022
1631204155427,2025
1631204155431,2029
1631204155435,2032
1631204155439,2033
1631204155443,2034
1631204155447,2033
1631204155451,2034
1631204155455,2035
1631204155459,2037
1631204155463,2039
1631204155467,2040
1631204155471,2039
1631204155475,2036
1631204155479,2034
1631204155483,2033
1631204155487,2032
1631204155491,2033
1631204155495,2033
1631204155499,2033
1631204155503,2032
1631204155507,2032
1631204155511,2031
1631204155515,2030
1631204155519,2030
1631204155523,2031
1631204155527,2032
1631204155531,2033
1631204155535,2033
1631204155539,2032
1631204155543,2029
1631204155547,2027
1631204155551,2027
1631204155555,2028
1631204155559,2030
1631204155563,2030
1631204155567,2030
1631204155571,2029
1631204155575,2028
1631204155579,2028
1631204155583,2028
1631204155587,2026
1631204155591,2022
1631204155595,2020
1631204155599,2026
1631204155603,2041
1631204155607,2069
1631204155611,2112
1631204155615,2163
1631204155619,2208
1631204155623,2232
1631204155627,2218
1631204155631,2169
1631204155635,2098
1631204155639,2031
1631204155643,1987
1631204155647,1974
1631204155651,1985
1631204155655,2004
1631204155659,2019
1631204155663,2026
1631204155667,2029
1631204155671,2032
1631204155675,2036
1631204155679,2040
1631204155683,2043
1631204155687,2045
1631204155691,2045
1631204155695,2044
1631204155699,2042
1631204155703,2040
1631204155707,2040
1631204155711,2043
1631204155715,2048
1631204155719,2053
1631204155723,2056
1631204155727,2056
1631204155731,2052
1631204155735,2048
1631204155739,2046
1631204155743,2047
1631204155747,2050
1631204155751,2057
1631204155755,2063
1631204155759,2064
1631204155763,2063
1631204155767,2059
1631204155771,2056
1631204155775,2057
1631204155779,2061
1631204155783,2067
1631204155787,2073
1631204155791,2077
1631204155795,2079
1631204155799,2078
1631204155803,2076
1631204155807,2075
1631204155811,2076
1631204155815,2080
1631204155819,2085
1631204155823,2090
1631204155827,2093
1631204155831,2094
1631204155835,2094
1631204155839,2097
1631204155843,2102
1631204155847,2110
1631204155851,2119
1631204155855,2127
1631204155859,2131
1631204155863,2133
1631204155867,2133
1631204155871,2132
1631204155875,2130
1631204155879,2130
1631204155883,2130
1631204155887,2128
1631204155891,2125
1631204155895,2120
1631204155899,2113
1631204155903,2105
1631204155907,2099
1631204155911,2092
1631204155915,2084
1631204155919,2075
1631204155923,2065
1631204155927,2055
1631204155931,2048
1631204155935,2041
1631204155939,2036
1631204155943,2031
1631204155947,2026
1631204155951,2022
1631204155955,2019
1631204155959,2017
1631204155963,2015
1631204155967,2013
1631204155971,2012
1631204155975,2012
1631204155979,2012
1631204155983,2012
1631204155987,2011
1631204155991,2011
1631204155995,2012
1631204155999,2013
1631204156003,2015
1631204156007,2015
1631204156011,2016
1631204156015,2017
1631204156019,2018
1631204156023,2020
1631204156027,2021
1631204156031,2021
1631204156035,2019
1631204156039,2017
1631204156043,2016
1631204156047,2017
1631204156051,2017
1631204156055,2018
1631204156059,2017
1631204156063,2017
1631204156067,2017
1631204156071,2019
1631204156075,2021
1631204156079,2022
1631204156083,2022
1631204156087,2020
1631204156091,2018
1631204156095,2016
1631204156099,2016
1631204156103,2017
1631204156107,2018
1631204156111,2018
1631204156115,2018
1631204156119,2018
1631204156123,2021
1631204156127,2023
1631204156131,2025
1631204156135,2025
1631204156139,2024
1631204156143,2022
1631204156147,2022
1631204156151,2021
1631204156155,2022
1631204156159,2022
1631204156163,2022
1631204156167,2022
1631204156171,2022
1631204156175,2023
1631204156179,2023
1631204156183,2023
1631204156187,2023
1631204156191,2022
1631204156195,2020
1631204156199,2019
1631204156203,2019
1631204156207,2020
1631204156211,2023
1631204156215,2026
1631204156219,2029
1631204156223,2032
1631204156227,2032
1631204156231,2031
1631204156235,2030
1631204156239,2028
1631204156243,2026
1631204156247,2024
1631204156251,2022
1631204156255,2021
1631204156259,2022
1631204156263,2024
1631204156267,2026
1631204156271,2028
1631204156275,2030
1631204156279,2031
1631204156283,2031
1631204156287,2030
1631204156291,2031
1631204156295,2031
1631204156299,2034
1631204156303,2038
1631204156307,2041
1631204156311,2043
1631204156315,2042
1631204156319,2038
1631204156323,2033
1631204156327,2030
1631204156331,2030
1631204156335,2031
1631204156339,2033
1631204156343,2035
1631204156347,2036
1631204156351,2036
1631204156355,2036
1631204156359,2036
1631204156363,2034
1631204156367,2032
1631204156371,2030
1631204156375,2029
1631204156379,2028
1631204156383,2028
1631204156387,2029
1631204156391,2029
1631204156395,2030
1631204156399,2031
1631204156403,2032
1631204156407,2033
1631204156411,2033
1631204156415,2034
1631204156419,2035
1631204156423,2035
1631204156427,2035
1631204156431,2034
1631204156435,2030
1631204156439,2026
1631204156443,2025
1631204156447,2032
1631204156451,2048
1631204156455,2082
1631204156459,2128
1631204156463,2181
1631204156467,2224
1631204156471,2240
1631204156475,2217
1631204156479,2160
1631204156483,2087
1631204156487,2025
1631204156491,1989
1631204156495,1984
1631204156499,2000
1631204156503,2021
1631204156507,2034
1631204156511,2039
1631204156515,2039
1631204156519,2039
1631204156523,2041
1631204156527,2043
1631204156531,2044
1631204156535,2044
1631204156539,2044
1631204156543,2044
1631204156547,2045
1631204156551,2046
1631204156555,2048
1631204156559,2048
1631204156563,2048
1631204156567,2045
1631204156571,2043
1631204156575,2045
1631204156579,2049
1631204156583,2056
1631204156587,2061
1631204156591,2064
1631204156595,2063
1631204156599,2060
1631204156603,2059
1631204156607,2059
1631204156611,2061
1631204156615,2065
1631204156619,2068
1631204156623,2072
1631204156627,2075
1631204156631,2076
1631204156635,2077
1631204156639,2077
1631204156643,2077
1631204156647,2078
1631204156651,2081
1631204156655,2083
1631204156659,2087
1631204156663,2091
1631204156667,2095
1631204156671,2099
1631204156675,2102
1631204156679,2105
1631204156683,2109
1631204156687,2112
1631204156691,2116
1631204156695,2121
1631204156699,2127
1631204156703,2133
1631204156707,2138
1631204156711,2142
1631204156715,2144
1631204156719,2144
1631204156723,2144
1631204156727,2143
1631204156731,2142
1631204156735,2142
1631204156739,2140
1631204156743,2136
1631204156747,2131
1631204156751,2125
1631204156755,2118
1631204156759,2109
1631204156763,2099
1631204156767,2089
1631204156771,2079
1631204156775,2070
1631204156779,2061
1631204156783,2054
1631204156787,2048
1631204156791,2044
1631204156795,2041
1631204156799,2039
1631204156803,2038
1631204156807,2037
1631204156811,2036
1631204156815,2033
1631204156819,2029
1631204156823,2026
1631204156827,2025
1631204156831,2027
1631204156835,2030
1631204156839,2033
1631204156843,2034
1631204156847,2034
1631204156851,2032
1631204156855,2030
1631204156859,2028
1631204156863,2029
1631204156867,2030
1631204156871,2031
1631204156875,2031
1631204156879,2031
1631204156883,2031
1631204156887,2030
1631204156891,2030
1631204156895,2031
1631204156899,2031
1631204156903,2032
1631204156907,2032
1631204156911,2033
1631204156915,2033
1631204156919,2033
1631204156923,2033
1631204156927,2033
1631204156931,2033
1631204156935,2033
1631204156939,2033
1631204156943,2033
1631204156947,2034
1631204156951,2035
1631204156955,2035
1631204156959,2035
1631204156963,2034
1631204156967,2034
1631204156971,2034
1631204156975,2034
1631204156979,2034
1631204156983,2034
1631204156987,2034
1631204156991,2034
1631204156995,2034
1631204156999,2034
1631204157003,2034
1631204157007,2034
1631204157011,2035
1631204157015,2035
1631204157019,2035
1631204157023,2037
1631204157027,2039
1631204157031,2042
1631204157035,2043
1631204157039,2041
1631204157043,2037
1631204157047,2032
1631204157051,2030
1631204157055,2032
1631204157059,2035
1631204157063,2039
1631204157067,2039
1631204157071,2037
1631204157075,2034
1631204157079,2032
1631204157083,2033
1631204157087,2034
1631204157091,2036
1631204157095,2037
1631204157099,2037
1631204157103,2036
1631204157107,2035
1631204157111,2034
1631204157115,2035
1631204157119,2035
1631204157123,2036
1631204157127,2036
1631204157131,2037
1631204157135,2040
1631204157139,2044
1631204157143,2047
1631204157147,2049
1631204157151,2049
1631204157155,2048
1631204157159,2046
1631204157163,2044
1631204157167,2044
1631204157171,2045
1631204157175,2046
1631204157179,2048
1631204157183,2048
1631204157187,2047
1631204157191,2045
1631204157195,2042
1631204157199,2041
1631204157203,2041
1631204157207,2042
1631204157211,2043
1631204157215,2043
1631204157219,2042
1631204157223,2040
1631204157227,2038
1631204157231,2038
1631204157235,2039
1631204157239,2040
1631204157243,2040
1631204157247,2039
1631204157251,2039
1631204157255,2039
1631204157259,2039
1631204157263,2039
1631204157267,2040
1631204157271,2040
1631204157275,2041
1631204157279,2042
1631204157283,2042
1631204157287,2041
1631204157291,2038
1631204157295,2033
1631204157299,2031
1631204157303,2036
1631204157307,2050
1631204157311,2080
1631204157315,2125
1631204157319,2179
1631204157323,2228
1631204157327,2252
1631204157331,2238
1631204157335,2186
1631204157339,2112
1631204157343,2044
1631204157347,2001
1631204157351,1990
1631204157355,2003
1631204157359,2024
1631204157363,2039
1631204157367,2045
1631204157371,2045
1631204157375,2043
1631204157379,2043
1631204157383,2045
1631204157387,2046
1631204157391,2048
1631204157395,2048
1631204157399,2049
1631204157403,2050
1631204157407,2052
1631204157411,2055
1631204157415,2057
1631204157419,2059
1631204157423,2059
1631204157427,2058
1631204157431,2058
1631204157435,2057
1631204157439,2057
1631204157443,2058
1631204157447,2058
1631204157451,2059
1631204157455,2060
1631204157459,2063
1631204157463,2065
1631204157467,2067
1631204157471,2068
1631204157475,2069
1631204157479,2069
1631204157483,2070
1631204157487,2073
1631204157491,2076
1631204157495,2080
1631204157499,2082
1631204157503,2084
1631204157507,2086
1631204157511,2087
1631204157515,2089
1631204157519,2093
1631204157523,2096
1631204157527,2100
1631204157531,2104
1631204157535,2108
1631204157539,2111
1631204157543,2114
1631204157547,2117
1631204157551,2121
1631204157555,2125
1631204157559,2129
1631204157563,2133
1631204157567,2136
1631204157571,2138
1631204157575,2138
1631204157579,2138
1631204157583,2138
1631204157587,2137
1631204157591,2137
1631204157595,2135
1631204157599,2130
1631204157603,2124
1631204157607,2116
1631204157611,2108
1631204157615,2100
1631204157619,2091
1631204157623,2082
1631204157627,2074
1631204157631,2066
1631204157635,2059
1631204157639,2053
1631204157643,2048
1631204157647,2045
1631204157651,2041
1631204157655,2038
1631204157659,2035
1631204157663,2032
1631204157667,2028
1631204157671,2024
1631204157675,2021
1631204157679,2019
1631204157683,2018
1631204157687,2018
1631204157691,2019
1631204157695,2020
1631204157699,2020
1631204157703,2022
1631204157707,2022
1631204157711,2022
1631204157715,2022
1631204157719,2021
1631204157723,2021
1631204157727,2021
1631204157731,2023
1631204157735,2025
1631204157739,2026
1631204157743,2027
1631204157747,2025
1631204157751,2023
1631204157755,2021
1631204157759,2020
1631204157763,2022
1631204157767,2024
1631204157771,2026
1631204157775,2026
1631204157779,2024
1631204157783,2022
1631204157787,2022
1631204157791,2023
1631204157795,2025
1631204157799,2026
1631204157803,2025
1631204157807,2024
1631204157811,2023
1631204157815,2022
1631204157819,2022
1631204157823,2023
1631204157827,2023
1631204157831,2023
1631204157835,2022
1631204157839,2020
1631204157843,2019
1631204157847,2017
1631204157851,2015
1631204157855,2014
1631204157859,2013
1631204157863,2014
1631204157867,2015
1631204157871,2015
1631204157875,2015
1631204157879,2013
1631204157883,2012
1631204157887,2010
1631204157891,2010
1631204157895,2011
1631204157899,2013
1631204157903,2015
1631204157907,2017
1631204157911,2018
1631204157915,2019
1631204157919,2019
1631204157923,2018
1631204157927,2018
1631204157931,2017
1631204157935,2017
1631204157939,2017
1631204157943,2018
1631204157947,2018
1631204157951,2018
1631204157955,2018
1631204157959,2018
1631204157963,2016
1631204157967,2014
1631204157971,2012
1631204157975,2012
1631204157979,2014
1631204157983,2017
1631204157987,2021
1631204157991,2024
1631204157995,2026
1631204157999,2026
1631204158003,2027
1631204158007,2028
1631204158011,2028
1631204158015,2028
1631204158019,2026
1631204158023,2026
1631204158027,2026
1631204158031,2028
1631204158035,2030
1631204158039,2031
1631204158043,2030
1631204158047,2028
1631204158051,2025
1631204158055,2023
1631204158059,2021
1631204158063,2021
1631204158067,2023
1631204158071,2024
1631204158075,2026
1631204158079,2027
1631204158083,2027
1631204158087,2026
1631204158091,2024
1631204158095,2023
1631204158099,2022
1631204158103,2022
1631204158107,2022
1631204158111,2023
1631204158115,2024
1631204158119,2024
1631204158123,2025
1631204158127,2025
1631204158131,2025
1631204158135,2026
1631204158139,2027
1631204158143,2028
1631204158147,2027
1631204158151,2023
1631204158155,2019
1631204158159,2018
1631204158163,2025
1631204158167,2042
1631204158171,2073
1631204158175,2117
1631204158179,2167
1631204158183,2210
1631204158187,2227
1631204158191,2208
1631204158195,2156
1631204158199,2085
1631204158203,2023
1631204158207,1985
1631204158211,1977
1631204158215,1992
1631204158219,2012
1631204158223,2027
1631204158227,2033
1631204158231,2034
1631204158235,2033
1631204158239,2033
1631204158243,2033
1631204158247,2032
1631204158251,2033
1631204158255,2034
1631204158259,2035
1631204158263,2037
1631204158267,2038
1631204158271,2039
1631204158275,2039
1631204158279,2039
1631204158283,2039
1631204158287,2040
1631204158291,2043
1631204158295,2045
1631204158299,2047
1631204158303,2048
1631204158307,2049
1631204158311,2051
1631204158315,2052
1631204158319,2053
1631204158323,2054
1631204158327,2053
1631204158331,2054
1631204158335,2055
1631204158339,2057
1631204158343,2060
1631204158347,2062
1631204158351,2063
1631204158355,2064
1631204158359,2065
1631204158363,2066
1631204158367,2069
1631204158371,2073
1631204158375,2078
1631204158379,2083
1631204158383,2087
1631204158387,2089
1631204158391,2089
1631204158395,2088
1631204158399,2090
1631204158403,2094
1631204158407,2099
1631204158411,2105
1631204158415,2111
1631204158419,2115
1631204158423,2119
1631204158427,2122
1631204158431,2123
1631204158435,2123
1631204158439,2123
1631204158443,2122
1631204158447,2121
1631204158451,2119
1631204158455,2116
1631204158459,2113
1631204158463,2108
1631204158467,2102
1631204158471,2096
1631204158475,2088
1631204158479,2079
1631204158483,2068
1631204158487,2056
1631204158491,2047
1631204158495,2038
1631204158499,2031
1631204158503,2025
1631204158507,2020
1631204158511,2016
1631204158515,2014
1631204158519,2013
1631204158523,2013
1631204158527,2013
1631204158531,2012
1631204158535,2011
1631204158539,2010
1631204158543,2009
1631204158547,2008
1631204158551,2006
1631204158555,2005
1631204158559,2004
1631204158563,2005
1631204158567,2006
1631204158571,2007
1631204158575,2008
1631204158579,2008
1631204158583,2009
1631204158587,2009
1631204158591,2010
1631204158595,2010
1631204158599,2010
1631204158603,2009
1631204158607,2009
1631204158611,2009
1631204158615,2010
1631204158619,2009
1631204158623,2008
1631204158627,2006
1631204158631,2005
1631204158635,2006
1631204158639,2008
1631204158643,2011
1631204158647,2012
1631204158651,2011
1631204158655,2010
1631204158659,2009
1631204158663,2010
1631204158667,2012
1631204158671,2014
1631204158675,2015
1631204158679,2014
1631204158683,2013
1631204158687,2011
1631204158691,2010
1631204158695,2010
1631204158699,2010
1631204158703,2010
1631204158707,2011
1631204158711,2011
1631204158715,2011
1631204158719,2011
1631204158723,2010
1631204158727,2009
1631204158731,2010
1631204158735,2010
1631204158739,2012
1631204158743,2013
1631204158747,2013
1631204158751,2012
1631204158755,2012
1631204158759,2012
1631204158763,2014
1631204158767,2017
1631204158771,2019
1631204158775,2021
1631204158779,2021
1631204158783,2021
1631204158787,2021
1631204158791,2021
1631204158795,2020
1631204158799,2018
1631204158803,2014
1631204158807,2010
1631204158811,2008
1631204158815,2009
1631204158819,2011
1631204158823,2015
1631204158827,2018
1631204158831,2020
1631204158835,2021
1631204158839,2021
1631204158843,2022
1631204158847,2024
1631204158851,2026
1631204158855,2028
1631204158859,2029
1631204158863,2029
1631204158867,2029
1631204158871,2029
1631204158875,2029
1631204158879,2029
1631204158883,2029
1631204158887,2028
1631204158891,2028
1631204158895,2027
1631204158899,2027
1631204158903,2026
1631204158907,2026
1631204158911,2025
1631204158915,2025
1631204158919,2025
1631204158923,2024
1631204158927,2023
1631204158931,2023
1631204158935,2022
1631204158939,2023
1631204158943,2023
1631204158947,2022
1631204158951,2021
1631204158955,2021
1631204158959,2022
1631204158963,2025
1631204158967,2029
1631204158971,2032
1631204158975,2034
1631204158979,2034
1631204158983,2034
1631204158987,2032
1631204158991,2029
1631204158995,2024
1631204158999,2022
1631204159003,2026
1631204159007,2039
1631204159011,2064
1631204159015,2104
1631204159019,2154
1631204159023,2202
1631204159027,2231
1631204159031,2223
1631204159035,2179
1631204159039,2110
1631204159043,2041
1631204159047,1994
1631204159051,1977
1631204159055,1987
1631204159059,2009
1631204159063,2026
1631204159067,2035
1631204159071,2036
1631204159075,2036
1631204159079,2036
1631204159083,2038
1631204159087,2038
1631204159091,2038
1631204159095,2037
1631204159099,2036
1631204159103,2038
1631204159107,2041
1631204159111,2045
1631204159115,2048
1631204159119,2048
1631204159123,2048
1631204159127,2047
1631204159131,2048
1631204159135,2049
1631204159139,2052
1631204159143,2054
1631204159147,2054
1631204159151,2054
1631204159155,2054
1631204159159,2055
1631204159163,2057
1631204159167,2059
1631204159171,2061
1631204159175,2062
1631204159179,2063
1631204159183,2065
1631204159187,2067
1631204159191,2069
1631204159195,2072
1631204159199,2073
1631204159203,2074
1631204159207,2076
1631204159211,2079
1631204159215,2083
1631204159219,2087
1631204159223,2090
1631204159227,2092
1631204159231,2093
1631204159235,2096
1631204159239,2101
1631204159243,2107
1631204159247,2112
1631204159251,2116
1631204159255,2118
1631204159259,2119
1631204159263,2121
1631204159267,2124
1631204159271,2127
1631204159275,2129
1631204159279,2131
1631204159283,2131
1631204159287,2130
1631204159291,2128
1631204159295,2126
1631204159299,2122
1631204159303,2117
1631204159307,2110
1631204159311,2102
1631204159315,2093
1631204159319,2085
1631204159323,2076
1631204159327,2067
1631204159331,2059
1631204159335,2051
1631204159339,2044
1631204159343,2038
1631204159347,2032
1631204159351,2027
1631204159355,2023
1631204159359,2021
1631204159363,2019
1631204159367,2020
1631204159371,2021
1631204159375,2021
1631204159379,2020
1631204159383,2019
1631204159387,2017
1631204159391,2016
1631204159395,2017
1631204159399,2018
1631204159403,2020
1631204159407,2021
1631204159411,2022
1631204159415,2022
1631204159419,2021
1631204159423,2021
1631204159427,2020
1631204159431,2020
1631204159435,2020
1631204159439,2021
1631204159443,2023
1631204159447,2024
1631204159451,2024
1631204159455,2022
1631204159459,2019
1631204159463,2017
1631204159467,2017
1631204159471,2020
1631204159475,2025
1631204159479,2029
1631204159483,2031
1631204159487,2031
1631204159491,2029
1631204159495,2026
1631204159499,2024
1631204159503,2024
1631204159507,2025
1631204159511,2027
1631204159515,2028
1631204159519,2028
1631204159523,2028
1631204159527,2026
1631204159531,2025
1631204159535,2024
1631204159539,2024
1631204159543,2026
1631204159547,2027
1631204159551,2026
1631204159555,2026
1631204159559,2025
1631204159563,2026
1631204159567,2028
1631204159571,2031
1631204159575,2034
1631204159579,2035
1631204159583,2034
1631204159587,2032
1631204159591,2031
1631204159595,2030
1631204159599,2030
1631204159603,2030
1631204159607,2030
1631204159611,2030
1631204159615,2030
1631204159619,2031
1631204159623,2033
1631204159627,2034
1631204159631,2035
1631204159635,2034
1631204159639,2033
1631204159643,2032
1631204159647,2032
1631204159651,2033
1631204159655,2033
1631204159659,2033
1631204159663,2033
1631204159667,2033
1631204159671,2035
1631204159675,2037
1631204159679,2038
1631204159683,2038
1631204159687,2039
1631204159691,2039
1631204159695,2041
1631204159699,2043
1631204159703,2045
1631204159707,2045
1631204159711,2046
1631204159715,2046
1631204159719,2046
1631204159723,2046
1631204159727,2044
1631204159731,2043
1631204159735,2042
1631204159739,2042
1631204159743,2042
1631204159747,2042
1631204159751,2043
1631204159755,2043
1631204159759,2042
1631204159763,2042
1631204159767,2042
1631204159771,2041
1631204159775,2041
1631204159779,2040
1631204159783,2039
1631204159787,2040
1631204159791,2040
1631204159795,2041
1631204159799,2040
1631204159803,2040
1631204159807,2039
1631204159811,2038
1631204159815,2039
1631204159819,2039
1631204159823,2041
1631204159827,2041
1631204159831,2042
1631204159835,2042
1631204159839,2042
1631204159843,2041
1631204159847,2038
1631204159851,2035
1631204159855,2034
1631204159859,2039
1631204159863,2053
1631204159867,2082
1631204159871,2125
1631204159875,2176
1631204159879,2222
1631204159883,2242
1631204159887,2226
1631204159891,2175
1631204159895,2105
1631204159899,2042
1631204159903,2004
1631204159907,1996
1631204159911,2011
1631204159915,2032
1631204159919,2046
1631204159923,2051
1631204159927,2051
1631204159931,2049
1631204159935,2050
1631204159939,2050
1631204159943,2051
1631204159947,2052
1631204159951,2053
1631204159955,2055
1631204159959,2055
1631204159963,2056
1631204159967,2057
1631204159971,2058
1631204159975,2057
1631204159979,2055
1631204159983,2054
1631204159987,2054
1631204159991,2057
1631204159995,2062
1631204159999,2068
1631204160003,2072
1631204160007,2074
1631204160011,2073
1631204160015,2072
1631204160019,2072
1631204160023,2073
1631204160027,2074
1631204160031,2076
1631204160035,2077
1631204160039,2078
1631204160043,2079
1631204160047,2080
1631204160051,2082
1631204160055,2084
1631204160059,2086
1631204160063,2089
1631204160067,2092
1631204160071,2095
1631204160075,2097
1631204160079,2099
1631204160083,2101
1631204160087,2104
1631204160091,2109
1631204160095,2114
1631204160099,2118
1631204160103,2122
1631204160107,2124
1631204160111,2125
1631204160115,2128
1631204160119,2131
1631204160123,2135
1631204160127,2137
1631204160131,2138
1631204160135,2138
1631204160139,2138
1631204160143,2139
1631204160147,2139
1631204160151,2139
1631204160155,2137
1631204160159,2131
1631204160163,2123
1631204160167,2114
1631204160171,2105
1631204160175,2096
1631204160179,2087
1631204160183,2079
1631204160187,2070
1631204160191,2062
1631204160195,2055
1631204160199,2049
1631204160203,2044
1631204160207,2040
1631204160211,2037
1631204160215,2034
1631204160219,2031
1631204160223,2029
1631204160227,2028
1631204160231,2028
1631204160235,2030
1631204160239,2031
1631204160243,2033
1631204160247,2032
1631204160251,2030
1631204160255,2029
1631204160259,2028
1631204160263,2029
1631204160267,2030
1631204160271,2031
1631204160275,2031
1631204160279,2031
1631204160283,2030
1631204160287,2029
1631204160291,2029
1631204160295,2028
1631204160299,2028
1631204160303,2028
1631204160307,2029
1631204160311,2031
1631204160315,2034
1631204160319,2035
1631204160323,2036
1631204160327,2035
1631204160331,2033
1631204160335,2032
1631204160339,2031
1631204160343,2032
1631204160347,2034
1631204160351,2035
1631204160355,2035
1631204160359,2035
1631204160363,2034
1631204160367,2033
1631204160371,2032
1631204160375,2032
1631204160379,2031
1631204160383,2030
1631204160387,2030
1631204160391,2031
1631204160395,2032
1631204160399,2034
1631204160403,2035
1631204160407,2034
1631204160411,2033
1631204160415,2031
1631204160419,2030
1631204160423,2031
1631204160427,2033
1631204160431,2035
1631204160435,2036
1631204160439,2037
1631204160443,2035
1631204160447,2033
1631204160451,2031
1631204160455,2031
1631204160459,2032
1631204160463,2034
1631204160467,2036
1631204160471,2038
1631204160475,2037
1631204160479,2036
1631204160483,2034
