timestamp,ecg_waveform
1630059083599,1991
1630059083603,1991
1630059083607,1990
1630059083611,1989
1630059083615,1988
1630059083619,1987
1630059083623,1988
1630059083627,1988
1630059083631,1990
1630059083635,1992
1630059083639,1994
1630059083643,1996
1630059083647,1998
1630059083651,2000
1630059083655,2001
1630059083659,2002
1630059083663,2004
1630059083667,2005
1630059083671,2007
1630059083675,2010
1630059083679,2013
1630059083683,2016
1630059083687,2017
1630059083691,2017
1630059083695,2015
1630059083699,2013
1630059083703,2012
1630059083707,2013
1630059083711,2017
1630059083715,2020
1630059083719,2017
1630059083723,2003
1630059083727,1978
1630059083731,1949
1630059083735,1928
1630059083739,1923
1630059083743,1936
1630059083747,1964
1630059083751,1992
1630059083755,2014
1630059083759,2026
1630059083763,2030
1630059083767,2033
1630059083771,2038
1630059083775,2042
1630059083779,2041
1630059083783,2036
1630059083787,2029
1630059083791,2027
1630059083795,2032
1630059083799,2040
1630059083803,2046
1630059083807,2047
1630059083811,2042
1630059083815,2036
1630059083819,2033
1630059083823,2034
1630059083827,2037
1630059083831,2038
1630059083835,2034
1630059083839,2029
1630059083843,2026
1630059083847,2028
1630059083851,2034
1630059083855,2041
1630059083859,2045
1630059083863,2044
1630059083867,2039
1630059083871,2034
1630059083875,2033
1630059083879,2037
1630059083883,2044
1630059083887,2049
1630059083891,2050
1630059083895,2047
1630059083899,2041
1630059083903,2037
1630059083907,2037
1630059083911,2039
1630059083915,2043
1630059083919,2047
1630059083923,2052
1630059083927,2058
1630059083931,2059
1630059083935,2054
1630059083939,2047
1630059083943,2041
1630059083947,2043
1630059083951,2050
1630059083955,2060
1630059083959,2064
1630059083963,2058
1630059083967,2048
1630059083971,2041
1630059083975,2042
1630059083979,2050
1630059083983,2064
1630059083987,2072
1630059083991,2075
1630059083995,2076
1630059083999,2078
1630059084003,2084
1630059084007,2094
1630059084011,2104
1630059084015,2110
1630059084019,2110
1630059084023,2108
1630059084027,2110
1630059084031,2116
1630059084035,2129
1630059084039,2142
1630059084043,2150
1630059084047,2153
1630059084051,2152
1630059084055,2150
1630059084059,2152
1630059084063,2158
1630059084067,2166
1630059084071,2176
1630059084075,2186
1630059084079,2196
1630059084083,2205
1630059084087,2212
1630059084091,2217
1630059084095,2218
1630059084099,2216
1630059084103,2213
1630059084107,2213
1630059084111,2219
1630059084115,2230
1630059084119,2243
1630059084123,2254
1630059084127,2259
1630059084131,2259
1630059084135,2261
1630059084139,2264
1630059084143,2272
1630059084147,2288
1630059084151,2305
1630059084155,2322
1630059084159,2334
1630059084163,2338
1630059084167,2336
1630059084171,2331
1630059084175,2328
1630059084179,2327
1630059084183,2327
1630059084187,2325
1630059084191,2323
1630059084195,2319
1630059084199,2320
1630059084203,2328
1630059084207,2336
1630059084211,2342
1630059084215,2346
1630059084219,2351
1630059084223,2361
1630059084227,2372
1630059084231,2378
1630059084235,2381
1630059084239,2380
1630059084243,2381
1630059084247,2389
1630059084251,2396
1630059084255,2401
1630059084259,2401
1630059084263,2396
1630059084267,2391
1630059084271,2390
1630059084275,2390
1630059084279,2390
1630059084283,2388
1630059084287,2384
1630059084291,2384
1630059084295,2388
1630059084299,2394
1630059084303,2400
1630059084307,2402
1630059084311,2402
1630059084315,2401
1630059084319,2400
1630059084323,2400
1630059084327,2400
1630059084331,2400
1630059084335,2400
1630059084339,2398
1630059084343,2395
1630059084347,2391
1630059084351,2386
1630059084355,2381
1630059084359,2379
1630059084363,2379
1630059084367,2380
1630059084371,2379
1630059084375,2376
1630059084379,2371
1630059084383,2364
1630059084387,2360
1630059084391,2358
1630059084395,2358
1630059084399,2358
1630059084403,2355
1630059084407,2344
1630059084411,2321
1630059084415,2291
1630059084419,2259
1630059084423,2238
1630059084427,2234
1630059084431,2248
1630059084435,2273
1630059084439,2299
1630059084443,2317
1630059084447,2327
1630059084451,2327
1630059084455,2323
1630059084459,2316
1630059084463,2309
1630059084467,2303
1630059084471,2300
1630059084475,2302
1630059084479,2304
1630059084483,2305
1630059084487,2301
1630059084491,2292
1630059084495,2283
1630059084499,2276
1630059084503,2276
1630059084507,2279
1630059084511,2285
1630059084515,2290
1630059084519,2290
1630059084523,2285
1630059084527,2279
1630059084531,2275
1630059084535,2272
1630059084539,2273
1630059084543,2276
1630059084547,2276
1630059084551,2275
1630059084555,2272
1630059084559,2270
1630059084563,2269
1630059084567,2268
1630059084571,2266
1630059084575,2262
1630059084579,2256
1630059084583,2250
1630059084587,2247
1630059084591,2245
1630059084595,2243
1630059084599,2240
1630059084603,2237
1630059084607,2237
1630059084611,2238
1630059084615,2239
1630059084619,2237
1630059084623,2232
1630059084627,2226
1630059084631,2220
1630059084635,2217
1630059084639,2217
1630059084643,2216
1630059084647,2213
1630059084651,2209
1630059084655,2205
1630059084659,2202
1630059084663,2202
1630059084667,2203
1630059084671,2203
1630059084675,2204
1630059084679,2204
1630059084683,2206
1630059084687,2208
1630059084691,2208
1630059084695,2205
1630059084699,2199
1630059084703,2194
1630059084707,2192
1630059084711,2193
1630059084715,2194
1630059084719,2193
1630059084723,2188
1630059084727,2184
1630059084731,2183
1630059084735,2185
1630059084739,2188
1630059084743,2189
1630059084747,2184
1630059084751,2177
1630059084755,2173
1630059084759,2171
1630059084763,2174
1630059084767,2177
1630059084771,2179
1630059084775,2179
1630059084779,2176
1630059084783,2173
1630059084787,2169
1630059084791,2164
1630059084795,2160
1630059084799,2159
1630059084803,2161
1630059084807,2164
1630059084811,2168
1630059084815,2168
1630059084819,2167
1630059084823,2163
1630059084827,2159
1630059084831,2154
1630059084835,2151
1630059084839,2150
1630059084843,2152
1630059084847,2156
1630059084851,2160
1630059084855,2161
1630059084859,2160
1630059084863,2159
1630059084867,2157
1630059084871,2155
1630059084875,2153
1630059084879,2148
1630059084883,2141
1630059084887,2136
1630059084891,2136
1630059084895,2140
1630059084899,2145
1630059084903,2150
1630059084907,2150
1630059084911,2147
1630059084915,2143
1630059084919,2139
1630059084923,2138
1630059084927,2138
1630059084931,2137
1630059084935,2136
1630059084939,2133
1630059084943,2128
1630059084947,2127
1630059084951,2129
1630059084955,2135
1630059084959,2141
1630059084963,2143
1630059084967,2140
1630059084971,2130
1630059084975,2118
1630059084979,2109
1630059084983,2105
1630059084987,2106
1630059084991,2108
1630059084995,2110
1630059084999,2111
1630059085003,2112
1630059085007,2111
1630059085011,2106
1630059085015,2099
1630059085019,2091
1630059085023,2088
1630059085027,2091
1630059085031,2100
1630059085035,2106
1630059085039,2097
1630059085043,2074
1630059085047,2045
1630059085051,2020
1630059085055,2014
1630059085059,2029
1630059085063,2055
1630059085067,2083
1630059085071,2102
1630059085075,2109
1630059085079,2105
1630059085083,2096
1630059085087,2090
1630059085091,2089
1630059085095,2092
1630059085099,2097
1630059085103,2097
1630059085107,2090
1630059085111,2078
1630059085115,2069
1630059085119,2067
1630059085123,2072
1630059085127,2081
1630059085131,2089
1630059085135,2091
1630059085139,2091
1630059085143,2090
1630059085147,2092
1630059085151,2094
1630059085155,2095
1630059085159,2092
1630059085163,2085
1630059085167,2079
1630059085171,2073
1630059085175,2066
1630059085179,2060
1630059085183,2055
1630059085187,2054
1630059085191,2058
1630059085195,2067
1630059085199,2076
1630059085203,2080
1630059085207,2078
1630059085211,2070
1630059085215,2062
1630059085219,2055
1630059085223,2052
1630059085227,2053
1630059085231,2055
1630059085235,2058
1630059085239,2059
1630059085243,2059
1630059085247,2056
1630059085251,2051
1630059085255,2048
1630059085259,2046
1630059085263,2045
1630059085267,2045
1630059085271,2045
1630059085275,2046
1630059085279,2046
1630059085283,2045
1630059085287,2043
1630059085291,2042
1630059085295,2041
1630059085299,2042
1630059085303,2046
1630059085307,2050
1630059085311,2054
1630059085315,2054
1630059085319,2049
1630059085323,2043
1630059085327,2038
1630059085331,2038
1630059085335,2044
1630059085339,2053
1630059085343,2062
1630059085347,2067
1630059085351,2067
1630059085355,2064
1630059085359,2061
1630059085363,2060
1630059085367,2059
1630059085371,2059
1630059085375,2057
1630059085379,2055
1630059085383,2054
1630059085387,2056
1630059085391,2058
1630059085395,2061
1630059085399,2063
1630059085403,2062
1630059085407,2059
1630059085411,2056
1630059085415,2053
1630059085419,2051
1630059085423,2051
1630059085427,2052
1630059085431,2052
1630059085435,2053
1630059085439,2054
1630059085443,2054
1630059085447,2054
1630059085451,2054
1630059085455,2054
1630059085459,2054
1630059085463,2053
1630059085467,2053
1630059085471,2053
1630059085475,2053
1630059085479,2053
1630059085483,2054
1630059085487,2055
1630059085491,2055
1630059085495,2054
1630059085499,2053
1630059085503,2050
1630059085507,2049
1630059085511,2048
1630059085515,2049
1630059085519,2049
1630059085523,2049
1630059085527,2048
1630059085531,2048
1630059085535,2047
1630059085539,2047
1630059085543,2048
1630059085547,2048
1630059085551,2048
1630059085555,2050
1630059085559,2052
1630059085563,2054
1630059085567,2055
1630059085571,2056
1630059085575,2055
1630059085579,2055
1630059085583,2055
1630059085587,2056
1630059085591,2058
1630059085595,2060
1630059085599,2061
1630059085603,2060
1630059085607,2058
1630059085611,2056
1630059085615,2054
1630059085619,2054
1630059085623,2055
1630059085627,2057
1630059085631,2060
1630059085635,2063
1630059085639,2067
1630059085643,2070
1630059085647,2073
1630059085651,2069
1630059085655,2056
1630059085659,2032
1630059085663,2002
1630059085667,1976
1630059085671,1965
1630059085675,1973
1630059085679,1995
1630059085683,2023
1630059085687,2046
1630059085691,2059
1630059085695,2066
1630059085699,2069
1630059085703,2071
1630059085707,2072
1630059085711,2071
1630059085715,2069
1630059085719,2067
1630059085723,2068
1630059085727,2072
1630059085731,2076
1630059085735,2080
1630059085739,2081
1630059085743,2079
1630059085747,2077
1630059085751,2077
1630059085755,2078
1630059085759,2081
1630059085763,2083
1630059085767,2085
1630059085771,2085
1630059085775,2085
1630059085779,2085
1630059085783,2086
1630059085787,2087
1630059085791,2088
1630059085795,2089
1630059085799,2089
1630059085803,2088
1630059085807,2088
1630059085811,2087
1630059085815,2085
1630059085819,2084
1630059085823,2085
1630059085827,2086
1630059085831,2088
1630059085835,2091
1630059085839,2092
1630059085843,2092
1630059085847,2092
1630059085851,2091
1630059085855,2090
1630059085859,2089
1630059085863,2089
1630059085867,2088
1630059085871,2087
1630059085875,2087
1630059085879,2086
1630059085883,2086
1630059085887,2085
1630059085891,2085
1630059085895,2085
1630059085899,2084
1630059085903,2084
1630059085907,2084
1630059085911,2084
1630059085915,2085
1630059085919,2086
1630059085923,2087
1630059085927,2088
1630059085931,2089
1630059085935,2091
1630059085939,2093
1630059085943,2094
1630059085947,2095
1630059085951,2095
1630059085955,2095
1630059085959,2094
1630059085963,2094
1630059085967,2095
1630059085971,2096
1630059085975,2096
1630059085979,2095
1630059085983,2092
1630059085987,2090
1630059085991,2087
1630059085995,2087
1630059085999,2087
1630059086003,2088
1630059086007,2088
1630059086011,2089
1630059086015,2088
1630059086019,2086
1630059086023,2084
1630059086027,2081
1630059086031,2079
1630059086035,2078
1630059086039,2077
1630059086043,2077
1630059086047,2076
1630059086051,2075
1630059086055,2073
1630059086059,2071
1630059086063,2069
1630059086067,2069
1630059086071,2069
1630059086075,2070
1630059086079,2070
1630059086083,2070
1630059086087,2069
1630059086091,2067
1630059086095,2065
1630059086099,2063
1630059086103,2061
1630059086107,2060
1630059086111,2059
1630059086115,2058
1630059086119,2057
1630059086123,2056
1630059086127,2055
1630059086131,2052
1630059086135,2050
1630059086139,2048
1630059086143,2048
1630059086147,2050
1630059086151,2054
1630059086155,2058
1630059086159,2060
1630059086163,2060
1630059086167,2060
1630059086171,2059
1630059086175,2058
1630059086179,2058
1630059086183,2059
1630059086187,2058
1630059086191,2058
1630059086195,2057
1630059086199,2057
1630059086203,2058
1630059086207,2057
1630059086211,2055
1630059086215,2053
1630059086219,2052
1630059086223,2054
1630059086227,2057
1630059086231,2061
1630059086235,2065
1630059086239,2065
1630059086243,2058
1630059086247,2040
1630059086251,2012
1630059086255,1981
1630059086259,1958
1630059086263,1951
1630059086267,1965
1630059086271,1992
1630059086275,2024
1630059086279,2048
1630059086283,2062
1630059086287,2066
1630059086291,2065
1630059086295,2062
1630059086299,2060
1630059086303,2059
1630059086307,2059
1630059086311,2058
1630059086315,2058
1630059086319,2058
1630059086323,2059
1630059086327,2059
1630059086331,2059
1630059086335,2059
1630059086339,2058
1630059086343,2057
1630059086347,2057
1630059086351,2056
1630059086355,2056
1630059086359,2055
1630059086363,2054
1630059086367,2053
1630059086371,2053
1630059086375,2052
1630059086379,2052
1630059086383,2051
1630059086387,2051
1630059086391,2050
1630059086395,2050
1630059086399,2050
1630059086403,2050
1630059086407,2050
1630059086411,2050
1630059086415,2050
1630059086419,2049
1630059086423,2048
1630059086427,2048
1630059086431,2046
1630059086435,2045
1630059086439,2045
1630059086443,2044
1630059086447,2043
1630059086451,2042
1630059086455,2041
1630059086459,2039
1630059086463,2038
1630059086467,2037
1630059086471,2036
1630059086475,2037
1630059086479,2037
1630059086483,2038
1630059086487,2038
1630059086491,2038
1630059086495,2038
1630059086499,2039
1630059086503,2040
1630059086507,2043
1630059086511,2045
1630059086515,2048
1630059086519,2050
1630059086523,2052
1630059086527,2054
1630059086531,2056
1630059086535,2058
1630059086539,2058
1630059086543,2059
1630059086547,2060
1630059086551,2060
1630059086555,2062
1630059086559,2064
1630059086563,2066
1630059086567,2067
1630059086571,2067
1630059086575,2066
1630059086579,2065
1630059086583,2065
1630059086587,2066
1630059086591,2067
1630059086595,2068
1630059086599,2069
1630059086603,2069
1630059086607,2070
1630059086611,2070
1630059086615,2070
1630059086619,2069
1630059086623,2069
1630059086627,2069
1630059086631,2069
1630059086635,2069
1630059086639,2069
1630059086643,2069
1630059086647,2069
1630059086651,2070
1630059086655,2070
1630059086659,2070
1630059086663,2071
1630059086667,2070
1630059086671,2070
1630059086675,2070
1630059086679,2070
1630059086683,2070
1630059086687,2071
1630059086691,2071
1630059086695,2071
1630059086699,2070
1630059086703,2069
1630059086707,2068
1630059086711,2067
1630059086715,2067
1630059086719,2067
1630059086723,2067
1630059086727,2068
1630059086731,2068
1630059086735,2069
1630059086739,2070
1630059086743,2071
1630059086747,2073
1630059086751,2074
1630059086755,2074
1630059086759,2074
1630059086763,2074
1630059086767,2075
1630059086771,2075
1630059086775,2075
1630059086779,2074
1630059086783,2074
1630059086787,2073
1630059086791,2073
1630059086795,2074
1630059086799,2074
1630059086803,2074
1630059086807,2073
1630059086811,2074
1630059086815,2075
1630059086819,2077
1630059086823,2077
1630059086827,2070
1630059086831,2053
1630059086835,2026
1630059086839,1995
1630059086843,1971
1630059086847,1965
1630059086851,1979
1630059086855,2009
1630059086859,2041
1630059086863,2067
1630059086867,2081
1630059086871,2086
1630059086875,2085
1630059086879,2082
1630059086883,2080
1630059086887,2077
1630059086891,2075
1630059086895,2074
1630059086899,2073
1630059086903,2073
1630059086907,2073
1630059086911,2072
1630059086915,2072
1630059086919,2072
1630059086923,2072
1630059086927,2072
1630059086931,2072
1630059086935,2071
1630059086939,2070
1630059086943,2068
1630059086947,2067
1630059086951,2067
1630059086955,2067
1630059086959,2068
1630059086963,2069
1630059086967,2070
1630059086971,2069
1630059086975,2069
1630059086979,2067
1630059086983,2066
1630059086987,2065
1630059086991,2065
1630059086995,2065
1630059086999,2065
1630059087003,2065
1630059087007,2064
1630059087011,2063
1630059087015,2062
1630059087019,2061
1630059087023,2060
1630059087027,2059
1630059087031,2058
1630059087035,2057
1630059087039,2057
1630059087043,2056
1630059087047,2056
1630059087051,2055
1630059087055,2053
1630059087059,2052
1630059087063,2051
1630059087067,2051
1630059087071,2051
1630059087075,2052
1630059087079,2054
1630059087083,2055
1630059087087,2056
1630059087091,2057
1630059087095,2057
1630059087099,2059
1630059087103,2061
1630059087107,2063
1630059087111,2065
1630059087115,2067
1630059087119,2069
1630059087123,2070
1630059087127,2070
1630059087131,2071
1630059087135,2071
1630059087139,2072
1630059087143,2073
1630059087147,2073
1630059087151,2074
1630059087155,2074
1630059087159,2074
1630059087163,2074
1630059087167,2074
1630059087171,2073
1630059087175,2073
1630059087179,2073
1630059087183,2072
1630059087187,2071
1630059087191,2071
1630059087195,2071
1630059087199,2071
1630059087203,2071
1630059087207,2072
1630059087211,2071
1630059087215,2071
1630059087219,2070
1630059087223,2069
1630059087227,2069
1630059087231,2069
1630059087235,2069
1630059087239,2068
1630059087243,2068
1630059087247,2067
1630059087251,2066
1630059087255,2066
1630059087259,2066
1630059087263,2067
1630059087267,2067
1630059087271,2067
1630059087275,2067
1630059087279,2066
1630059087283,2065
1630059087287,2064
1630059087291,2063
1630059087295,2062
1630059087299,2062
1630059087303,2061
1630059087307,2061
1630059087311,2061
1630059087315,2062
1630059087319,2064
1630059087323,2066
1630059087327,2067
1630059087331,2068
1630059087335,2068
1630059087339,2068
1630059087343,2068
1630059087347,2068
1630059087351,2068
1630059087355,2068
1630059087359,2069
1630059087363,2069
1630059087367,2069
1630059087371,2069
1630059087375,2068
1630059087379,2067
1630059087383,2067
1630059087387,2066
1630059087391,2066
1630059087395,2068
1630059087399,2070
1630059087403,2072
1630059087407,2069
1630059087411,2056
1630059087415,2032
1630059087419,2000
1630059087423,1972
1630059087427,1959
1630059087431,1967
1630059087435,1992
1630059087439,2026
1630059087443,2054
1630059087447,2073
1630059087451,2080
1630059087455,2080
1630059087459,2078
1630059087463,2075
1630059087467,2073
1630059087471,2070
1630059087475,2069
1630059087479,2068
1630059087483,2069
1630059087487,2069
1630059087491,2070
1630059087495,2069
1630059087499,2068
1630059087503,2067
1630059087507,2066
1630059087511,2066
1630059087515,2066
1630059087519,2066
1630059087523,2066
1630059087527,2066
1630059087531,2065
1630059087535,2064
1630059087539,2063
1630059087543,2063
1630059087547,2063
1630059087551,2063
1630059087555,2063
1630059087559,2063
1630059087563,2062
1630059087567,2062
1630059087571,2061
1630059087575,2060
1630059087579,2060
1630059087583,2059
1630059087587,2058
1630059087591,2057
1630059087595,2056
1630059087599,2056
1630059087603,2055
1630059087607,2055
1630059087611,2054
1630059087615,2053
1630059087619,2051
1630059087623,2049
1630059087627,2048
1630059087631,2048
1630059087635,2048
1630059087639,2048
1630059087643,2048
1630059087647,2048
1630059087651,2048
1630059087655,2048
1630059087659,2047
1630059087663,2047
1630059087667,2048
1630059087671,2049
1630059087675,2051
1630059087679,2053
1630059087683,2055
1630059087687,2057
1630059087691,2058
1630059087695,2058
1630059087699,2059
1630059087703,2059
1630059087707,2060
1630059087711,2061
1630059087715,2063
1630059087719,2064
1630059087723,2065
1630059087727,2065
1630059087731,2065
1630059087735,2064
1630059087739,2063
1630059087743,2062
1630059087747,2062
1630059087751,2062
1630059087755,2062
1630059087759,2063
1630059087763,2063
1630059087767,2064
1630059087771,2063
1630059087775,2063
1630059087779,2062
1630059087783,2062
1630059087787,2061
1630059087791,2061
1630059087795,2062
1630059087799,2062
1630059087803,2062
1630059087807,2062
1630059087811,2061
1630059087815,2061
1630059087819,2060
1630059087823,2060
1630059087827,2060
1630059087831,2060
1630059087835,2059
1630059087839,2059
1630059087843,2059
1630059087847,2060
1630059087851,2060
1630059087855,2060
1630059087859,2059
1630059087863,2058
1630059087867,2057
1630059087871,2055
1630059087875,2055
1630059087879,2054
1630059087883,2054
1630059087887,2055
1630059087891,2055
1630059087895,2054
1630059087899,2054
1630059087903,2055
1630059087907,2056
1630059087911,2058
1630059087915,2060
1630059087919,2062
1630059087923,2062
1630059087927,2062
1630059087931,2062
1630059087935,2061
1630059087939,2061
1630059087943,2061
1630059087947,2061
1630059087951,2061
1630059087955,2062
1630059087959,2063
1630059087963,2063
1630059087967,2062
1630059087971,2062
1630059087975,2062
1630059087979,2062
1630059087983,2064
1630059087987,2066
1630059087991,2066
1630059087995,2060
1630059087999,2045
1630059088003,2019
1630059088007,1988
1630059088011,1964
1630059088015,1956
1630059088019,1967
1630059088023,1992
1630059088027,2023
1630059088031,2048
1630059088035,2063
1630059088039,2069
1630059088043,2070
1630059088047,2069
1630059088051,2068
1630059088055,2066
1630059088059,2064
1630059088063,2063
1630059088067,2062
1630059088071,2062
1630059088075,2062
1630059088079,2062
1630059088083,2063
1630059088087,2062
1630059088091,2062
1630059088095,2061
1630059088099,2060
1630059088103,2059
1630059088107,2059
1630059088111,2059
1630059088115,2059
1630059088119,2060
1630059088123,2059
1630059088127,2059
1630059088131,2058
1630059088135,2057
1630059088139,2056
1630059088143,2056
1630059088147,2056
1630059088151,2055
1630059088155,2055
1630059088159,2055
1630059088163,2055
1630059088167,2054
1630059088171,2054
1630059088175,2053
1630059088179,2052
1630059088183,2050
1630059088187,2049
1630059088191,2048
1630059088195,2048
1630059088199,2048
1630059088203,2047
1630059088207,2047
1630059088211,2046
1630059088215,2045
1630059088219,2044
1630059088223,2043
1630059088227,2043
1630059088231,2043
1630059088235,2043
1630059088239,2043
1630059088243,2044
1630059088247,2044
1630059088251,2044
1630059088255,2044
1630059088259,2045
1630059088263,2046
1630059088267,2048
1630059088271,2049
1630059088275,2051
1630059088279,2053
1630059088283,2054
1630059088287,2056
1630059088291,2057
1630059088295,2057
1630059088299,2057
1630059088303,2058
1630059088307,2058
1630059088311,2058
1630059088315,2059
1630059088319,2060
1630059088323,2061
1630059088327,2061
1630059088331,2061
1630059088335,2060
1630059088339,2059
1630059088343,2059
1630059088347,2059
1630059088351,2059
1630059088355,2059
1630059088359,2059
1630059088363,2059
1630059088367,2059
1630059088371,2058
1630059088375,2058
1630059088379,2057
1630059088383,2057
1630059088387,2057
1630059088391,2057
1630059088395,2057
1630059088399,2057
1630059088403,2057
1630059088407,2057
1630059088411,2057
1630059088415,2056
1630059088419,2055
1630059088423,2055
1630059088427,2055
1630059088431,2055
1630059088435,2055
1630059088439,2056
1630059088443,2056
1630059088447,2055
1630059088451,2054
1630059088455,2054
1630059088459,2054
1630059088463,2054
1630059088467,2055
1630059088471,2055
1630059088475,2054
1630059088479,2053
1630059088483,2052
1630059088487,2051
1630059088491,2050
1630059088495,2050
1630059088499,2049
1630059088503,2049
1630059088507,2049
1630059088511,2049
1630059088515,2050
1630059088519,2052
1630059088523,2054
1630059088527,2056
1630059088531,2057
1630059088535,2057
1630059088539,2057
1630059088543,2056
1630059088547,2056
1630059088551,2056
1630059088555,2057
1630059088559,2058
1630059088563,2058
1630059088567,2058
1630059088571,2058
1630059088575,2057
1630059088579,2056
1630059088583,2056
1630059088587,2056
1630059088591,2057
1630059088595,2060
1630059088599,2062
1630059088603,2061
1630059088607,2054
1630059088611,2036
1630059088615,2008
1630059088619,1978
1630059088623,1956
1630059088627,1952
1630059088631,1966
1630059088635,1994
1630059088639,2023
1630059088643,2046
1630059088647,2057
1630059088651,2061
1630059088655,2061
1630059088659,2060
1630059088663,2060
1630059088667,2059
1630059088671,2058
1630059088675,2057
1630059088679,2057
1630059088683,2057
1630059088687,2057
1630059088691,2056
1630059088695,2056
1630059088699,2056
1630059088703,2055
1630059088707,2055
1630059088711,2055
1630059088715,2055
1630059088719,2055
1630059088723,2055
1630059088727,2055
1630059088731,2054
1630059088735,2053
1630059088739,2053
1630059088743,2052
1630059088747,2052
1630059088751,2051
1630059088755,2051
1630059088759,2051
1630059088763,2051
1630059088767,2050
1630059088771,2050
1630059088775,2049
1630059088779,2048
1630059088783,2048
1630059088787,2047
1630059088791,2046
1630059088795,2046
1630059088799,2045
1630059088803,2045
1630059088807,2044
1630059088811,2043
1630059088815,2042
1630059088819,2041
1630059088823,2040
1630059088827,2039
1630059088831,2038
1630059088835,2038
1630059088839,2038
1630059088843,2038
1630059088847,2038
1630059088851,2038
1630059088855,2038
1630059088859,2037
1630059088863,2038
1630059088867,2038
1630059088871,2040
1630059088875,2041
1630059088879,2043
1630059088883,2045
1630059088887,2046
1630059088891,2048
1630059088895,2048
1630059088899,2049
1630059088903,2050
1630059088907,2050
1630059088911,2050
1630059088915,2051
1630059088919,2052
1630059088923,2052
1630059088927,2053
1630059088931,2053
1630059088935,2053
1630059088939,2053
1630059088943,2052
1630059088947,2052
1630059088951,2052
1630059088955,2053
1630059088959,2053
1630059088963,2053
1630059088967,2053
1630059088971,2053
1630059088975,2053
1630059088979,2053
1630059088983,2052
1630059088987,2052
1630059088991,2052
1630059088995,2052
1630059088999,2052
1630059089003,2052
1630059089007,2052
1630059089011,2052
1630059089015,2052
1630059089019,2052
1630059089023,2052
1630059089027,2051
1630059089031,2051
1630059089035,2051
1630059089039,2051
1630059089043,2051
1630059089047,2052
1630059089051,2051
1630059089055,2051
1630059089059,2050
1630059089063,2050
1630059089067,2050
1630059089071,2051
1630059089075,2051
1630059089079,2052
1630059089083,2052
1630059089087,2052
1630059089091,2051
1630059089095,2051
1630059089099,2050
1630059089103,2050
1630059089107,2050
1630059089111,2051
1630059089115,2051
1630059089119,2050
1630059089123,2049
1630059089127,2048
1630059089131,2047
1630059089135,2046
1630059089139,2046
1630059089143,2046
1630059089147,2047
1630059089151,2048
1630059089155,2048
1630059089159,2049
1630059089163,2051
1630059089167,2052
1630059089171,2054
1630059089175,2054
1630059089179,2054
1630059089183,2054
1630059089187,2055
1630059089191,2055
1630059089195,2055
1630059089199,2056
1630059089203,2056
1630059089207,2057
1630059089211,2056
1630059089215,2056
1630059089219,2055
1630059089223,2055
1630059089227,2055
1630059089231,2056
1630059089235,2058
1630059089239,2059
1630059089243,2060
1630059089247,2057
1630059089251,2045
1630059089255,2022
1630059089259,1992
1630059089263,1966
1630059089267,1954
1630059089271,1960
1630059089275,1982
1630059089279,2010
1630059089283,2035
1630059089287,2050
1630059089291,2057
1630059089295,2058
1630059089299,2058
1630059089303,2059
1630059089307,2059
1630059089311,2059
1630059089315,2058
1630059089319,2058
1630059089323,2058
1630059089327,2059
1630059089331,2058
1630059089335,2057
1630059089339,2057
1630059089343,2056
1630059089347,2056
1630059089351,2056
1630059089355,2056
1630059089359,2057
1630059089363,2057
1630059089367,2056
1630059089371,2055
1630059089375,2054
1630059089379,2054
1630059089383,2053
1630059089387,2053
1630059089391,2053
1630059089395,2053
1630059089399,2052
1630059089403,2052
1630059089407,2051
1630059089411,2051
1630059089415,2050
1630059089419,2048
1630059089423,2048
1630059089427,2048
1630059089431,2047
1630059089435,2047
1630059089439,2047
1630059089443,2046
1630059089447,2045
1630059089451,2044
1630059089455,2043
1630059089459,2042
1630059089463,2041
1630059089467,2041
1630059089471,2040
1630059089475,2040
1630059089479,2039
1630059089483,2039
1630059089487,2039
1630059089491,2039
1630059089495,2039
1630059089499,2039
1630059089503,2039
1630059089507,2040
1630059089511,2041
1630059089515,2042
1630059089519,2043
1630059089523,2045
1630059089527,2046
1630059089531,2047
1630059089535,2048
1630059089539,2049
1630059089543,2050
1630059089547,2052
1630059089551,2052
1630059089555,2053
1630059089559,2054
1630059089563,2055
1630059089567,2055
1630059089571,2055
1630059089575,2055
1630059089579,2054
1630059089583,2054
1630059089587,2054
1630059089591,2054
1630059089595,2055
1630059089599,2055
1630059089603,2056
1630059089607,2057
1630059089611,2057
1630059089615,2057
1630059089619,2056
1630059089623,2056
1630059089627,2056
1630059089631,2057
1630059089635,2057
1630059089639,2057
1630059089643,2057
1630059089647,2058
1630059089651,2057
1630059089655,2057
1630059089659,2056
1630059089663,2056
1630059089667,2056
1630059089671,2056
1630059089675,2056
1630059089679,2057
1630059089683,2057
1630059089687,2057
1630059089691,2057
1630059089695,2057
1630059089699,2057
1630059089703,2057
1630059089707,2057
1630059089711,2057
1630059089715,2057
1630059089719,2057
1630059089723,2057
1630059089727,2057
1630059089731,2057
1630059089735,2056
1630059089739,2056
1630059089743,2056
1630059089747,2056
1630059089751,2055
1630059089755,2055
1630059089759,2054
1630059089763,2052
1630059089767,2052
1630059089771,2051
1630059089775,2051
1630059089779,2051
1630059089783,2051
1630059089787,2051
1630059089791,2052
1630059089795,2054
1630059089799,2056
1630059089803,2058
1630059089807,2060
1630059089811,2060
1630059089815,2060
1630059089819,2060
1630059089823,2060
1630059089827,2060
1630059089831,2060
1630059089835,2060
1630059089839,2060
1630059089843,2060
1630059089847,2060
1630059089851,2060
1630059089855,2060
1630059089859,2059
1630059089863,2059
1630059089867,2060
1630059089871,2063
1630059089875,2065
1630059089879,2065
1630059089883,2057
1630059089887,2040
1630059089891,2012
1630059089895,1982
1630059089899,1961
1630059089903,1956
1630059089907,1971
1630059089911,1999
1630059089915,2029
1630059089919,2051
1630059089923,2064
1630059089927,2068
1630059089931,2067
1630059089935,2066
1630059089939,2065
1630059089943,2063
1630059089947,2061
1630059089951,2060
1630059089955,2060
1630059089959,2061
1630059089963,2061
1630059089967,2062
1630059089971,2061
1630059089975,2061
1630059089979,2060
1630059089983,2059
1630059089987,2058
1630059089991,2057
1630059089995,2058
1630059089999,2058
1630059090003,2058
1630059090007,2058
1630059090011,2058
1630059090015,2057
1630059090019,2055
1630059090023,2054
1630059090027,2054
1630059090031,2054
1630059090035,2054
1630059090039,2055
1630059090043,2055
1630059090047,2054
1630059090051,2053
1630059090055,2053
1630059090059,2051
1630059090063,2051
1630059090067,2050
1630059090071,2049
1630059090075,2048
1630059090079,2048
1630059090083,2047
1630059090087,2046
1630059090091,2045
1630059090095,2044
1630059090099,2043
1630059090103,2042
1630059090107,2041
1630059090111,2041
1630059090115,2041
1630059090119,2042
1630059090123,2042
1630059090127,2042
1630059090131,2041
1630059090135,2041
1630059090139,2041
1630059090143,2042
1630059090147,2044
1630059090151,2046
1630059090155,2048
1630059090159,2049
1630059090163,2050
1630059090167,2051
1630059090171,2053
1630059090175,2055
1630059090179,2056
1630059090183,2056
1630059090187,2057
1630059090191,2057
1630059090195,2058
1630059090199,2059
1630059090203,2059
1630059090207,2059
1630059090211,2059
1630059090215,2058
1630059090219,2057
1630059090223,2057
1630059090227,2058
1630059090231,2058
1630059090235,2059
1630059090239,2060
1630059090243,2061
1630059090247,2061
1630059090251,2060
1630059090255,2059
1630059090259,2057
1630059090263,2057
1630059090267,2057
1630059090271,2057
1630059090275,2057
1630059090279,2057
1630059090283,2057
1630059090287,2056
1630059090291,2056
1630059090295,2056
1630059090299,2056
1630059090303,2056
1630059090307,2056
1630059090311,2057
1630059090315,2057
1630059090319,2057
1630059090323,2057
1630059090327,2058
1630059090331,2058
1630059090335,2058
1630059090339,2057
1630059090343,2056
1630059090347,2055
1630059090351,2055
1630059090355,2056
1630059090359,2057
1630059090363,2058
1630059090367,2058
1630059090371,2057
1630059090375,2055
1630059090379,2053
1630059090383,2051
1630059090387,2051
1630059090391,2051
1630059090395,2051
1630059090399,2052
1630059090403,2052
1630059090407,2053
1630059090411,2054
1630059090415,2055
1630059090419,2056
1630059090423,2057
1630059090427,2059
1630059090431,2059
1630059090435,2060
1630059090439,2060
1630059090443,2060
1630059090447,2059
1630059090451,2058
1630059090455,2058
1630059090459,2058
1630059090463,2059
1630059090467,2060
1630059090471,2060
1630059090475,2060
1630059090479,2059
1630059090483,2059
1630059090487,2060
1630059090491,2062
1630059090495,2064
1630059090499,2060
1630059090503,2047
1630059090507,2022
1630059090511,1991
1630059090515,1966
1630059090519,1955
1630059090523,1965
1630059090527,1991
1630059090531,2022
1630059090535,2048
1630059090539,2062
1630059090543,2068
1630059090547,2069
1630059090551,2068
1630059090555,2067
1630059090559,2066
1630059090563,2064
1630059090567,2062
1630059090571,2061
1630059090575,2060
1630059090579,2060
1630059090583,2060
1630059090587,2060
1630059090591,2060
1630059090595,2060
1630059090599,2060
1630059090603,2060
1630059090607,2059
1630059090611,2059
1630059090615,2058
1630059090619,2058
1630059090623,2057
1630059090627,2056
1630059090631,2056
1630059090635,2056
1630059090639,2056
1630059090643,2056
1630059090647,2056
1630059090651,2055
1630059090655,2054
1630059090659,2053
1630059090663,2053
1630059090667,2053
1630059090671,2052
1630059090675,2051
1630059090679,2050
1630059090683,2049
1630059090687,2048
1630059090691,2048
1630059090695,2048
1630059090699,2046
1630059090703,2045
1630059090707,2044
1630059090711,2043
1630059090715,2043
1630059090719,2042
1630059090723,2042
1630059090727,2041
1630059090731,2041
1630059090735,2042
1630059090739,2042
1630059090743,2042
1630059090747,2041
1630059090751,2041
1630059090755,2041
1630059090759,2043
1630059090763,2045
1630059090767,2047
1630059090771,2048
1630059090775,2050
1630059090779,2051
1630059090783,2053
1630059090787,2054
1630059090791,2054
1630059090795,2056
1630059090799,2057
1630059090803,2058
1630059090807,2059
1630059090811,2060
1630059090815,2060
1630059090819,2060
1630059090823,2060
1630059090827,2061
1630059090831,2061
1630059090835,2061
1630059090839,2061
1630059090843,2061
1630059090847,2061
1630059090851,2062
1630059090855,2062
1630059090859,2061
1630059090863,2060
1630059090867,2059
1630059090871,2058
1630059090875,2058
1630059090879,2058
1630059090883,2059
1630059090887,2059
1630059090891,2060
1630059090895,2060
1630059090899,2060
1630059090903,2059
1630059090907,2058
1630059090911,2057
1630059090915,2057
1630059090919,2058
1630059090923,2059
1630059090927,2059
1630059090931,2059
1630059090935,2059
1630059090939,2059
1630059090943,2058
1630059090947,2058
1630059090951,2058
1630059090955,2058
1630059090959,2058
1630059090963,2057
1630059090967,2057
1630059090971,2057
1630059090975,2057
1630059090979,2057
1630059090983,2057
1630059090987,2056
1630059090991,2055
1630059090995,2054
1630059090999,2053
1630059091003,2052
1630059091007,2052
1630059091011,2052
1630059091015,2052
1630059091019,2053
1630059091023,2054
1630059091027,2056
1630059091031,2058
1630059091035,2060
1630059091039,2061
1630059091043,2062
1630059091047,2061
1630059091051,2061
1630059091055,2060
1630059091059,2060
1630059091063,2060
1630059091067,2060
1630059091071,2060
1630059091075,2060
1630059091079,2060
1630059091083,2061
1630059091087,2061
1630059091091,2061
1630059091095,2062
1630059091099,2062
1630059091103,2064
1630059091107,2064
1630059091111,2059
1630059091115,2046
1630059091119,2021
1630059091123,1991
1630059091127,1966
1630059091131,1956
1630059091135,1967
1630059091139,1993
1630059091143,2025
1630059091147,2051
1630059091151,2067
1630059091155,2074
1630059091159,2073
1630059091163,2070
1630059091167,2068
1630059091171,2065
1630059091175,2063
1630059091179,2062
1630059091183,2061
1630059091187,2061
1630059091191,2061
1630059091195,2062
1630059091199,2062
1630059091203,2062
1630059091207,2062
1630059091211,2061
1630059091215,2060
1630059091219,2059
1630059091223,2058
1630059091227,2058
1630059091231,2058
1630059091235,2058
1630059091239,2058
1630059091243,2059
1630059091247,2058
1630059091251,2057
1630059091255,2056
1630059091259,2055
1630059091263,2055
1630059091267,2054
1630059091271,2054
1630059091275,2054
1630059091279,2054
1630059091283,2053
1630059091287,2052
1630059091291,2052
1630059091295,2051
1630059091299,2049
1630059091303,2048
1630059091307,2048
1630059091311,2047
1630059091315,2047
1630059091319,2046
1630059091323,2045
1630059091327,2044
1630059091331,2043
1630059091335,2043
1630059091339,2043
1630059091343,2043
1630059091347,2042
1630059091351,2042
1630059091355,2042
1630059091359,2042
1630059091363,2043
1630059091367,2044
1630059091371,2045
1630059091375,2046
1630059091379,2047
1630059091383,2048
1630059091387,2049
1630059091391,2051
1630059091395,2054
1630059091399,2056
1630059091403,2057
1630059091407,2058
1630059091411,2058
1630059091415,2059
1630059091419,2059
1630059091423,2059
1630059091427,2060
1630059091431,2060
1630059091435,2060
1630059091439,2060
1630059091443,2061
1630059091447,2061
1630059091451,2061
1630059091455,2061
1630059091459,2060
1630059091463,2060
1630059091467,2060
1630059091471,2060
1630059091475,2060
1630059091479,2060
1630059091483,2060
1630059091487,2060
1630059091491,2059
1630059091495,2059
1630059091499,2058
1630059091503,2058
1630059091507,2058
1630059091511,2058
1630059091515,2059
1630059091519,2059
1630059091523,2059
1630059091527,2059
1630059091531,2058
1630059091535,2057
1630059091539,2057
1630059091543,2057
1630059091547,2057
1630059091551,2058
1630059091555,2058
1630059091559,2059
1630059091563,2059
1630059091567,2058
1630059091571,2058
1630059091575,2058
1630059091579,2057
1630059091583,2057
1630059091587,2057
1630059091591,2056
1630059091595,2055
1630059091599,2054
1630059091603,2053
1630059091607,2053
1630059091611,2053
1630059091615,2053
1630059091619,2053
1630059091623,2053
1630059091627,2053
1630059091631,2055
1630059091635,2056
1630059091639,2058
1630059091643,2060
1630059091647,2060
1630059091651,2060
1630059091655,2060
1630059091659,2059
1630059091663,2059
1630059091667,2059
1630059091671,2059
1630059091675,2060
1630059091679,2060
1630059091683,2060
1630059091687,2060
1630059091691,2059
1630059091695,2059
1630059091699,2059
1630059091703,2060
1630059091707,2062
1630059091711,2063
1630059091715,2063
1630059091719,2055
1630059091723,2037
1630059091727,2010
1630059091731,1980
1630059091735,1959
1630059091739,1956
1630059091743,1972
1630059091747,2000
1630059091751,2031
1630059091755,2053
1630059091759,2065
1630059091763,2069
1630059091767,2068
1630059091771,2066
1630059091775,2064
1630059091779,2062
1630059091783,2060
1630059091787,2059
1630059091791,2059
1630059091795,2059
1630059091799,2059
1630059091803,2059
1630059091807,2059
1630059091811,2058
1630059091815,2058
1630059091819,2057
1630059091823,2056
1630059091827,2056
1630059091831,2055
1630059091835,2055
1630059091839,2056
1630059091843,2056
1630059091847,2056
1630059091851,2056
1630059091855,2055
1630059091859,2053
1630059091863,2052
1630059091867,2052
1630059091871,2051
1630059091875,2052
1630059091879,2052
1630059091883,2051
1630059091887,2051
1630059091891,2050
1630059091895,2048
1630059091899,2048
1630059091903,2047
1630059091907,2046
1630059091911,2045
1630059091915,2044
1630059091919,2044
1630059091923,2043
1630059091927,2043
1630059091931,2042
1630059091935,2041
1630059091939,2039
1630059091943,2039
1630059091947,2038
1630059091951,2038
1630059091955,2038
1630059091959,2039
1630059091963,2039
1630059091967,2039
1630059091971,2039
1630059091975,2040
1630059091979,2040
1630059091983,2041
1630059091987,2042
1630059091991,2044
1630059091995,2045
1630059091999,2047
1630059092003,2048
1630059092007,2050
1630059092011,2051
1630059092015,2052
1630059092019,2053
1630059092023,2053
1630059092027,2053
1630059092031,2054
1630059092035,2054
1630059092039,2055
1630059092043,2055
1630059092047,2056
1630059092051,2056
1630059092055,2056
1630059092059,2056
1630059092063,2056
1630059092067,2055
1630059092071,2055
1630059092075,2055
1630059092079,2055
1630059092083,2055
1630059092087,2055
1630059092091,2055
1630059092095,2054
1630059092099,2053
1630059092103,2053
1630059092107,2052
1630059092111,2052
1630059092115,2053
1630059092119,2053
1630059092123,2054
1630059092127,2053
1630059092131,2053
1630059092135,2052
1630059092139,2051
1630059092143,2051
1630059092147,2051
1630059092151,2052
1630059092155,2052
1630059092159,2052
1630059092163,2053
1630059092167,2053
1630059092171,2053
1630059092175,2053
1630059092179,2053
1630059092183,2052
1630059092187,2052
1630059092191,2052
1630059092195,2052
1630059092199,2052
1630059092203,2052
1630059092207,2052
1630059092211,2052
1630059092215,2052
1630059092219,2052
1630059092223,2052
1630059092227,2051
1630059092231,2050
1630059092235,2049
1630059092239,2048
1630059092243,2048
1630059092247,2048
1630059092251,2048
1630059092255,2048
1630059092259,2047
1630059092263,2048
1630059092267,2048
1630059092271,2050
1630059092275,2052
1630059092279,2054
1630059092283,2055
1630059092287,2056
1630059092291,2056
1630059092295,2055
1630059092299,2055
1630059092303,2054
1630059092307,2054
1630059092311,2054
1630059092315,2055
1630059092319,2055
1630059092323,2055
1630059092327,2055
1630059092331,2055
1630059092335,2055
1630059092339,2055
1630059092343,2056
1630059092347,2058
1630059092351,2059
1630059092355,2058
1630059092359,2049
1630059092363,2030
1630059092367,2002
1630059092371,1974
1630059092375,1955
1630059092379,1955
1630059092383,1973
1630059092387,2002
1630059092391,2030
1630059092395,2050
1630059092399,2060
1630059092403,2063
1630059092407,2063
1630059092411,2061
1630059092415,2060
1630059092419,2058
1630059092423,2056
1630059092427,2055
1630059092431,2055
1630059092435,2056
1630059092439,2057
1630059092443,2057
1630059092447,2057
1630059092451,2056
1630059092455,2055
1630059092459,2054
1630059092463,2053
1630059092467,2053
1630059092471,2053
1630059092475,2053
1630059092479,2053
1630059092483,2053
1630059092487,2053
1630059092491,2053
1630059092495,2052
1630059092499,2051
1630059092503,2051
1630059092507,2050
1630059092511,2049
1630059092515,2048
1630059092519,2048
1630059092523,2048
1630059092527,2048
1630059092531,2048
1630059092535,2047
1630059092539,2046
1630059092543,2045
1630059092547,2044
1630059092551,2043
1630059092555,2043
1630059092559,2042
1630059092563,2041
1630059092567,2040
1630059092571,2039
1630059092575,2039
1630059092579,2038
1630059092583,2037
1630059092587,2037
1630059092591,2037
1630059092595,2037
1630059092599,2037
1630059092603,2038
1630059092607,2038
1630059092611,2038
1630059092615,2037
1630059092619,2038
1630059092623,2039
1630059092627,2040
1630059092631,2042
1630059092635,2044
1630059092639,2046
1630059092643,2048
1630059092647,2049
1630059092651,2050
1630059092655,2051
1630059092659,2052
1630059092663,2052
1630059092667,2052
1630059092671,2052
1630059092675,2053
1630059092679,2053
1630059092683,2054
1630059092687,2054
1630059092691,2054
1630059092695,2054
1630059092699,2054
1630059092703,2053
1630059092707,2053
1630059092711,2053
1630059092715,2053
1630059092719,2054
1630059092723,2054
1630059092727,2054
1630059092731,2054
1630059092735,2053
1630059092739,2052
1630059092743,2052
1630059092747,2052
1630059092751,2052
1630059092755,2053
1630059092759,2053
1630059092763,2053
1630059092767,2053
1630059092771,2052
1630059092775,2053
1630059092779,2052
1630059092783,2052
1630059092787,2052
1630059092791,2051
1630059092795,2052
1630059092799,2052
1630059092803,2053
1630059092807,2053
1630059092811,2053
1630059092815,2052
1630059092819,2052
1630059092823,2052
1630059092827,2052
1630059092831,2052
1630059092835,2052
1630059092839,2053
1630059092843,2053
1630059092847,2053
1630059092851,2054
1630059092855,2054
1630059092859,2054
1630059092863,2053
1630059092867,2053
1630059092871,2053
1630059092875,2054
1630059092879,2054
1630059092883,2054
1630059092887,2054
1630059092891,2054
1630059092895,2054
1630059092899,2054
1630059092903,2053
1630059092907,2053
1630059092911,2053
1630059092915,2054
1630059092919,2054
1630059092923,2055
1630059092927,2054
1630059092931,2053
1630059092935,2051
1630059092939,2049
1630059092943,2048
1630059092947,2048
1630059092951,2048
1630059092955,2048
1630059092959,2049
1630059092963,2049
1630059092967,2049
1630059092971,2049
1630059092975,2050
1630059092979,2052
1630059092983,2053
1630059092987,2055
1630059092991,2056
1630059092995,2056
1630059092999,2056
1630059093003,2057
1630059093007,2057
1630059093011,2057
1630059093015,2057
1630059093019,2057
1630059093023,2056
1630059093027,2056
1630059093031,2055
1630059093035,2056
1630059093039,2056
1630059093043,2058
1630059093047,2060
1630059093051,2061
1630059093055,2061
1630059093059,2054
1630059093063,2038
1630059093067,2012
1630059093071,1983
1630059093075,1962
1630059093079,1957
1630059093083,1970
1630059093087,1995
1630059093091,2023
1630059093095,2044
1630059093099,2055
1630059093103,2059
1630059093107,2060
1630059093111,2060
1630059093115,2061
1630059093119,2061
1630059093123,2060
1630059093127,2058
1630059093131,2057
1630059093135,2057
1630059093139,2057
1630059093143,2057
1630059093147,2057
1630059093151,2058
1630059093155,2058
1630059093159,2058
1630059093163,2058
1630059093167,2058
1630059093171,2057
1630059093175,2056
1630059093179,2055
1630059093183,2055
1630059093187,2055
1630059093191,2055
1630059093195,2055
1630059093199,2055
1630059093203,2055
1630059093207,2054
1630059093211,2054
1630059093215,2053
1630059093219,2052
1630059093223,2051
1630059093227,2050
1630059093231,2049
1630059093235,2049
1630059093239,2049
1630059093243,2049
1630059093247,2048
1630059093251,2048
1630059093255,2047
1630059093259,2046
1630059093263,2045
1630059093267,2044
1630059093271,2043
1630059093275,2043
1630059093279,2042
1630059093283,2042
1630059093287,2041
1630059093291,2041
1630059093295,2040
1630059093299,2040
1630059093303,2040
1630059093307,2040
1630059093311,2040
1630059093315,2041
1630059093319,2042
1630059093323,2043
1630059093327,2045
1630059093331,2046
1630059093335,2047
1630059093339,2048
1630059093343,2049
1630059093347,2050
1630059093351,2052
1630059093355,2053
1630059093359,2054
1630059093363,2056
1630059093367,2056
1630059093371,2057
1630059093375,2057
1630059093379,2057
1630059093383,2057
1630059093387,2057
1630059093391,2057
1630059093395,2058
1630059093399,2058
1630059093403,2059
1630059093407,2059
1630059093411,2058
1630059093415,2058
1630059093419,2057
1630059093423,2057
1630059093427,2056
1630059093431,2056
1630059093435,2057
1630059093439,2057
1630059093443,2057
1630059093447,2058
1630059093451,2058
1630059093455,2057
1630059093459,2057
1630059093463,2056
1630059093467,2056
1630059093471,2056
1630059093475,2056
1630059093479,2056
1630059093483,2057
1630059093487,2057
1630059093491,2057
1630059093495,2057
1630059093499,2056
1630059093503,2056
1630059093507,2055
1630059093511,2055
1630059093515,2055
1630059093519,2056
1630059093523,2056
1630059093527,2057
1630059093531,2057
1630059093535,2056
1630059093539,2056
1630059093543,2056
1630059093547,2056
1630059093551,2056
1630059093555,2056
1630059093559,2057
1630059093563,2056
1630059093567,2057
1630059093571,2057
1630059093575,2057
1630059093579,2057
1630059093583,2056
1630059093587,2056
1630059093591,2056
1630059093595,2056
1630059093599,2056
1630059093603,2056
1630059093607,2056
1630059093611,2055
1630059093615,2055
1630059093619,2055
1630059093623,2055
1630059093627,2055
1630059093631,2054
1630059093635,2053
1630059093639,2052
1630059093643,2052
1630059093647,2052
1630059093651,2052
1630059093655,2052
1630059093659,2051
1630059093663,2050
1630059093667,2050
1630059093671,2051
1630059093675,2053
1630059093679,2055
1630059093683,2057
1630059093687,2058
1630059093691,2058
1630059093695,2058
1630059093699,2058
1630059093703,2058
1630059093707,2058
1630059093711,2058
1630059093715,2058
1630059093719,2058
1630059093723,2058
1630059093727,2058
1630059093731,2058
1630059093735,2058
1630059093739,2058
1630059093743,2058
1630059093747,2061
1630059093751,2063
1630059093755,2063
1630059093759,2055
1630059093763,2036
1630059093767,2008
1630059093771,1978
1630059093775,1959
1630059093779,1957
1630059093783,1976
1630059093787,2005
1630059093791,2036
1630059093795,2057
1630059093799,2068
1630059093803,2070
1630059093807,2068
1630059093811,2065
1630059093815,2064
1630059093819,2062
1630059093823,2060
1630059093827,2059
1630059093831,2059
1630059093835,2059
1630059093839,2059
1630059093843,2059
1630059093847,2059
1630059093851,2059
1630059093855,2058
1630059093859,2058
1630059093863,2058
1630059093867,2057
1630059093871,2056
1630059093875,2056
1630059093879,2056
1630059093883,2056
1630059093887,2056
1630059093891,2056
1630059093895,2055
1630059093899,2055
1630059093903,2054
1630059093907,2054
1630059093911,2054
1630059093915,2053
1630059093919,2053
1630059093923,2052
1630059093927,2051
1630059093931,2051
1630059093935,2050
1630059093939,2049
1630059093943,2048
1630059093947,2048
1630059093951,2047
1630059093955,2047
1630059093959,2047
1630059093963,2046
1630059093967,2045
1630059093971,2043
1630059093975,2041
1630059093979,2041
1630059093983,2040
1630059093987,2040
1630059093991,2040
1630059093995,2041
1630059093999,2041
1630059094003,2040
1630059094007,2040
1630059094011,2040
1630059094015,2041
1630059094019,2042
1630059094023,2043
1630059094027,2045
1630059094031,2047
1630059094035,2048
1630059094039,2050
1630059094043,2052
1630059094047,2053
1630059094051,2054
1630059094055,2055
1630059094059,2056
1630059094063,2056
1630059094067,2057
1630059094071,2058
1630059094075,2059
1630059094079,2059
1630059094083,2059
1630059094087,2060
1630059094091,2060
1630059094095,2060
1630059094099,2059
1630059094103,2059
1630059094107,2059
1630059094111,2060
1630059094115,2060
1630059094119,2061
1630059094123,2061
1630059094127,2060
1630059094131,2058
1630059094135,2057
1630059094139,2057
1630059094143,2057
1630059094147,2057
1630059094151,2056
1630059094155,2056
1630059094159,2056
1630059094163,2056
1630059094167,2057
1630059094171,2057
1630059094175,2058
1630059094179,2057
1630059094183,2056
1630059094187,2055
1630059094191,2055
1630059094195,2055
1630059094199,2056
1630059094203,2056
1630059094207,2056
1630059094211,2055
1630059094215,2055
1630059094219,2056
1630059094223,2057
1630059094227,2057
1630059094231,2057
1630059094235,2057
1630059094239,2056
1630059094243,2056
1630059094247,2056
1630059094251,2057
1630059094255,2057
1630059094259,2057
1630059094263,2056
1630059094267,2055
1630059094271,2054
1630059094275,2055
1630059094279,2056
1630059094283,2058
1630059094287,2057
1630059094291,2056
1630059094295,2054
1630059094299,2051
1630059094303,2050
1630059094307,2050
1630059094311,2051
1630059094315,2052
1630059094319,2052
1630059094323,2052
1630059094327,2052
1630059094331,2053
1630059094335,2054
1630059094339,2055
1630059094343,2056
1630059094347,2057
1630059094351,2058
1630059094355,2058
1630059094359,2058
1630059094363,2058
1630059094367,2059
1630059094371,2058
1630059094375,2058
1630059094379,2058
1630059094383,2058
1630059094387,2058
1630059094391,2059
1630059094395,2059
1630059094399,2059
1630059094403,2059
1630059094407,2061
1630059094411,2062
1630059094415,2062
1630059094419,2056
1630059094423,2040
1630059094427,2013
1630059094431,1983
1630059094435,1960
1630059094439,1955
1630059094443,1969
1630059094447,1998
1630059094451,2031
1630059094455,2055
1630059094459,2069
1630059094463,2073
1630059094467,2072
1630059094471,2069
1630059094475,2067
1630059094479,2064
1630059094483,2062
1630059094487,2060
1630059094491,2059
1630059094495,2058
1630059094499,2058
1630059094503,2058
1630059094507,2058
1630059094511,2058
1630059094515,2057
1630059094519,2057
1630059094523,2056
1630059094527,2056
1630059094531,2056
1630059094535,2056
1630059094539,2055
1630059094543,2055
1630059094547,2054
1630059094551,2053
1630059094555,2052
1630059094559,2052
1630059094563,2052
1630059094567,2053
1630059094571,2054
1630059094575,2053
1630059094579,2052
1630059094583,2051
1630059094587,2050
1630059094591,2049
1630059094595,2048
1630059094599,2048
1630059094603,2048
1630059094607,2047
1630059094611,2046
1630059094615,2045
1630059094619,2043
1630059094623,2042
1630059094627,2041
1630059094631,2041
1630059094635,2040
1630059094639,2040
1630059094643,2040
1630059094647,2040
1630059094651,2039
1630059094655,2038
1630059094659,2038
1630059094663,2037
1630059094667,2037
1630059094671,2038
1630059094675,2039
1630059094679,2041
1630059094683,2043
1630059094687,2044
1630059094691,2046
1630059094695,2048
1630059094699,2049
1630059094703,2050
1630059094707,2052
1630059094711,2053
1630059094715,2054
1630059094719,2056
1630059094723,2057
1630059094727,2059
1630059094731,2059
1630059094735,2059
1630059094739,2058
1630059094743,2058
1630059094747,2058
1630059094751,2059
1630059094755,2060
1630059094759,2061
1630059094763,2061
1630059094767,2061
1630059094771,2060
1630059094775,2059
1630059094779,2058
1630059094783,2058
1630059094787,2058
1630059094791,2058
1630059094795,2059
1630059094799,2059
1630059094803,2058
1630059094807,2057
1630059094811,2056
1630059094815,2055
1630059094819,2055
1630059094823,2056
1630059094827,2056
1630059094831,2057
1630059094835,2057
1630059094839,2057
1630059094843,2056
1630059094847,2056
1630059094851,2055
1630059094855,2055
1630059094859,2055
1630059094863,2055
1630059094867,2055
1630059094871,2055
1630059094875,2056
1630059094879,2056
1630059094883,2057
1630059094887,2057
1630059094891,2056
1630059094895,2056
1630059094899,2056
1630059094903,2056
1630059094907,2056
1630059094911,2056
1630059094915,2057
1630059094919,2057
1630059094923,2056
1630059094927,2056
1630059094931,2055
1630059094935,2055
1630059094939,2055
1630059094943,2056
1630059094947,2056
1630059094951,2056
1630059094955,2055
1630059094959,2054
1630059094963,2053
1630059094967,2052
1630059094971,2052
1630059094975,2052
1630059094979,2051
1630059094983,2051
1630059094987,2051
1630059094991,2051
1630059094995,2052
1630059094999,2054
1630059095003,2056
1630059095007,2058
1630059095011,2059
1630059095015,2060
1630059095019,2059
1630059095023,2058
1630059095027,2057
1630059095031,2057
1630059095035,2058
1630059095039,2058
1630059095043,2059
1630059095047,2059
1630059095051,2058
1630059095055,2057
1630059095059,2057
1630059095063,2058
1630059095067,2060
1630059095071,2062
1630059095075,2063
1630059095079,2061
1630059095083,2050
1630059095087,2029
1630059095091,1999
1630059095095,1971
1630059095099,1954
1630059095103,1957
1630059095107,1979
1630059095111,2011
1630059095115,2041
1630059095119,2061
1630059095123,2070
1630059095127,2071
1630059095131,2068
1630059095135,2066
1630059095139,2064
1630059095143,2062
1630059095147,2060
1630059095151,2059
1630059095155,2059
1630059095159,2060
1630059095163,2061
1630059095167,2061
1630059095171,2061
1630059095175,2059
1630059095179,2058
1630059095183,2057
1630059095187,2057
1630059095191,2057
1630059095195,2058
1630059095199,2058
1630059095203,2058
1630059095207,2057
1630059095211,2056
1630059095215,2056
1630059095219,2055
1630059095223,2054
1630059095227,2054
1630059095231,2054
1630059095235,2054
1630059095239,2054
1630059095243,2054
1630059095247,2054
1630059095251,2053
1630059095255,2052
1630059095259,2051
1630059095263,2049
1630059095267,2048
1630059095271,2048
1630059095275,2048
1630059095279,2048
1630059095283,2048
1630059095287,2047
1630059095291,2045
1630059095295,2044
1630059095299,2042
1630059095303,2041
1630059095307,2041
1630059095311,2041
1630059095315,2041
1630059095319,2041
1630059095323,2041
1630059095327,2040
1630059095331,2040
1630059095335,2041
1630059095339,2041
1630059095343,2043
1630059095347,2044
1630059095351,2046
1630059095355,2048
1630059095359,2049
1630059095363,2051
1630059095367,2053
1630059095371,2055
1630059095375,2056
1630059095379,2057
1630059095383,2058
1630059095387,2058
1630059095391,2058
1630059095395,2058
1630059095399,2059
1630059095403,2059
1630059095407,2060
1630059095411,2060
1630059095415,2060
1630059095419,2060
1630059095423,2060
1630059095427,2060
1630059095431,2060
1630059095435,2060
1630059095439,2060
1630059095443,2060
1630059095447,2060
1630059095451,2060
1630059095455,2059
1630059095459,2058
1630059095463,2058
1630059095467,2058
1630059095471,2058
1630059095475,2058
1630059095479,2058
1630059095483,2058
1630059095487,2058
1630059095491,2058
1630059095495,2058
1630059095499,2057
1630059095503,2057
1630059095507,2056
1630059095511,2056
1630059095515,2056
1630059095519,2057
1630059095523,2057
1630059095527,2058
1630059095531,2058
1630059095535,2057
1630059095539,2056
1630059095543,2056
1630059095547,2056
1630059095551,2056
1630059095555,2056
1630059095559,2057
1630059095563,2058
1630059095567,2058
1630059095571,2058
1630059095575,2058
1630059095579,2057
1630059095583,2057
1630059095587,2056
1630059095591,2056
1630059095595,2057
1630059095599,2057
1630059095603,2057
1630059095607,2057
1630059095611,2057
1630059095615,2057
1630059095619,2056
1630059095623,2056
1630059095627,2056
1630059095631,2056
1630059095635,2057
1630059095639,2057
1630059095643,2057
1630059095647,2057
1630059095651,2056
1630059095655,2054
1630059095659,2053
1630059095663,2052
1630059095667,2051
1630059095671,2051
1630059095675,2051
1630059095679,2052
1630059095683,2052
1630059095687,2054
1630059095691,2055
1630059095695,2056
1630059095699,2057
1630059095703,2057
1630059095707,2057
1630059095711,2057
1630059095715,2058
1630059095719,2058
1630059095723,2059
1630059095727,2059
1630059095731,2059
1630059095735,2059
1630059095739,2059
1630059095743,2058
1630059095747,2058
1630059095751,2058
1630059095755,2058
1630059095759,2058
1630059095763,2060
1630059095767,2063
1630059095771,2065
1630059095775,2063
1630059095779,2053
1630059095783,2032
1630059095787,2002
1630059095791,1973
1630059095795,1955
1630059095799,1957
1630059095803,1977
1630059095807,2007
1630059095811,2036
1630059095815,2056
1630059095819,2066
1630059095823,2068
1630059095827,2067
1630059095831,2065
1630059095835,2064
1630059095839,2063
1630059095843,2061
1630059095847,2061
1630059095851,2061
1630059095855,2061
1630059095859,2060
1630059095863,2059
1630059095867,2059
1630059095871,2058
1630059095875,2058
1630059095879,2058
1630059095883,2058
1630059095887,2058
1630059095891,2058
1630059095895,2058
1630059095899,2057
1630059095903,2056
1630059095907,2056
1630059095911,2056
1630059095915,2056
1630059095919,2056
1630059095923,2056
1630059095927,2055
1630059095931,2055
1630059095935,2054
1630059095939,2053
1630059095943,2052
1630059095947,2052
1630059095951,2051
1630059095955,2052
1630059095959,2052
1630059095963,2051
1630059095967,2050
1630059095971,2049
1630059095975,2048
1630059095979,2047
1630059095983,2046
1630059095987,2045
1630059095991,2044
1630059095995,2044
1630059095999,2043
1630059096003,2043
1630059096007,2042
1630059096011,2041
1630059096015,2041
1630059096019,2040
1630059096023,2039
1630059096027,2040
1630059096031,2040
1630059096035,2042
1630059096039,2043
1630059096043,2044
1630059096047,2046
1630059096051,2047
1630059096055,2048
1630059096059,2050
1630059096063,2052
1630059096067,2053
1630059096071,2055
1630059096075,2056
1630059096079,2058
1630059096083,2059
1630059096087,2059
1630059096091,2059
1630059096095,2059
1630059096099,2059
1630059096103,2059
1630059096107,2059
1630059096111,2059
1630059096115,2060
1630059096119,2060
1630059096123,2061
1630059096127,2061
1630059096131,2060
1630059096135,2060
1630059096139,2059
1630059096143,2059
1630059096147,2059
1630059096151,2059
1630059096155,2060
1630059096159,2060
1630059096163,2059
1630059096167,2059
1630059096171,2059
1630059096175,2059
1630059096179,2058
1630059096183,2058
1630059096187,2058
1630059096191,2058
1630059096195,2058
1630059096199,2058
1630059096203,2058
1630059096207,2058
1630059096211,2058
1630059096215,2057
1630059096219,2056
1630059096223,2056
1630059096227,2056
1630059096231,2056
1630059096235,2057
1630059096239,2058
1630059096243,2057
1630059096247,2057
1630059096251,2057
1630059096255,2057
1630059096259,2056
1630059096263,2057
1630059096267,2057
1630059096271,2057
1630059096275,2058
1630059096279,2057
1630059096283,2057
1630059096287,2057
1630059096291,2057
1630059096295,2057
1630059096299,2057
1630059096303,2056
1630059096307,2056
1630059096311,2057
1630059096315,2057
1630059096319,2058
1630059096323,2058
1630059096327,2058
1630059096331,2058
1630059096335,2058
1630059096339,2057
1630059096343,2057
1630059096347,2056
1630059096351,2056
1630059096355,2057
1630059096359,2057
1630059096363,2058
1630059096367,2058
1630059096371,2058
1630059096375,2057
1630059096379,2057
1630059096383,2057
1630059096387,2057
1630059096391,2057
1630059096395,2057
1630059096399,2057
1630059096403,2057
1630059096407,2057
1630059096411,2057
1630059096415,2057
1630059096419,2057
1630059096423,2057
1630059096427,2057
1630059096431,2057
1630059096435,2057
1630059096439,2057
1630059096443,2057
1630059096447,2057
1630059096451,2057
1630059096455,2057
1630059096459,2056
1630059096463,2055
1630059096467,2054
1630059096471,2053
1630059096475,2053
1630059096479,2052
1630059096483,2052
1630059096487,2052
1630059096491,2052
1630059096495,2052
1630059096499,2052
1630059096503,2052
1630059096507,2052
1630059096511,2054
1630059096515,2056
1630059096519,2058
1630059096523,2059
1630059096527,2060
1630059096531,2060
1630059096535,2059
1630059096539,2058
1630059096543,2058
1630059096547,2058
1630059096551,2058
1630059096555,2058
1630059096559,2058
1630059096563,2058
1630059096567,2059
1630059096571,2059
1630059096575,2060
1630059096579,2061
1630059096583,2062
1630059096587,2062
1630059096591,2057
1630059096595,2042
1630059096599,2017
1630059096603,1988
1630059096607,1965
1630059096611,1957
1630059096615,1967
1630059096619,1991
1630059096623,2019
1630059096627,2041
1630059096631,2054
1630059096635,2060
1630059096639,2062
1630059096643,2063
1630059096647,2063
1630059096651,2062
1630059096655,2061
1630059096659,2059
1630059096663,2059
1630059096667,2059
1630059096671,2059
1630059096675,2059
1630059096679,2060
1630059096683,2059
1630059096687,2059
1630059096691,2059
1630059096695,2059
1630059096699,2058
1630059096703,2057
1630059096707,2057
1630059096711,2057
1630059096715,2057
1630059096719,2057
1630059096723,2056
1630059096727,2056
1630059096731,2055
1630059096735,2055
1630059096739,2054
1630059096743,2053
1630059096747,2053
1630059096751,2052
1630059096755,2052
1630059096759,2052
1630059096763,2052
1630059096767,2051
1630059096771,2050
1630059096775,2049
1630059096779,2048
1630059096783,2048
1630059096787,2047
1630059096791,2046
1630059096795,2046
1630059096799,2046
1630059096803,2045
1630059096807,2044
1630059096811,2043
1630059096815,2042
1630059096819,2041
1630059096823,2039
1630059096827,2039
1630059096831,2038
1630059096835,2039
1630059096839,2039
1630059096843,2040
1630059096847,2041
1630059096851,2041
1630059096855,2041
1630059096859,2042
1630059096863,2042
1630059096867,2044
1630059096871,2045
1630059096875,2047
1630059096879,2049
1630059096883,2051
1630059096887,2052
1630059096891,2053
1630059096895,2054
1630059096899,2054
1630059096903,2054
1630059096907,2054
1630059096911,2055
1630059096915,2055
1630059096919,2056
1630059096923,2056
1630059096927,2057
1630059096931,2057
1630059096935,2057
1630059096939,2057
1630059096943,2057
1630059096947,2056
1630059096951,2056
1630059096955,2056
1630059096959,2057
1630059096963,2057
1630059096967,2057
1630059096971,2057
1630059096975,2056
1630059096979,2056
1630059096983,2056
1630059096987,2055
1630059096991,2056
1630059096995,2056
1630059096999,2056
1630059097003,2056
1630059097007,2056
1630059097011,2055
1630059097015,2055
1630059097019,2055
1630059097023,2055
1630059097027,2055
1630059097031,2055
1630059097035,2055
1630059097039,2055
1630059097043,2055
1630059097047,2055
1630059097051,2055
1630059097055,2055
1630059097059,2054
1630059097063,2054
1630059097067,2054
1630059097071,2054
1630059097075,2054
1630059097079,2054
1630059097083,2055
1630059097087,2055
1630059097091,2055
1630059097095,2055
1630059097099,2055
1630059097103,2055
1630059097107,2054
1630059097111,2054
1630059097115,2055
1630059097119,2055
1630059097123,2056
1630059097127,2056
1630059097131,2056
1630059097135,2056
1630059097139,2055
1630059097143,2055
1630059097147,2055
1630059097151,2055
1630059097155,2055
1630059097159,2055
1630059097163,2056
1630059097167,2056
1630059097171,2056
1630059097175,2056
1630059097179,2056
1630059097183,2055
1630059097187,2055
1630059097191,2055
1630059097195,2056
1630059097199,2056
1630059097203,2056
1630059097207,2056
1630059097211,2056
1630059097215,2056
1630059097219,2055
1630059097223,2055
1630059097227,2055
1630059097231,2055
1630059097235,2056
1630059097239,2057
1630059097243,2057
1630059097247,2057
1630059097251,2057
1630059097255,2056
1630059097259,2056
1630059097263,2055
1630059097267,2055
1630059097271,2055
1630059097275,2056
1630059097279,2056
1630059097283,2057
1630059097287,2057
1630059097291,2057
1630059097295,2056
1630059097299,2056
1630059097303,2055
1630059097307,2055
1630059097311,2055
1630059097315,2055
1630059097319,2056
1630059097323,2056
1630059097327,2057
1630059097331,2057
1630059097335,2057
1630059097339,2056
1630059097343,2055
1630059097347,2055
1630059097351,2055
1630059097355,2055
1630059097359,2056
1630059097363,2056
1630059097367,2056
1630059097371,2056
1630059097375,2056
1630059097379,2055
1630059097383,2055
1630059097387,2055
1630059097391,2055
1630059097395,2054
1630059097399,2053
1630059097403,2051
1630059097407,2050
1630059097411,2050
1630059097415,2050
1630059097419,2051
1630059097423,2051
1630059097427,2051
1630059097431,2051
1630059097435,2052
1630059097439,2053
1630059097443,2055
1630059097447,2056
1630059097451,2057
1630059097455,2058
1630059097459,2057
1630059097463,2057
1630059097467,2056
1630059097471,2056
1630059097475,2057
1630059097479,2057
1630059097483,2058
1630059097487,2058
1630059097491,2058
1630059097495,2057
1630059097499,2057
1630059097503,2058
1630059097507,2060
1630059097511,2062
1630059097515,2062
1630059097519,2054
1630059097523,2036
1630059097527,2009
1630059097531,1979
1630059097535,1958
1630059097539,1954
1630059097543,1969
1630059097547,1996
1630059097551,2026
1630059097555,2048
1630059097559,2059
1630059097563,2063
1630059097567,2063
1630059097571,2062
1630059097575,2061
1630059097579,2060
1630059097583,2059
1630059097587,2058
1630059097591,2059
1630059097595,2059
1630059097599,2059
1630059097603,2059
1630059097607,2059
1630059097611,2059
1630059097615,2059
1630059097619,2058
1630059097623,2057
1630059097627,2057
1630059097631,2057
1630059097635,2056
1630059097639,2057
1630059097643,2057
1630059097647,2057
1630059097651,2056
1630059097655,2056
1630059097659,2055
1630059097663,2054
1630059097667,2054
1630059097671,2054
1630059097675,2054
1630059097679,2054
1630059097683,2054
1630059097687,2053
1630059097691,2052
1630059097695,2051
1630059097699,2051
1630059097703,2050
1630059097707,2049
1630059097711,2048
1630059097715,2048
1630059097719,2048
1630059097723,2047
1630059097727,2047
1630059097731,2046
1630059097735,2045
1630059097739,2043
1630059097743,2042
1630059097747,2042
1630059097751,2042
1630059097755,2042
1630059097759,2042
1630059097763,2042
1630059097767,2042
1630059097771,2042
1630059097775,2042
1630059097779,2042
1630059097783,2042
1630059097787,2043
1630059097791,2045
1630059097795,2046
1630059097799,2048
1630059097803,2049
1630059097807,2051
1630059097811,2052
1630059097815,2053
1630059097819,2055
1630059097823,2056
1630059097827,2057
1630059097831,2058
1630059097835,2059
1630059097839,2059
1630059097843,2059
1630059097847,2059
1630059097851,2059
1630059097855,2060
1630059097859,2060
1630059097863,2059
1630059097867,2059
1630059097871,2058
1630059097875,2058
1630059097879,2059
1630059097883,2060
1630059097887,2061
1630059097891,2061
1630059097895,2061
1630059097899,2060
1630059097903,2060
1630059097907,2059
1630059097911,2059
1630059097915,2059
1630059097919,2059
1630059097923,2059
1630059097927,2058
1630059097931,2058
1630059097935,2058
1630059097939,2058
1630059097943,2058
1630059097947,2058
1630059097951,2058
1630059097955,2058
1630059097959,2058
1630059097963,2058
1630059097967,2058
1630059097971,2058
1630059097975,2057
1630059097979,2057
1630059097983,2057
1630059097987,2057
1630059097991,2057
1630059097995,2057
1630059097999,2058
1630059098003,2058
1630059098007,2058
1630059098011,2058
1630059098015,2058
1630059098019,2058
1630059098023,2057
1630059098027,2057
1630059098031,2057
1630059098035,2058
1630059098039,2059
1630059098043,2060
1630059098047,2060
1630059098051,2060
1630059098055,2059
1630059098059,2058
1630059098063,2057
1630059098067,2057
1630059098071,2057
1630059098075,2058
1630059098079,2058
1630059098083,2059
1630059098087,2060
1630059098091,2060
1630059098095,2059
1630059098099,2058
1630059098103,2057
1630059098107,2057
1630059098111,2058
1630059098115,2058
1630059098119,2059
1630059098123,2059
1630059098127,2059
1630059098131,2059
1630059098135,2058
1630059098139,2058
1630059098143,2057
1630059098147,2057
1630059098151,2057
1630059098155,2058
1630059098159,2058
1630059098163,2058
1630059098167,2058
1630059098171,2058
1630059098175,2058
1630059098179,2058
1630059098183,2058
1630059098187,2058
1630059098191,2056
1630059098195,2055
1630059098199,2054
1630059098203,2054
1630059098207,2053
1630059098211,2053
1630059098215,2052
1630059098219,2052
1630059098223,2052
1630059098227,2052
1630059098231,2053
1630059098235,2055
1630059098239,2057
1630059098243,2059
1630059098247,2060
1630059098251,2060
1630059098255,2059
1630059098259,2058
1630059098263,2058
1630059098267,2058
1630059098271,2058
1630059098275,2059
1630059098279,2059
1630059098283,2059
1630059098287,2059
1630059098291,2058
1630059098295,2058
1630059098299,2059
1630059098303,2061
1630059098307,2062
1630059098311,2061
1630059098315,2054
1630059098319,2036
1630059098323,2009
1630059098327,1981
1630059098331,1961
1630059098335,1959
1630059098339,1976
1630059098343,2006
1630059098347,2038
1630059098351,2060
1630059098355,2072
1630059098359,2075
1630059098363,2072
1630059098367,2068
1630059098371,2065
1630059098375,2062
1630059098379,2061
1630059098383,2061
1630059098387,2061
1630059098391,2061
1630059098395,2061
1630059098399,2060
1630059098403,2060
1630059098407,2059
1630059098411,2059
1630059098415,2059
1630059098419,2059
1630059098423,2059
1630059098427,2058
1630059098431,2057
1630059098435,2057
1630059098439,2056
1630059098443,2056
1630059098447,2057
1630059098451,2057
1630059098455,2057
1630059098459,2056
1630059098463,2055
1630059098467,2054
1630059098471,2054
1630059098475,2054
1630059098479,2055
1630059098483,2054
1630059098487,2054
1630059098491,2052
1630059098495,2051
1630059098499,2050
1630059098503,2049
1630059098507,2048
1630059098511,2048
1630059098515,2047
1630059098519,2046
1630059098523,2045
1630059098527,2045
1630059098531,2044
1630059098535,2043
1630059098539,2042
1630059098543,2041
1630059098547,2040
1630059098551,2040
1630059098555,2040
1630059098559,2040
1630059098563,2040
1630059098567,2041
1630059098571,2041
1630059098575,2042
1630059098579,2043
1630059098583,2045
1630059098587,2047
1630059098591,2048
1630059098595,2050
1630059098599,2052
1630059098603,2055
1630059098607,2057
1630059098611,2058
1630059098615,2059
1630059098619,2059
1630059098623,2060
1630059098627,2061
1630059098631,2062
1630059098635,2063
1630059098639,2064
1630059098643,2064
1630059098647,2065
1630059098651,2064
1630059098655,2064
1630059098659,2063
1630059098663,2063
1630059098667,2064
1630059098671,2064
1630059098675,2065
1630059098679,2065
1630059098683,2065
1630059098687,2064
1630059098691,2064
1630059098695,2063
1630059098699,2063
1630059098703,2062
1630059098707,2061
1630059098711,2060
1630059098715,2060
1630059098719,2061
1630059098723,2062
1630059098727,2062
1630059098731,2062
1630059098735,2062
1630059098739,2060
1630059098743,2059
1630059098747,2059
1630059098751,2058
1630059098755,2059
1630059098759,2059
1630059098763,2060
1630059098767,2061
1630059098771,2061
1630059098775,2060
1630059098779,2059
1630059098783,2058
1630059098787,2058
1630059098791,2059
1630059098795,2060
1630059098799,2061
1630059098803,2062
1630059098807,2061
1630059098811,2061
1630059098815,2061
1630059098819,2060
1630059098823,2060
1630059098827,2059
1630059098831,2059
1630059098835,2060
1630059098839,2060
1630059098843,2061
1630059098847,2061
1630059098851,2062
1630059098855,2061
1630059098859,2060
1630059098863,2059
1630059098867,2059
1630059098871,2059
1630059098875,2060
1630059098879,2061
1630059098883,2062
1630059098887,2062
1630059098891,2061
1630059098895,2059
1630059098899,2058
1630059098903,2058
1630059098907,2059
1630059098911,2059
1630059098915,2058
1630059098919,2058
1630059098923,2057
1630059098927,2056
1630059098931,2056
1630059098935,2056
1630059098939,2056
1630059098943,2055
1630059098947,2055
1630059098951,2056
1630059098955,2057
1630059098959,2058
1630059098963,2060
1630059098967,2062
1630059098971,2063
1630059098975,2063
1630059098979,2062
1630059098983,2062
1630059098987,2061
1630059098991,2061
1630059098995,2061
1630059098999,2062
1630059099003,2062
1630059099007,2062
1630059099011,2061
1630059099015,2061
1630059099019,2061
1630059099023,2063
1630059099027,2065
1630059099031,2066
1630059099035,2060
1630059099039,2046
1630059099043,2020
1630059099047,1990
1630059099051,1965
1630059099055,1958
1630059099059,1970
1630059099063,1997
1630059099067,2029
1630059099071,2055
1630059099075,2071
1630059099079,2076
1630059099083,2076
1630059099087,2073
1630059099091,2070
1630059099095,2067
1630059099099,2064
1630059099103,2062
1630059099107,2061
1630059099111,2061
1630059099115,2062
1630059099119,2063
1630059099123,2064
1630059099127,2063
1630059099131,2062
1630059099135,2061
1630059099139,2060
1630059099143,2059
1630059099147,2059
1630059099151,2059
1630059099155,2059
1630059099159,2059
1630059099163,2059
1630059099167,2059
1630059099171,2058
1630059099175,2058
1630059099179,2057
1630059099183,2057
1630059099187,2057
1630059099191,2057
1630059099195,2057
1630059099199,2056
1630059099203,2056
1630059099207,2055
1630059099211,2053
1630059099215,2052
1630059099219,2051
1630059099223,2051
1630059099227,2050
1630059099231,2049
1630059099235,2048
1630059099239,2048
1630059099243,2047
1630059099247,2046
1630059099251,2045
1630059099255,2044
1630059099259,2043
1630059099263,2042
1630059099267,2042
1630059099271,2041
1630059099275,2040
1630059099279,2040
1630059099283,2041
1630059099287,2041
1630059099291,2042
1630059099295,2043
1630059099299,2044
1630059099303,2046
1630059099307,2048
1630059099311,2049
1630059099315,2052
1630059099319,2054
1630059099323,2056
1630059099327,2057
1630059099331,2058
1630059099335,2059
1630059099339,2060
1630059099343,2061
1630059099347,2062
1630059099351,2063
1630059099355,2064
1630059099359,2064
1630059099363,2064
1630059099367,2064
1630059099371,2064
1630059099375,2064
1630059099379,2064
1630059099383,2064
1630059099387,2064
1630059099391,2063
1630059099395,2063
1630059099399,2063
1630059099403,2064
1630059099407,2065
1630059099411,2066
1630059099415,2065
1630059099419,2065
1630059099423,2063
1630059099427,2062
1630059099431,2062
1630059099435,2062
1630059099439,2063
1630059099443,2063
1630059099447,2063
1630059099451,2062
1630059099455,2062
1630059099459,2061
1630059099463,2061
1630059099467,2060
1630059099471,2060
1630059099475,2060
1630059099479,2060
1630059099483,2060
1630059099487,2060
1630059099491,2060
1630059099495,2060
1630059099499,2060
1630059099503,2059
1630059099507,2059
1630059099511,2059
1630059099515,2060
1630059099519,2061
1630059099523,2061
1630059099527,2061
1630059099531,2060
1630059099535,2060
1630059099539,2060
1630059099543,2059
1630059099547,2060
1630059099551,2060
1630059099555,2060
1630059099559,2061
1630059099563,2061
1630059099567,2061
1630059099571,2061
1630059099575,2060
1630059099579,2059
1630059099583,2059
1630059099587,2059
1630059099591,2060
1630059099595,2060
1630059099599,2061
1630059099603,2061
1630059099607,2060
1630059099611,2059
1630059099615,2059
1630059099619,2058
1630059099623,2058
1630059099627,2057
1630059099631,2056
1630059099635,2055
1630059099639,2055
1630059099643,2055
1630059099647,2056
1630059099651,2056
1630059099655,2056
1630059099659,2055
1630059099663,2054
1630059099667,2054
1630059099671,2054
1630059099675,2055
1630059099679,2057
1630059099683,2058
1630059099687,2060
1630059099691,2060
1630059099695,2060
1630059099699,2060
1630059099703,2060
1630059099707,2059
1630059099711,2059
1630059099715,2060
1630059099719,2060
1630059099723,2061
1630059099727,2061
1630059099731,2060
1630059099735,2060
1630059099739,2059
1630059099743,2059
1630059099747,2060
1630059099751,2062
1630059099755,2064
1630059099759,2061
1630059099763,2050
1630059099767,2028
1630059099771,1997
1630059099775,1970
1630059099779,1955
1630059099783,1961
1630059099787,1984
1630059099791,2015
1630059099795,2043
1630059099799,2061
1630059099803,2069
1630059099807,2071
1630059099811,2069
1630059099815,2067
1630059099819,2065
1630059099823,2063
1630059099827,2062
1630059099831,2061
1630059099835,2061
1630059099839,2061
1630059099843,2062
1630059099847,2062
1630059099851,2061
1630059099855,2061
1630059099859,2060
1630059099863,2059
1630059099867,2059
1630059099871,2058
1630059099875,2059
1630059099879,2059
1630059099883,2059
1630059099887,2059
1630059099891,2058
1630059099895,2057
1630059099899,2056
1630059099903,2056
1630059099907,2055
1630059099911,2055
1630059099915,2055
1630059099919,2055
1630059099923,2055
1630059099927,2055
1630059099931,2054
1630059099935,2053
1630059099939,2052
1630059099943,2051
1630059099947,2050
1630059099951,2049
1630059099955,2049
1630059099959,2048
1630059099963,2048
1630059099967,2048
1630059099971,2047
1630059099975,2046
1630059099979,2044
1630059099983,2043
1630059099987,2042
1630059099991,2042
1630059099995,2041
1630059099999,2041
1630059100003,2041
1630059100007,2041
1630059100011,2040
1630059100015,2041
1630059100019,2041
1630059100023,2042
1630059100027,2043
1630059100031,2045
1630059100035,2048
1630059100039,2049
1630059100043,2051
1630059100047,2053
1630059100051,2055
1630059100055,2056
1630059100059,2056
1630059100063,2057
1630059100067,2058
1630059100071,2058
1630059100075,2060
1630059100079,2061
1630059100083,2061
1630059100087,2062
1630059100091,2062
1630059100095,2061
1630059100099,2061
1630059100103,2061
1630059100107,2061
1630059100111,2062
1630059100115,2062
1630059100119,2062
1630059100123,2062
1630059100127,2062
1630059100131,2062
1630059100135,2061
1630059100139,2060
1630059100143,2060
1630059100147,2060
1630059100151,2060
1630059100155,2060
1630059100159,2060
1630059100163,2060
1630059100167,2060
1630059100171,2060
1630059100175,2060
1630059100179,2059
1630059100183,2059
1630059100187,2059
1630059100191,2058
1630059100195,2059
1630059100199,2059
1630059100203,2060
1630059100207,2060
1630059100211,2059
1630059100215,2059
1630059100219,2058
1630059100223,2057
1630059100227,2057
1630059100231,2058
1630059100235,2059
1630059100239,2059
1630059100243,2060
1630059100247,2060
1630059100251,2059
1630059100255,2059
1630059100259,2058
1630059100263,2058
1630059100267,2058
1630059100271,2059
1630059100275,2059
1630059100279,2060
1630059100283,2060
1630059100287,2060
1630059100291,2060
1630059100295,2060
1630059100299,2060
1630059100303,2059
1630059100307,2059
1630059100311,2059
1630059100315,2059
1630059100319,2060
1630059100323,2060
1630059100327,2061
1630059100331,2061
1630059100335,2060
1630059100339,2060
1630059100343,2059
1630059100347,2059
1630059100351,2059
1630059100355,2059
1630059100359,2060
1630059100363,2060
1630059100367,2060
1630059100371,2060
1630059100375,2060
1630059100379,2059
1630059100383,2059
1630059100387,2059
1630059100391,2059
1630059100395,2059
1630059100399,2059
1630059100403,2060
1630059100407,2060
1630059100411,2060
1630059100415,2059
1630059100419,2058
1630059100423,2058
1630059100427,2057
1630059100431,2057
1630059100435,2058
1630059100439,2058
1630059100443,2059
1630059100447,2059
1630059100451,2058
1630059100455,2058
1630059100459,2057
1630059100463,2057
1630059100467,2057
1630059100471,2057
1630059100475,2058
1630059100479,2058
1630059100483,2058
1630059100487,2058
1630059100491,2058
1630059100495,2058
1630059100499,2057
1630059100503,2057
1630059100507,2057
1630059100511,2056
1630059100515,2057
1630059100519,2058
1630059100523,2058
1630059100527,2058
1630059100531,2057
1630059100535,2056
1630059100539,2056
1630059100543,2055
1630059100547,2056
1630059100551,2056
1630059100555,2056
1630059100559,2056
1630059100563,2055
1630059100567,2054
1630059100571,2053
1630059100575,2052
1630059100579,2051
1630059100583,2051
1630059100587,2051
1630059100591,2052
1630059100595,2052
1630059100599,2053
1630059100603,2054
1630059100607,2055
1630059100611,2056
1630059100615,2057
1630059100619,2057
1630059100623,2057
1630059100627,2057
1630059100631,2057
1630059100635,2057
1630059100639,2058
1630059100643,2058
1630059100647,2058
1630059100651,2058
1630059100655,2057
1630059100659,2057
1630059100663,2057
1630059100667,2057
1630059100671,2059
1630059100675,2061
1630059100679,2063
1630059100683,2062
1630059100687,2055
1630059100691,2038
1630059100695,2011
1630059100699,1981
1630059100703,1959
1630059100707,1954
1630059100711,1967
1630059100715,1993
1630059100719,2021
1630059100723,2042
1630059100727,2054
1630059100731,2060
1630059100735,2061
1630059100739,2062
1630059100743,2062
1630059100747,2061
1630059100751,2060
1630059100755,2060
1630059100759,2060
1630059100763,2061
1630059100767,2061
1630059100771,2061
1630059100775,2060
1630059100779,2059
1630059100783,2059
1630059100787,2058
1630059100791,2058
1630059100795,2059
1630059100799,2059
1630059100803,2059
1630059100807,2059
1630059100811,2058
1630059100815,2058
1630059100819,2057
1630059100823,2056
1630059100827,2056
1630059100831,2055
1630059100835,2055
1630059100839,2055
1630059100843,2055
1630059100847,2055
1630059100851,2054
1630059100855,2053
1630059100859,2052
1630059100863,2051
1630059100867,2051
1630059100871,2050
1630059100875,2050
1630059100879,2049
1630059100883,2049
1630059100887,2048
1630059100891,2048
1630059100895,2047
1630059100899,2046
1630059100903,2045
1630059100907,2044
1630059100911,2043
1630059100915,2043
1630059100919,2042
1630059100923,2042
1630059100927,2042
1630059100931,2041
1630059100935,2041
1630059100939,2040
1630059100943,2040
1630059100947,2040
1630059100951,2041
1630059100955,2042
1630059100959,2044
1630059100963,2045
1630059100967,2047
1630059100971,2048
1630059100975,2049
1630059100979,2050
1630059100983,2052
1630059100987,2053
1630059100991,2054
1630059100995,2056
1630059100999,2057
1630059101003,2058
1630059101007,2058
1630059101011,2058
1630059101015,2058
1630059101019,2057
1630059101023,2057
1630059101027,2057
1630059101031,2057
1630059101035,2058
1630059101039,2058
1630059101043,2059
1630059101047,2059
1630059101051,2059
1630059101055,2059
1630059101059,2058
1630059101063,2058
1630059101067,2058
1630059101071,2058
1630059101075,2058
1630059101079,2058
1630059101083,2058
1630059101087,2058
1630059101091,2058
1630059101095,2058
1630059101099,2057
1630059101103,2057
1630059101107,2057
1630059101111,2057
1630059101115,2057
1630059101119,2057
1630059101123,2058
1630059101127,2058
1630059101131,2057
1630059101135,2057
1630059101139,2056
1630059101143,2055
1630059101147,2055
1630059101151,2055
1630059101155,2056
1630059101159,2056
1630059101163,2056
1630059101167,2057
1630059101171,2056
1630059101175,2056
1630059101179,2056
1630059101183,2055
1630059101187,2056
1630059101191,2056
1630059101195,2056
1630059101199,2057
1630059101203,2057
1630059101207,2057
1630059101211,2057
1630059101215,2057
1630059101219,2057
1630059101223,2057
1630059101227,2057
1630059101231,2057
1630059101235,2057
1630059101239,2058
1630059101243,2058
1630059101247,2058
1630059101251,2058
1630059101255,2058
1630059101259,2058
1630059101263,2057
1630059101267,2057
1630059101271,2057
1630059101275,2058
1630059101279,2058
1630059101283,2059
1630059101287,2059
1630059101291,2059
1630059101295,2059
1630059101299,2058
1630059101303,2057
1630059101307,2057
1630059101311,2058
1630059101315,2059
1630059101319,2059
1630059101323,2059
1630059101327,2059
1630059101331,2059
1630059101335,2058
1630059101339,2058
1630059101343,2058
1630059101347,2058
1630059101351,2058
1630059101355,2058
1630059101359,2059
1630059101363,2059
1630059101367,2059
1630059101371,2059
1630059101375,2059
1630059101379,2059
1630059101383,2058
1630059101387,2058
1630059101391,2058
1630059101395,2058
1630059101399,2059
1630059101403,2059
1630059101407,2059
1630059101411,2059
1630059101415,2058
1630059101419,2057
1630059101423,2057
1630059101427,2057
1630059101431,2057
1630059101435,2057
1630059101439,2058
1630059101443,2058
1630059101447,2058
1630059101451,2058
1630059101455,2058
1630059101459,2057
1630059101463,2057
1630059101467,2057
1630059101471,2056
1630059101475,2055
1630059101479,2054
1630059101483,2053
1630059101487,2053
1630059101491,2054
1630059101495,2055
1630059101499,2054
1630059101503,2054
1630059101507,2053
1630059101511,2054
1630059101515,2055
1630059101519,2057
1630059101523,2059
1630059101527,2061
1630059101531,2061
1630059101535,2060
1630059101539,2060
1630059101543,2060
1630059101547,2060
1630059101551,2060
1630059101555,2060
1630059101559,2060
1630059101563,2059
1630059101567,2059
1630059101571,2059
1630059101575,2059
1630059101579,2059
1630059101583,2061
1630059101587,2063
1630059101591,2064
1630059101595,2062
1630059101599,2050
1630059101603,2028
1630059101607,1998
1630059101611,1970
1630059101615,1955
1630059101619,1958
1630059101623,1979
1630059101627,2008
1630059101631,2035
1630059101635,2052
1630059101639,2061
1630059101643,2064
1630059101647,2064
1630059101651,2064
1630059101655,2063
1630059101659,2062
1630059101663,2061
1630059101667,2060
1630059101671,2061
1630059101675,2062
1630059101679,2062
1630059101683,2062
1630059101687,2062
1630059101691,2061
1630059101695,2060
1630059101699,2059
1630059101703,2059
1630059101707,2059
1630059101711,2059
1630059101715,2059
1630059101719,2059
1630059101723,2059
1630059101727,2059
1630059101731,2059
1630059101735,2058
1630059101739,2057
1630059101743,2057
1630059101747,2056
1630059101751,2055
1630059101755,2055
1630059101759,2056
1630059101763,2056
1630059101767,2055
1630059101771,2055
1630059101775,2054
1630059101779,2052
1630059101783,2051
1630059101787,2050
1630059101791,2050
1630059101795,2049
1630059101799,2049
1630059101803,2048
1630059101807,2048
1630059101811,2047
1630059101815,2046
1630059101819,2045
1630059101823,2044
1630059101827,2043
1630059101831,2043
1630059101835,2043
1630059101839,2043
1630059101843,2042
1630059101847,2042
1630059101851,2042
1630059101855,2042
1630059101859,2043
1630059101863,2044
1630059101867,2046
1630059101871,2048
1630059101875,2049
1630059101879,2051
1630059101883,2053
1630059101887,2054
1630059101891,2056
1630059101895,2056
1630059101899,2057
1630059101903,2058
1630059101907,2058
1630059101911,2059
1630059101915,2060
1630059101919,2060
1630059101923,2060
1630059101927,2060
1630059101931,2061
1630059101935,2061
1630059101939,2061
1630059101943,2061
1630059101947,2061
1630059101951,2061
1630059101955,2062
1630059101959,2063
1630059101963,2063
1630059101967,2063
1630059101971,2062
1630059101975,2062
1630059101979,2062
1630059101983,2062
1630059101987,2061
1630059101991,2061
1630059101995,2060
1630059101999,2060
1630059102003,2060
1630059102007,2060
1630059102011,2060
1630059102015,2060
1630059102019,2060
1630059102023,2059
1630059102027,2059
1630059102031,2059
1630059102035,2060
1630059102039,2060
1630059102043,2060
1630059102047,2059
1630059102051,2059
1630059102055,2059
1630059102059,2058
1630059102063,2058
1630059102067,2058
1630059102071,2058
1630059102075,2059
1630059102079,2060
1630059102083,2060
1630059102087,2060
1630059102091,2060
1630059102095,2059
1630059102099,2059
1630059102103,2058
1630059102107,2058
1630059102111,2058
1630059102115,2059
1630059102119,2059
1630059102123,2059
1630059102127,2060
1630059102131,2060
1630059102135,2060
1630059102139,2060
1630059102143,2060
1630059102147,2059
1630059102151,2059
1630059102155,2059
1630059102159,2059
1630059102163,2059
1630059102167,2060
1630059102171,2059
1630059102175,2059
1630059102179,2059
1630059102183,2059
1630059102187,2059
1630059102191,2060
1630059102195,2060
1630059102199,2060
1630059102203,2059
1630059102207,2059
1630059102211,2059
1630059102215,2059
1630059102219,2059
1630059102223,2059
1630059102227,2059
1630059102231,2058
1630059102235,2059
1630059102239,2059
1630059102243,2060
1630059102247,2061
1630059102251,2061
1630059102255,2059
1630059102259,2057
1630059102263,2055
1630059102267,2053
1630059102271,2054
1630059102275,2055
1630059102279,2056
1630059102283,2056
1630059102287,2055
1630059102291,2054
1630059102295,2054
1630059102299,2055
1630059102303,2058
1630059102307,2060
1630059102311,2062
1630059102315,2062
1630059102319,2063
1630059102323,2063
1630059102327,2063
1630059102331,2063
1630059102335,2063
1630059102339,2062
1630059102343,2061
1630059102347,2061
1630059102351,2061
1630059102355,2061
1630059102359,2062
1630059102363,2062
1630059102367,2064
1630059102371,2066
1630059102375,2067
1630059102379,2065
1630059102383,2055
1630059102387,2036
1630059102391,2006
1630059102395,1978
1630059102399,1960
1630059102403,1961
1630059102407,1982
1630059102411,2014
1630059102415,2045
1630059102419,2067
1630059102423,2078
1630059102427,2079
1630059102431,2075
1630059102435,2071
1630059102439,2068
1630059102443,2066
1630059102447,2065
1630059102451,2064
1630059102455,2064
1630059102459,2063
1630059102463,2063
1630059102467,2062
1630059102471,2062
1630059102475,2062
1630059102479,2063
1630059102483,2063
1630059102487,2062
1630059102491,2062
1630059102495,2061
1630059102499,2060
1630059102503,2059
1630059102507,2058
1630059102511,2058
1630059102515,2057
1630059102519,2057
1630059102523,2057
1630059102527,2058
1630059102531,2058
1630059102535,2058
1630059102539,2058
1630059102543,2058
1630059102547,2057
1630059102551,2055
1630059102555,2054
1630059102559,2053
1630059102563,2053
1630059102567,2052
1630059102571,2052
1630059102575,2051
1630059102579,2049
1630059102583,2048
1630059102587,2047
1630059102591,2046
1630059102595,2045
1630059102599,2044
1630059102603,2043
1630059102607,2043
1630059102611,2042
1630059102615,2042
1630059102619,2040
1630059102623,2040
1630059102627,2039
1630059102631,2040
1630059102635,2041
1630059102639,2043
1630059102643,2044
1630059102647,2046
1630059102651,2048
1630059102655,2048
1630059102659,2050
1630059102663,2052
1630059102667,2054
1630059102671,2056
1630059102675,2058
1630059102679,2059
1630059102683,2061
1630059102687,2062
1630059102691,2063
1630059102695,2064
1630059102699,2065
1630059102703,2065
1630059102707,2065
1630059102711,2065
1630059102715,2065
1630059102719,2066
1630059102723,2066
1630059102727,2066
1630059102731,2066
1630059102735,2065
1630059102739,2065
1630059102743,2065
1630059102747,2065
1630059102751,2065
1630059102755,2066
1630059102759,2065
1630059102763,2065
1630059102767,2065
1630059102771,2064
1630059102775,2064
1630059102779,2063
1630059102783,2062
1630059102787,2062
1630059102791,2062
1630059102795,2063
1630059102799,2063
1630059102803,2063
1630059102807,2063
1630059102811,2062
1630059102815,2061
1630059102819,2061
1630059102823,2060
1630059102827,2060
1630059102831,2059
1630059102835,2060
1630059102839,2060
1630059102843,2061
1630059102847,2062
1630059102851,2062
1630059102855,2062
1630059102859,2061
1630059102863,2061
1630059102867,2061
1630059102871,2061
1630059102875,2061
1630059102879,2061
1630059102883,2061
1630059102887,2062
1630059102891,2062
1630059102895,2062
1630059102899,2061
1630059102903,2061
1630059102907,2061
1630059102911,2061
1630059102915,2061
1630059102919,2062
1630059102923,2062
1630059102927,2063
1630059102931,2062
1630059102935,2062
1630059102939,2061
1630059102943,2061
1630059102947,2060
1630059102951,2060
1630059102955,2060
1630059102959,2060
1630059102963,2061
1630059102967,2062
1630059102971,2063
1630059102975,2063
1630059102979,2063
1630059102983,2062
1630059102987,2061
1630059102991,2060
1630059102995,2060
1630059102999,2061
1630059103003,2060
1630059103007,2060
1630059103011,2058
1630059103015,2057
1630059103019,2056
1630059103023,2056
1630059103027,2056
1630059103031,2057
1630059103035,2057
1630059103039,2056
1630059103043,2057
1630059103047,2057
1630059103051,2059
1630059103055,2060
1630059103059,2061
1630059103063,2062
1630059103067,2062
1630059103071,2061
1630059103075,2062
1630059103079,2062
1630059103083,2062
1630059103087,2063
1630059103091,2062
1630059103095,2062
1630059103099,2061
1630059103103,2061
1630059103107,2061
1630059103111,2061
1630059103115,2063
1630059103119,2065
1630059103123,2067
1630059103127,2067
1630059103131,2061
1630059103135,2044
1630059103139,2017
1630059103143,1986
1630059103147,1963
1630059103151,1956
1630059103155,1969
1630059103159,1998
1630059103163,2030
1630059103167,2056
1630059103171,2071
1630059103175,2076
1630059103179,2074
1630059103183,2071
1630059103187,2069
1630059103191,2067
1630059103195,2065
1630059103199,2063
1630059103203,2063
1630059103207,2063
1630059103211,2063
1630059103215,2064
1630059103219,2064
1630059103223,2063
1630059103227,2062
1630059103231,2061
1630059103235,2061
1630059103239,2061
1630059103243,2061
1630059103247,2061
1630059103251,2061
1630059103255,2060
1630059103259,2059
1630059103263,2059
1630059103267,2058
1630059103271,2058
1630059103275,2059
1630059103279,2059
1630059103283,2058
1630059103287,2058
1630059103291,2057
1630059103295,2057
1630059103299,2055
1630059103303,2054
1630059103307,2053
1630059103311,2053
1630059103315,2053
1630059103319,2053
1630059103323,2053
1630059103327,2052
1630059103331,2050
1630059103335,2048
1630059103339,2047
1630059103343,2046
1630059103347,2045
1630059103351,2044
1630059103355,2044
1630059103359,2044
1630059103363,2044
1630059103367,2043
1630059103371,2043
1630059103375,2042
1630059103379,2041
1630059103383,2041
1630059103387,2041
1630059103391,2042
1630059103395,2044
1630059103399,2047
1630059103403,2048
1630059103407,2051
1630059103411,2053
1630059103415,2055
1630059103419,2056
1630059103423,2057
1630059103427,2058
1630059103431,2059
1630059103435,2061
1630059103439,2062
1630059103443,2063
1630059103447,2063
1630059103451,2064
1630059103455,2063
1630059103459,2063
1630059103463,2063
1630059103467,2064
1630059103471,2064
1630059103475,2065
1630059103479,2065
1630059103483,2064
1630059103487,2064
1630059103491,2063
1630059103495,2064
1630059103499,2064
1630059103503,2064
1630059103507,2064
1630059103511,2064
1630059103515,2064
1630059103519,2064
1630059103523,2064
1630059103527,2064
1630059103531,2064
1630059103535,2063
1630059103539,2062
1630059103543,2061
1630059103547,2060
1630059103551,2060
1630059103555,2060
1630059103559,2061
1630059103563,2061
1630059103567,2061
1630059103571,2061
1630059103575,2060
1630059103579,2059
1630059103583,2059
1630059103587,2059
1630059103591,2059
1630059103595,2059
1630059103599,2060
1630059103603,2060
1630059103607,2060
1630059103611,2060
1630059103615,2059
1630059103619,2059
1630059103623,2059
1630059103627,2059
1630059103631,2059
1630059103635,2059
1630059103639,2059
1630059103643,2060
1630059103647,2060
1630059103651,2060
1630059103655,2060
1630059103659,2060
1630059103663,2059
1630059103667,2059
1630059103671,2059
1630059103675,2059
1630059103679,2060
1630059103683,2060
1630059103687,2061
1630059103691,2061
1630059103695,2061
1630059103699,2060
1630059103703,2060
1630059103707,2059
1630059103711,2059
1630059103715,2060
1630059103719,2060
1630059103723,2060
1630059103727,2059
1630059103731,2059
1630059103735,2059
1630059103739,2058
1630059103743,2058
1630059103747,2058
1630059103751,2058
1630059103755,2059
1630059103759,2059
1630059103763,2059
1630059103767,2059
1630059103771,2059
1630059103775,2058
1630059103779,2057
1630059103783,2057
1630059103787,2057
1630059103791,2057
1630059103795,2058
1630059103799,2059
1630059103803,2059
1630059103807,2058
1630059103811,2057
1630059103815,2056
1630059103819,2054
1630059103823,2053
1630059103827,2053
1630059103831,2054
1630059103835,2054
1630059103839,2054
1630059103843,2054
1630059103847,2054
1630059103851,2054
1630059103855,2055
1630059103859,2056
1630059103863,2058
1630059103867,2059
1630059103871,2059
1630059103875,2060
1630059103879,2060
1630059103883,2060
1630059103887,2060
1630059103891,2060
1630059103895,2059
1630059103899,2059
1630059103903,2059
1630059103907,2059
1630059103911,2059
1630059103915,2059
1630059103919,2060
1630059103923,2062
1630059103927,2064
1630059103931,2065
1630059103935,2063
1630059103939,2051
1630059103943,2030
1630059103947,2000
1630059103951,1972
1630059103955,1956
1630059103959,1958
1630059103963,1979
1630059103967,2009
1630059103971,2037
1630059103975,2055
1630059103979,2065
1630059103983,2067
1630059103987,2066
1630059103991,2065
1630059103995,2065
1630059103999,2063
1630059104003,2062
1630059104007,2062
1630059104011,2061
1630059104015,2061
1630059104019,2061
1630059104023,2060
1630059104027,2060
1630059104031,2060
1630059104035,2060
1630059104039,2060
1630059104043,2060
1630059104047,2060
1630059104051,2060
1630059104055,2059
1630059104059,2059
1630059104063,2058
1630059104067,2058
1630059104071,2057
1630059104075,2057
1630059104079,2058
1630059104083,2058
1630059104087,2058
1630059104091,2057
1630059104095,2057
1630059104099,2056
1630059104103,2055
1630059104107,2054
1630059104111,2053
1630059104115,2053
1630059104119,2053
1630059104123,2053
1630059104127,2052
1630059104131,2051
1630059104135,2050
1630059104139,2049
1630059104143,2048
1630059104147,2047
1630059104151,2046
1630059104155,2045
1630059104159,2045
1630059104163,2045
1630059104167,2044
1630059104171,2044
1630059104175,2043
1630059104179,2042
1630059104183,2041
1630059104187,2041
1630059104191,2041
1630059104195,2042
1630059104199,2044
1630059104203,2045
1630059104207,2046
1630059104211,2048
1630059104215,2048
1630059104219,2049
1630059104223,2051
1630059104227,2053
1630059104231,2054
1630059104235,2056
1630059104239,2057
1630059104243,2059
1630059104247,2059
1630059104251,2060
1630059104255,2060
1630059104259,2060
1630059104263,2060
1630059104267,2060
1630059104271,2060
1630059104275,2061
1630059104279,2062
1630059104283,2062
1630059104287,2062
1630059104291,2062
1630059104295,2062
1630059104299,2061
1630059104303,2061
1630059104307,2061
1630059104311,2061
1630059104315,2061
1630059104319,2061
1630059104323,2061
1630059104327,2061
1630059104331,2061
1630059104335,2061
1630059104339,2060
1630059104343,2060
1630059104347,2060
1630059104351,2060
1630059104355,2060
1630059104359,2060
1630059104363,2060
1630059104367,2060
1630059104371,2060
1630059104375,2059
1630059104379,2058
1630059104383,2058
1630059104387,2057
1630059104391,2057
1630059104395,2058
1630059104399,2058
1630059104403,2058
1630059104407,2059
1630059104411,2059
1630059104415,2058
1630059104419,2058
1630059104423,2057
1630059104427,2057
1630059104431,2057
1630059104435,2058
1630059104439,2058
1630059104443,2059
1630059104447,2058
1630059104451,2058
1630059104455,2058
1630059104459,2058
1630059104463,2057
1630059104467,2057
1630059104471,2058
1630059104475,2058
1630059104479,2059
1630059104483,2059
1630059104487,2059
1630059104491,2059
1630059104495,2058
1630059104499,2058
1630059104503,2058
1630059104507,2058
1630059104511,2058
1630059104515,2058
1630059104519,2059
1630059104523,2059
1630059104527,2059
1630059104531,2059
1630059104535,2058
1630059104539,2058
1630059104543,2058
1630059104547,2057
1630059104551,2057
1630059104555,2058
1630059104559,2058
1630059104563,2059
1630059104567,2059
1630059104571,2059
1630059104575,2058
1630059104579,2058
1630059104583,2058
1630059104587,2058
1630059104591,2058
1630059104595,2058
1630059104599,2058
1630059104603,2058
1630059104607,2058
1630059104611,2058
1630059104615,2058
1630059104619,2057
1630059104623,2057
1630059104627,2057
1630059104631,2057
1630059104635,2058
1630059104639,2058
1630059104643,2058
1630059104647,2058
1630059104651,2058
1630059104655,2057
1630059104659,2057
1630059104663,2057
1630059104667,2057
1630059104671,2057
1630059104675,2057
1630059104679,2057
1630059104683,2057
1630059104687,2058
1630059104691,2058
1630059104695,2058
1630059104699,2057
1630059104703,2057
1630059104707,2057
1630059104711,2057
1630059104715,2057
1630059104719,2057
1630059104723,2058
1630059104727,2058
1630059104731,2057
1630059104735,2057
1630059104739,2056
1630059104743,2056
1630059104747,2056
1630059104751,2056
1630059104755,2056
1630059104759,2056
1630059104763,2056
1630059104767,2056
1630059104771,2056
1630059104775,2056
1630059104779,2055
1630059104783,2055
1630059104787,2054
1630059104791,2052
1630059104795,2051
1630059104799,2051
1630059104803,2051
1630059104807,2052
1630059104811,2052
1630059104815,2052
1630059104819,2052
1630059104823,2051
1630059104827,2051
1630059104831,2052
1630059104835,2054
1630059104839,2056
1630059104843,2057
1630059104847,2058
1630059104851,2058
1630059104855,2058
1630059104859,2058
1630059104863,2058
1630059104867,2058
1630059104871,2058
1630059104875,2059
1630059104879,2059
1630059104883,2058
1630059104887,2058
1630059104891,2058
1630059104895,2059
1630059104899,2060
1630059104903,2061
1630059104907,2063
1630059104911,2061
1630059104915,2051
1630059104919,2032
1630059104923,2004
1630059104927,1976
1630059104931,1958
1630059104935,1957
1630059104939,1974
1630059104943,2000
1630059104947,2027
1630059104951,2046
1630059104955,2056
1630059104959,2060
1630059104963,2062
1630059104967,2063
1630059104971,2063
1630059104975,2062
1630059104979,2061
1630059104983,2060
1630059104987,2060
1630059104991,2061
1630059104995,2061
1630059104999,2061
1630059105003,2061
1630059105007,2061
1630059105011,2061
1630059105015,2060
1630059105019,2059
1630059105023,2059
1630059105027,2058
1630059105031,2058
1630059105035,2059
1630059105039,2059
1630059105043,2059
1630059105047,2059
1630059105051,2059
1630059105055,2058
1630059105059,2057
1630059105063,2056
1630059105067,2056
1630059105071,2055
1630059105075,2055
1630059105079,2055
1630059105083,2055
1630059105087,2055
1630059105091,2054
1630059105095,2053
1630059105099,2052
1630059105103,2051
1630059105107,2051
1630059105111,2050
1630059105115,2050
1630059105119,2049
1630059105123,2048
1630059105127,2048
1630059105131,2047
1630059105135,2046
1630059105139,2045
1630059105143,2045
1630059105147,2044
1630059105151,2044
1630059105155,2044
1630059105159,2044
1630059105163,2044
1630059105167,2044
1630059105171,2043
1630059105175,2043
1630059105179,2044
1630059105183,2044
1630059105187,2046
1630059105191,2048
1630059105195,2049
1630059105199,2051
1630059105203,2053
1630059105207,2054
1630059105211,2055
1630059105215,2057
1630059105219,2057
1630059105223,2058
1630059105227,2059
1630059105231,2059
1630059105235,2060
1630059105239,2060
1630059105243,2061
1630059105247,2061
1630059105251,2061
1630059105255,2061
1630059105259,2060
1630059105263,2060
1630059105267,2060
1630059105271,2060
1630059105275,2060
1630059105279,2061
1630059105283,2061
1630059105287,2062
1630059105291,2062
1630059105295,2061
1630059105299,2061
1630059105303,2060
1630059105307,2060
1630059105311,2060
1630059105315,2060
1630059105319,2060
1630059105323,2060
1630059105327,2060
1630059105331,2060
1630059105335,2059
1630059105339,2059
1630059105343,2059
1630059105347,2059
1630059105351,2059
1630059105355,2059
1630059105359,2059
1630059105363,2059
1630059105367,2059
1630059105371,2059
1630059105375,2059
1630059105379,2059
1630059105383,2059
1630059105387,2059
1630059105391,2058
1630059105395,2059
1630059105399,2059
1630059105403,2059
1630059105407,2059
1630059105411,2059
1630059105415,2059
1630059105419,2058
1630059105423,2058
1630059105427,2058
1630059105431,2058
1630059105435,2059
1630059105439,2059
1630059105443,2059
1630059105447,2059
1630059105451,2060
1630059105455,2059
1630059105459,2059
1630059105463,2059
1630059105467,2059
1630059105471,2059
1630059105475,2059
1630059105479,2060
1630059105483,2060
1630059105487,2060
1630059105491,2060
1630059105495,2060
1630059105499,2060
1630059105503,2060
1630059105507,2059
1630059105511,2059
1630059105515,2059
1630059105519,2059
1630059105523,2060
1630059105527,2060
1630059105531,2060
1630059105535,2060
1630059105539,2060
1630059105543,2059
1630059105547,2059
1630059105551,2059
1630059105555,2059
1630059105559,2059
1630059105563,2059
1630059105567,2060
1630059105571,2060
1630059105575,2060
1630059105579,2059
1630059105583,2059
1630059105587,2058
1630059105591,2058
1630059105595,2059
1630059105599,2059
1630059105603,2059
1630059105607,2060
1630059105611,2059
1630059105615,2059
1630059105619,2059
1630059105623,2059
1630059105627,2058
1630059105631,2058
1630059105635,2058
1630059105639,2059
1630059105643,2059
1630059105647,2060
1630059105651,2060
1630059105655,2059
1630059105659,2058
1630059105663,2058
1630059105667,2058
1630059105671,2058
1630059105675,2059
1630059105679,2059
1630059105683,2059
1630059105687,2059
1630059105691,2059
1630059105695,2059
1630059105699,2058
1630059105703,2058
1630059105707,2058
1630059105711,2057
1630059105715,2058
1630059105719,2058
1630059105723,2059
1630059105727,2059
1630059105731,2059
1630059105735,2058
1630059105739,2057
1630059105743,2057
1630059105747,2057
1630059105751,2058
1630059105755,2059
1630059105759,2059
1630059105763,2057
1630059105767,2055
1630059105771,2053
1630059105775,2052
1630059105779,2052
1630059105783,2052
1630059105787,2052
1630059105791,2052
1630059105795,2053
1630059105799,2054
1630059105803,2054
1630059105807,2055
1630059105811,2056
1630059105815,2058
1630059105819,2059
1630059105823,2060
1630059105827,2061
1630059105831,2060
1630059105835,2060
1630059105839,2060
1630059105843,2060
1630059105847,2060
1630059105851,2060
1630059105855,2059
1630059105859,2058
1630059105863,2058
1630059105867,2058
1630059105871,2060
1630059105875,2062
1630059105879,2064
1630059105883,2064
1630059105887,2058
1630059105891,2043
1630059105895,2016
1630059105899,1986
1630059105903,1962
1630059105907,1955
1630059105911,1967
1630059105915,1993
1630059105919,2024
1630059105923,2049
1630059105927,2064
1630059105931,2070
1630059105935,2070
1630059105939,2068
1630059105943,2066
1630059105947,2065
1630059105951,2063
1630059105955,2062
1630059105959,2062
1630059105963,2062
1630059105967,2062
1630059105971,2062
1630059105975,2062
1630059105979,2061
1630059105983,2061
1630059105987,2060
1630059105991,2059
1630059105995,2059
1630059105999,2059
1630059106003,2059
1630059106007,2060
1630059106011,2060
1630059106015,2060
1630059106019,2060
1630059106023,2059
1630059106027,2059
1630059106031,2059
1630059106035,2059
1630059106039,2059
1630059106043,2058
1630059106047,2057
1630059106051,2056
1630059106055,2055
1630059106059,2055
1630059106063,2055
1630059106067,2055
1630059106071,2054
1630059106075,2053
1630059106079,2052
1630059106083,2051
1630059106087,2051
1630059106091,2050
1630059106095,2049
1630059106099,2048
1630059106103,2046
1630059106107,2045
1630059106111,2044
1630059106115,2044
1630059106119,2044
1630059106123,2044
1630059106127,2044
1630059106131,2044
1630059106135,2043
1630059106139,2042
1630059106143,2042
1630059106147,2042
1630059106151,2043
1630059106155,2045
1630059106159,2048
1630059106163,2049
1630059106167,2051
1630059106171,2053
1630059106175,2055
1630059106179,2057
1630059106183,2058
1630059106187,2059
1630059106191,2060
1630059106195,2061
1630059106199,2063
1630059106203,2063
1630059106207,2063
1630059106211,2063
1630059106215,2063
1630059106219,2062
1630059106223,2063
1630059106227,2063
1630059106231,2064
1630059106235,2065
1630059106239,2065
1630059106243,2065
1630059106247,2065
1630059106251,2065
1630059106255,2065
1630059106259,2065
1630059106263,2064
1630059106267,2063
1630059106271,2063
1630059106275,2063
1630059106279,2063
1630059106283,2063
1630059106287,2063
1630059106291,2062
1630059106295,2062
1630059106299,2061
1630059106303,2062
1630059106307,2062
1630059106311,2062
1630059106315,2062
1630059106319,2061
1630059106323,2061
1630059106327,2060
1630059106331,2060
1630059106335,2060
1630059106339,2059
1630059106343,2060
1630059106347,2060
1630059106351,2061
1630059106355,2061
1630059106359,2061
1630059106363,2060
1630059106367,2060
1630059106371,2060
1630059106375,2060
1630059106379,2060
1630059106383,2061
1630059106387,2061
1630059106391,2061
1630059106395,2060
1630059106399,2060
1630059106403,2061
1630059106407,2061
1630059106411,2062
1630059106415,2062
1630059106419,2061
1630059106423,2060
1630059106427,2060
1630059106431,2060
1630059106435,2060
1630059106439,2061
1630059106443,2061
1630059106447,2061
1630059106451,2061
1630059106455,2060
1630059106459,2060
1630059106463,2061
1630059106467,2061
1630059106471,2061
1630059106475,2062
1630059106479,2061
1630059106483,2061
1630059106487,2061
1630059106491,2061
1630059106495,2061
1630059106499,2060
1630059106503,2059
1630059106507,2059
1630059106511,2059
1630059106515,2060
1630059106519,2061
1630059106523,2062
1630059106527,2062
1630059106531,2061
1630059106535,2060
1630059106539,2060
1630059106543,2060
1630059106547,2060
1630059106551,2060
1630059106555,2061
1630059106559,2061
1630059106563,2061
1630059106567,2061
1630059106571,2061
1630059106575,2060
1630059106579,2060
1630059106583,2059
1630059106587,2059
1630059106591,2059
1630059106595,2059
1630059106599,2060
1630059106603,2060
1630059106607,2060
1630059106611,2059
1630059106615,2057
1630059106619,2056
1630059106623,2055
1630059106627,2055
1630059106631,2055
1630059106635,2056
1630059106639,2057
1630059106643,2056
1630059106647,2056
1630059106651,2056
1630059106655,2057
1630059106659,2058
1630059106663,2060
1630059106667,2062
1630059106671,2062
1630059106675,2062
1630059106679,2061
1630059106683,2061
1630059106687,2061
1630059106691,2062
1630059106695,2062
1630059106699,2061
1630059106703,2061
1630059106707,2060
1630059106711,2060
1630059106715,2061
1630059106719,2062
1630059106723,2063
1630059106727,2065
1630059106731,2066
1630059106735,2064
1630059106739,2053
1630059106743,2032
1630059106747,2002
1630059106751,1974
1630059106755,1960
1630059106759,1964
1630059106763,1988
1630059106767,2020
1630059106771,2049
1630059106775,2069
1630059106779,2077
1630059106783,2077
1630059106787,2073
1630059106791,2070
1630059106795,2068
1630059106799,2066
1630059106803,2064
1630059106807,2063
1630059106811,2063
1630059106815,2063
1630059106819,2063
1630059106823,2063
1630059106827,2062
1630059106831,2062
1630059106835,2062
1630059106839,2062
1630059106843,2061
1630059106847,2061
1630059106851,2061
1630059106855,2060
1630059106859,2060
1630059106863,2059
1630059106867,2059
1630059106871,2058
1630059106875,2058
1630059106879,2058
1630059106883,2058
1630059106887,2058
1630059106891,2057
1630059106895,2057
1630059106899,2056
1630059106903,2055
1630059106907,2054
1630059106911,2054
1630059106915,2053
1630059106919,2053
1630059106923,2052
1630059106927,2052
1630059106931,2051
1630059106935,2050
1630059106939,2049
1630059106943,2048
1630059106947,2046
1630059106951,2045
1630059106955,2044
1630059106959,2044
1630059106963,2043
1630059106967,2042
1630059106971,2042
1630059106975,2041
1630059106979,2040
1630059106983,2040
1630059106987,2040
1630059106991,2041
1630059106995,2042
1630059106999,2043
1630059107003,2044
1630059107007,2046
1630059107011,2047
1630059107015,2048
1630059107019,2050
1630059107023,2052
1630059107027,2055
1630059107031,2057
1630059107035,2059
1630059107039,2061
1630059107043,2061
1630059107047,2062
1630059107051,2062
1630059107055,2063
1630059107059,2062
1630059107063,2062
1630059107067,2062
1630059107071,2062
1630059107075,2063
1630059107079,2064
1630059107083,2065
1630059107087,2066
1630059107091,2066
1630059107095,2066
1630059107099,2065
1630059107103,2064
1630059107107,2063
1630059107111,2063
1630059107115,2063
1630059107119,2064
1630059107123,2064
1630059107127,2063
1630059107131,2062
1630059107135,2062
1630059107139,2061
1630059107143,2061
1630059107147,2061
1630059107151,2061
1630059107155,2061
1630059107159,2061
1630059107163,2061
1630059107167,2061
1630059107171,2061
1630059107175,2060
1630059107179,2059
1630059107183,2059
1630059107187,2059
1630059107191,2059
1630059107195,2060
1630059107199,2061
1630059107203,2061
1630059107207,2061
1630059107211,2060
1630059107215,2060
1630059107219,2059
1630059107223,2059
1630059107227,2059
1630059107231,2060
1630059107235,2060
1630059107239,2060
1630059107243,2061
1630059107247,2061
1630059107251,2061
1630059107255,2061
1630059107259,2061
1630059107263,2060
1630059107267,2060
1630059107271,2059
1630059107275,2059
1630059107279,2060
1630059107283,2060
1630059107287,2061
1630059107291,2061
1630059107295,2060
1630059107299,2060
1630059107303,2059
1630059107307,2059
1630059107311,2059
1630059107315,2060
1630059107319,2060
1630059107323,2060
1630059107327,2059
1630059107331,2059
1630059107335,2060
1630059107339,2060
1630059107343,2060
1630059107347,2060
1630059107351,2060
1630059107355,2060
1630059107359,2060
1630059107363,2060
1630059107367,2060
1630059107371,2060
1630059107375,2059
1630059107379,2059
1630059107383,2059
1630059107387,2059
1630059107391,2059
1630059107395,2060
1630059107399,2060
1630059107403,2060
1630059107407,2059
1630059107411,2057
1630059107415,2056
1630059107419,2055
1630059107423,2054
1630059107427,2054
1630059107431,2054
1630059107435,2055
1630059107439,2055
1630059107443,2055
1630059107447,2056
1630059107451,2056
1630059107455,2057
1630059107459,2058
1630059107463,2059
1630059107467,2060
1630059107471,2061
1630059107475,2061
1630059107479,2061
1630059107483,2062
1630059107487,2062
1630059107491,2061
1630059107495,2061
1630059107499,2060
1630059107503,2059
1630059107507,2059
1630059107511,2059
1630059107515,2060
1630059107519,2062
1630059107523,2065
1630059107527,2067
1630059107531,2065
1630059107535,2056
1630059107539,2038
1630059107543,2009
1630059107547,1980
1630059107551,1959
1630059107555,1957
1630059107559,1974
1630059107563,2003
1630059107567,2034
1630059107571,2056
1630059107575,2069
1630059107579,2072
1630059107583,2071
1630059107587,2068
1630059107591,2066
1630059107595,2065
1630059107599,2063
1630059107603,2063
1630059107607,2063
1630059107611,2062
1630059107615,2062
1630059107619,2061
1630059107623,2060
1630059107627,2060
1630059107631,2060
1630059107635,2061
1630059107639,2061
1630059107643,2061
1630059107647,2060
1630059107651,2060
1630059107655,2059
1630059107659,2059
1630059107663,2058
1630059107667,2057
1630059107671,2056
1630059107675,2056
1630059107679,2056
1630059107683,2056
1630059107687,2056
1630059107691,2056
1630059107695,2055
1630059107699,2055
1630059107703,2054
1630059107707,2054
1630059107711,2053
1630059107715,2053
1630059107719,2052
1630059107723,2052
1630059107727,2051
1630059107731,2050
1630059107735,2048
1630059107739,2047
1630059107743,2046
1630059107747,2045
1630059107751,2044
1630059107755,2044
1630059107759,2044
1630059107763,2043
1630059107767,2042
1630059107771,2041
1630059107775,2040
1630059107779,2039
1630059107783,2038
1630059107787,2039
1630059107791,2039
1630059107795,2041
1630059107799,2043
1630059107803,2046
1630059107807,2048
1630059107811,2048
1630059107815,2050
1630059107819,2051
1630059107823,2053
1630059107827,2054
1630059107831,2056
1630059107835,2058
1630059107839,2059
1630059107843,2061
1630059107847,2062
1630059107851,2062
1630059107855,2062
1630059107859,2062
1630059107863,2061
1630059107867,2061
1630059107871,2061
1630059107875,2062
1630059107879,2062
1630059107883,2062
1630059107887,2063
1630059107891,2063
1630059107895,2063
1630059107899,2063
1630059107903,2063
1630059107907,2062
1630059107911,2062
1630059107915,2062
1630059107919,2062
1630059107923,2062
1630059107927,2062
1630059107931,2062
1630059107935,2062
1630059107939,2061
1630059107943,2060
1630059107947,2060
1630059107951,2059
1630059107955,2059
1630059107959,2059
1630059107963,2059
1630059107967,2059
1630059107971,2059
1630059107975,2059
1630059107979,2059
1630059107983,2059
1630059107987,2059
1630059107991,2059
1630059107995,2059
1630059107999,2059
1630059108003,2059
1630059108007,2059
1630059108011,2059
1630059108015,2059
1630059108019,2059
1630059108023,2058
1630059108027,2058
1630059108031,2058
1630059108035,2059
1630059108039,2059
1630059108043,2059
1630059108047,2060
1630059108051,2060
1630059108055,2059
1630059108059,2059
1630059108063,2059
1630059108067,2058
1630059108071,2058
1630059108075,2059
1630059108079,2059
1630059108083,2060
1630059108087,2060
1630059108091,2060
1630059108095,2059
1630059108099,2059
1630059108103,2058
1630059108107,2058
1630059108111,2058
1630059108115,2059
1630059108119,2059
1630059108123,2060
1630059108127,2060
1630059108131,2059
1630059108135,2058
1630059108139,2057
1630059108143,2057
1630059108147,2057
1630059108151,2057
1630059108155,2058
1630059108159,2059
1630059108163,2059
1630059108167,2059
1630059108171,2059
1630059108175,2059
1630059108179,2059
1630059108183,2059
1630059108187,2059
1630059108191,2059
1630059108195,2059
1630059108199,2059
1630059108203,2059
1630059108207,2059
1630059108211,2059
1630059108215,2058
1630059108219,2058
1630059108223,2057
1630059108227,2057
1630059108231,2058
1630059108235,2059
1630059108239,2059
1630059108243,2060
1630059108247,2059
1630059108251,2059
1630059108255,2058
1630059108259,2058
1630059108263,2058
1630059108267,2058
1630059108271,2058
1630059108275,2059
1630059108279,2059
1630059108283,2059
1630059108287,2059
1630059108291,2058
1630059108295,2058
1630059108299,2057
1630059108303,2057
1630059108307,2057
1630059108311,2058
1630059108315,2058
1630059108319,2059
1630059108323,2058
1630059108327,2057
1630059108331,2056
1630059108335,2054
1630059108339,2054
1630059108343,2053
1630059108347,2054
1630059108351,2054
1630059108355,2054
1630059108359,2055
1630059108363,2055
1630059108367,2055
1630059108371,2056
1630059108375,2057
1630059108379,2058
1630059108383,2059
1630059108387,2060
1630059108391,2060
1630059108395,2060
1630059108399,2060
1630059108403,2060
1630059108407,2060
1630059108411,2060
1630059108415,2060
1630059108419,2059
1630059108423,2059
1630059108427,2059
1630059108431,2059
1630059108435,2060
1630059108439,2062
1630059108443,2064
1630059108447,2065
1630059108451,2060
1630059108455,2046
1630059108459,2021
1630059108463,1990
1630059108467,1965
1630059108471,1954
1630059108475,1963
1630059108479,1988
1630059108483,2018
1630059108487,2044
1630059108491,2058
1630059108495,2065
1630059108499,2066
1630059108503,2065
1630059108507,2064
1630059108511,2063
1630059108515,2062
1630059108519,2062
1630059108523,2062
1630059108527,2062
1630059108531,2063
1630059108535,2062
1630059108539,2062
1630059108543,2061
1630059108547,2061
1630059108551,2060
1630059108555,2060
1630059108559,2061
1630059108563,2061
1630059108567,2061
1630059108571,2060
1630059108575,2060
1630059108579,2059
1630059108583,2058
1630059108587,2058
1630059108591,2057
1630059108595,2057
1630059108599,2057
1630059108603,2057
1630059108607,2057
1630059108611,2056
1630059108615,2056
1630059108619,2055
1630059108623,2054
1630059108627,2054
1630059108631,2054
1630059108635,2053
1630059108639,2053
1630059108643,2052
1630059108647,2051
1630059108651,2050
1630059108655,2049
1630059108659,2048
1630059108663,2048
1630059108667,2047
1630059108671,2046
1630059108675,2045
1630059108679,2045
1630059108683,2045
1630059108687,2044
1630059108691,2044
1630059108695,2043
1630059108699,2042
1630059108703,2042
1630059108707,2041
1630059108711,2042
1630059108715,2043
1630059108719,2044
1630059108723,2046
1630059108727,2048
1630059108731,2048
1630059108735,2050
1630059108739,2052
1630059108743,2053
1630059108747,2054
1630059108751,2055
1630059108755,2057
1630059108759,2058
1630059108763,2059
1630059108767,2060
1630059108771,2060
1630059108775,2061
1630059108779,2060
1630059108783,2060
1630059108787,2060
1630059108791,2059
1630059108795,2060
1630059108799,2060
1630059108803,2060
1630059108807,2061
1630059108811,2061
1630059108815,2061
1630059108819,2060
1630059108823,2060
1630059108827,2060
1630059108831,2060
1630059108835,2060
1630059108839,2060
1630059108843,2060
1630059108847,2060
1630059108851,2060
