timestamp,ecg_waveform
1631118271002,2032
1631118271006,2030
1631118271010,2029
1631118271014,2030
1631118271018,2030
1631118271022,2029
1631118271026,2028
1631118271030,2028
1631118271034,2027
1631118271038,2026
1631118271042,2025
1631118271046,2025
1631118271050,2025
1631118271054,2026
1631118271058,2028
1631118271062,2028
1631118271066,2028
1631118271070,2026
1631118271074,2024
1631118271078,2023
1631118271082,2022
1631118271086,2021
1631118271090,2021
1631118271094,2022
1631118271098,2024
1631118271102,2026
1631118271106,2028
1631118271110,2029
1631118271114,2028
1631118271118,2027
1631118271122,2025
1631118271126,2024
1631118271130,2021
1631118271134,2018
1631118271138,2015
1631118271142,2016
1631118271146,2025
1631118271150,2049
1631118271154,2091
1631118271158,2144
1631118271162,2191
1631118271166,2213
1631118271170,2197
1631118271174,2147
1631118271178,2081
1631118271182,2024
1631118271186,1992
1631118271190,1986
1631118271194,1997
1631118271198,2014
1631118271202,2025
1631118271206,2030
1631118271210,2033
1631118271214,2035
1631118271218,2036
1631118271222,2035
1631118271226,2035
1631118271230,2036
1631118271234,2038
1631118271238,2041
1631118271242,2044
1631118271246,2046
1631118271250,2048
1631118271254,2049
1631118271258,2050
1631118271262,2052
1631118271266,2053
1631118271270,2054
1631118271274,2055
1631118271278,2055
1631118271282,2056
1631118271286,2058
1631118271290,2059
1631118271294,2061
1631118271298,2063
1631118271302,2064
1631118271306,2065
1631118271310,2066
1631118271314,2068
1631118271318,2071
1631118271322,2074
1631118271326,2077
1631118271330,2079
1631118271334,2081
1631118271338,2083
1631118271342,2085
1631118271346,2087
1631118271350,2090
1631118271354,2093
1631118271358,2097
1631118271362,2100
1631118271366,2103
1631118271370,2106
1631118271374,2108
1631118271378,2110
1631118271382,2111
1631118271386,2114
1631118271390,2116
1631118271394,2118
1631118271398,2119
1631118271402,2119
1631118271406,2119
1631118271410,2119
1631118271414,2118
1631118271418,2118
1631118271422,2117
1631118271426,2114
1631118271430,2109
1631118271434,2102
1631118271438,2094
1631118271442,2084
1631118271446,2073
1631118271450,2063
1631118271454,2053
1631118271458,2047
1631118271462,2041
1631118271466,2036
1631118271470,2032
1631118271474,2027
1631118271478,2023
1631118271482,2019
1631118271486,2016
1631118271490,2015
1631118271494,2016
1631118271498,2017
1631118271502,2018
1631118271506,2019
1631118271510,2020
1631118271514,2020
1631118271518,2019
1631118271522,2019
1631118271526,2018
1631118271530,2019
1631118271534,2020
1631118271538,2021
1631118271542,2023
1631118271546,2024
1631118271550,2025
1631118271554,2025
1631118271558,2024
1631118271562,2023
1631118271566,2023
1631118271570,2023
1631118271574,2023
1631118271578,2023
1631118271582,2024
1631118271586,2024
1631118271590,2023
1631118271594,2022
1631118271598,2022
1631118271602,2022
1631118271606,2023
1631118271610,2024
1631118271614,2023
1631118271618,2023
1631118271622,2023
1631118271626,2024
1631118271630,2026
1631118271634,2028
1631118271638,2029
1631118271642,2029
1631118271646,2028
1631118271650,2026
1631118271654,2026
1631118271658,2025
1631118271662,2025
1631118271666,2026
1631118271670,2026
1631118271674,2025
1631118271678,2024
1631118271682,2022
1631118271686,2021
1631118271690,2022
1631118271694,2025
1631118271698,2028
1631118271702,2031
1631118271706,2032
1631118271710,2030
1631118271714,2028
1631118271718,2027
1631118271722,2027
1631118271726,2029
1631118271730,2032
1631118271734,2034
1631118271738,2037
1631118271742,2039
1631118271746,2040
1631118271750,2041
1631118271754,2041
1631118271758,2040
1631118271762,2039
1631118271766,2037
1631118271770,2036
1631118271774,2035
1631118271778,2035
1631118271782,2036
1631118271786,2036
1631118271790,2036
1631118271794,2035
1631118271798,2033
1631118271802,2032
1631118271806,2031
1631118271810,2031
1631118271814,2032
1631118271818,2034
1631118271822,2036
1631118271826,2036
1631118271830,2034
1631118271834,2032
1631118271838,2030
1631118271842,2029
1631118271846,2030
1631118271850,2032
1631118271854,2035
1631118271858,2036
1631118271862,2037
1631118271866,2036
1631118271870,2033
1631118271874,2028
1631118271878,2022
1631118271882,2018
1631118271886,2020
1631118271890,2035
1631118271894,2071
1631118271898,2125
1631118271902,2185
1631118271906,2230
1631118271910,2239
1631118271914,2205
1631118271918,2141
1631118271922,2070
1631118271926,2018
1631118271930,1995
1631118271934,2000
1631118271938,2018
1631118271942,2035
1631118271946,2043
1631118271950,2044
1631118271954,2042
1631118271958,2041
1631118271962,2042
1631118271966,2043
1631118271970,2043
1631118271974,2044
1631118271978,2044
1631118271982,2045
1631118271986,2047
1631118271990,2048
1631118271994,2050
1631118271998,2052
1631118272002,2053
1631118272006,2054
1631118272010,2054
1631118272014,2055
1631118272018,2056
1631118272022,2057
1631118272026,2060
1631118272030,2063
1631118272034,2066
1631118272038,2067
1631118272042,2068
1631118272046,2068
1631118272050,2068
1631118272054,2068
1631118272058,2070
1631118272062,2072
1631118272066,2076
1631118272070,2080
1631118272074,2083
1631118272078,2085
1631118272082,2087
1631118272086,2089
1631118272090,2091
1631118272094,2095
1631118272098,2100
1631118272102,2104
1631118272106,2108
1631118272110,2112
1631118272114,2114
1631118272118,2117
1631118272122,2119
1631118272126,2121
1631118272130,2123
1631118272134,2126
1631118272138,2129
1631118272142,2132
1631118272146,2135
1631118272150,2137
1631118272154,2137
1631118272158,2136
1631118272162,2135
1631118272166,2132
1631118272170,2127
1631118272174,2121
1631118272178,2114
1631118272182,2106
1631118272186,2098
1631118272190,2090
1631118272194,2081
1631118272198,2073
1631118272202,2066
1631118272206,2060
1631118272210,2055
1631118272214,2051
1631118272218,2048
1631118272222,2048
1631118272226,2047
1631118272230,2046
1631118272234,2046
1631118272238,2045
1631118272242,2043
1631118272246,2041
1631118272250,2041
1631118272254,2042
1631118272258,2043
1631118272262,2046
1631118272266,2048
1631118272270,2048
1631118272274,2048
1631118272278,2048
1631118272282,2048
1631118272286,2048
1631118272290,2048
1631118272294,2049
1631118272298,2050
1631118272302,2052
1631118272306,2053
1631118272310,2054
1631118272314,2055
1631118272318,2056
1631118272322,2056
1631118272326,2056
1631118272330,2055
1631118272334,2054
1631118272338,2054
1631118272342,2054
1631118272346,2053
1631118272350,2053
1631118272354,2052
1631118272358,2052
1631118272362,2051
1631118272366,2050
1631118272370,2049
1631118272374,2049
1631118272378,2049
1631118272382,2049
1631118272386,2049
1631118272390,2050
1631118272394,2050
1631118272398,2050
1631118272402,2050
1631118272406,2050
1631118272410,2050
1631118272414,2051
1631118272418,2052
1631118272422,2053
1631118272426,2054
1631118272430,2055
1631118272434,2055
1631118272438,2054
1631118272442,2052
1631118272446,2051
1631118272450,2050
1631118272454,2051
1631118272458,2052
1631118272462,2055
1631118272466,2057
1631118272470,2059
1631118272474,2060
1631118272478,2059
1631118272482,2058
1631118272486,2056
1631118272490,2055
1631118272494,2054
1631118272498,2054
1631118272502,2055
1631118272506,2057
1631118272510,2060
1631118272514,2064
1631118272518,2067
1631118272522,2070
1631118272526,2072
1631118272530,2073
1631118272534,2074
1631118272538,2076
1631118272542,2077
1631118272546,2078
1631118272550,2079
1631118272554,2078
1631118272558,2076
1631118272562,2073
1631118272566,2070
1631118272570,2067
1631118272574,2066
1631118272578,2066
1631118272582,2067
1631118272586,2070
1631118272590,2072
1631118272594,2072
1631118272598,2071
1631118272602,2069
1631118272606,2067
1631118272610,2066
1631118272614,2064
1631118272618,2064
1631118272622,2063
1631118272626,2062
1631118272630,2062
1631118272634,2062
1631118272638,2062
1631118272642,2062
1631118272646,2063
1631118272650,2062
1631118272654,2061
1631118272658,2056
1631118272662,2050
1631118272666,2046
1631118272670,2048
1631118272674,2064
1631118272678,2098
1631118272682,2147
1631118272686,2203
1631118272690,2250
1631118272694,2269
1631118272698,2250
1631118272702,2199
1631118272706,2132
1631118272710,2073
1631118272714,2040
1631118272718,2032
1631118272722,2042
1631118272726,2054
1631118272730,2061
1631118272734,2062
1631118272738,2058
1631118272742,2056
1631118272746,2056
1631118272750,2057
1631118272754,2057
1631118272758,2057
1631118272762,2057
1631118272766,2057
1631118272770,2057
1631118272774,2059
1631118272778,2062
1631118272782,2065
1631118272786,2068
1631118272790,2069
1631118272794,2069
1631118272798,2068
1631118272802,2067
1631118272806,2067
1631118272810,2066
1631118272814,2065
1631118272818,2065
1631118272822,2067
1631118272826,2071
1631118272830,2076
1631118272834,2080
1631118272838,2082
1631118272842,2083
1631118272846,2083
1631118272850,2083
1631118272854,2083
1631118272858,2085
1631118272862,2088
1631118272866,2090
1631118272870,2093
1631118272874,2095
1631118272878,2098
1631118272882,2101
1631118272886,2104
1631118272890,2107
1631118272894,2110
1631118272898,2113
1631118272902,2117
1631118272906,2121
1631118272910,2124
1631118272914,2127
1631118272918,2129
1631118272922,2130
1631118272926,2131
1631118272930,2131
1631118272934,2132
1631118272938,2133
1631118272942,2133
1631118272946,2133
1631118272950,2130
1631118272954,2126
1631118272958,2120
1631118272962,2112
1631118272966,2104
1631118272970,2095
1631118272974,2086
1631118272978,2078
1631118272982,2071
1631118272986,2064
1631118272990,2058
1631118272994,2051
1631118272998,2046
1631118273002,2042
1631118273006,2039
1631118273010,2038
1631118273014,2037
1631118273018,2035
1631118273022,2034
1631118273026,2032
1631118273030,2032
1631118273034,2032
1631118273038,2034
1631118273042,2035
1631118273046,2036
1631118273050,2036
1631118273054,2036
1631118273058,2037
1631118273062,2037
1631118273066,2037
1631118273070,2038
1631118273074,2038
1631118273078,2039
1631118273082,2039
1631118273086,2040
1631118273090,2040
1631118273094,2039
1631118273098,2037
1631118273102,2037
1631118273106,2037
1631118273110,2039
1631118273114,2042
1631118273118,2044
1631118273122,2044
1631118273126,2044
1631118273130,2042
1631118273134,2041
1631118273138,2040
1631118273142,2039
1631118273146,2039
1631118273150,2038
1631118273154,2038
1631118273158,2039
1631118273162,2039
1631118273166,2039
1631118273170,2039
1631118273174,2039
1631118273178,2038
1631118273182,2039
1631118273186,2039
1631118273190,2039
1631118273194,2040
1631118273198,2040
1631118273202,2039
1631118273206,2038
1631118273210,2037
1631118273214,2037
1631118273218,2038
1631118273222,2041
1631118273226,2044
1631118273230,2045
1631118273234,2044
1631118273238,2041
1631118273242,2037
1631118273246,2036
1631118273250,2037
1631118273254,2041
1631118273258,2045
1631118273262,2048
1631118273266,2048
1631118273270,2048
1631118273274,2048
1631118273278,2048
1631118273282,2050
1631118273286,2051
1631118273290,2053
1631118273294,2054
1631118273298,2054
1631118273302,2054
1631118273306,2054
1631118273310,2052
1631118273314,2050
1631118273318,2048
1631118273322,2046
1631118273326,2045
1631118273330,2045
1631118273334,2046
1631118273338,2047
1631118273342,2047
1631118273346,2046
1631118273350,2045
1631118273354,2044
1631118273358,2044
1631118273362,2043
1631118273366,2042
1631118273370,2041
1631118273374,2041
1631118273378,2041
1631118273382,2041
1631118273386,2042
1631118273390,2042
1631118273394,2042
1631118273398,2042
1631118273402,2042
1631118273406,2042
1631118273410,2042
1631118273414,2041
1631118273418,2037
1631118273422,2031
1631118273426,2027
1631118273430,2030
1631118273434,2046
1631118273438,2081
1631118273442,2134
1631118273446,2194
1631118273450,2244
1631118273454,2262
1631118273458,2239
1631118273462,2180
1631118273466,2108
1631118273470,2048
1631118273474,2018
1631118273478,2015
1631118273482,2029
1631118273486,2043
1631118273490,2049
1631118273494,2048
1631118273498,2046
1631118273502,2045
1631118273506,2045
1631118273510,2047
1631118273514,2048
1631118273518,2048
1631118273522,2048
1631118273526,2048
1631118273530,2048
1631118273534,2049
1631118273538,2051
1631118273542,2054
1631118273546,2057
1631118273550,2059
1631118273554,2060
1631118273558,2060
1631118273562,2061
1631118273566,2062
1631118273570,2064
1631118273574,2064
1631118273578,2065
1631118273582,2067
1631118273586,2070
1631118273590,2073
1631118273594,2075
1631118273598,2078
1631118273602,2079
1631118273606,2080
1631118273610,2081
1631118273614,2082
1631118273618,2084
1631118273622,2086
1631118273626,2089
1631118273630,2093
1631118273634,2097
1631118273638,2101
1631118273642,2104
1631118273646,2106
1631118273650,2107
1631118273654,2109
1631118273658,2112
1631118273662,2115
1631118273666,2120
1631118273670,2125
1631118273674,2130
1631118273678,2134
1631118273682,2136
1631118273686,2137
1631118273690,2137
1631118273694,2136
1631118273698,2135
1631118273702,2135
1631118273706,2134
1631118273710,2131
1631118273714,2127
1631118273718,2120
1631118273722,2112
1631118273726,2103
1631118273730,2093
1631118273734,2084
1631118273738,2075
1631118273742,2068
1631118273746,2061
1631118273750,2055
1631118273754,2050
1631118273758,2046
1631118273762,2042
1631118273766,2037
1631118273770,2034
1631118273774,2032
1631118273778,2031
1631118273782,2031
1631118273786,2032
1631118273790,2032
1631118273794,2033
1631118273798,2034
1631118273802,2035
1631118273806,2035
1631118273810,2034
1631118273814,2033
1631118273818,2032
1631118273822,2032
1631118273826,2032
1631118273830,2033
1631118273834,2034
1631118273838,2035
1631118273842,2036
1631118273846,2036
1631118273850,2037
1631118273854,2038
1631118273858,2039
1631118273862,2040
1631118273866,2041
1631118273870,2041
1631118273874,2042
1631118273878,2041
1631118273882,2041
1631118273886,2041
1631118273890,2040
1631118273894,2040
1631118273898,2041
1631118273902,2042
1631118273906,2043
1631118273910,2042
1631118273914,2042
1631118273918,2040
1631118273922,2040
1631118273926,2040
1631118273930,2040
1631118273934,2041
1631118273938,2042
1631118273942,2042
1631118273946,2042
1631118273950,2042
1631118273954,2042
1631118273958,2043
1631118273962,2045
1631118273966,2046
1631118273970,2046
1631118273974,2046
1631118273978,2046
1631118273982,2045
1631118273986,2045
1631118273990,2044
1631118273994,2043
1631118273998,2043
1631118274002,2044
1631118274006,2046
1631118274010,2048
1631118274014,2051
1631118274018,2053
1631118274022,2055
1631118274026,2056
1631118274030,2056
1631118274034,2055
1631118274038,2054
1631118274042,2053
1631118274046,2052
1631118274050,2050
1631118274054,2049
1631118274058,2048
1631118274062,2048
1631118274066,2048
1631118274070,2048
1631118274074,2048
1631118274078,2048
1631118274082,2048
1631118274086,2048
1631118274090,2048
1631118274094,2048
1631118274098,2048
1631118274102,2048
1631118274106,2048
1631118274110,2048
1631118274114,2049
1631118274118,2049
1631118274122,2049
1631118274126,2048
1631118274130,2048
1631118274134,2048
1631118274138,2049
1631118274142,2049
1631118274146,2048
1631118274150,2044
1631118274154,2038
1631118274158,2034
1631118274162,2038
1631118274166,2057
1631118274170,2097
1631118274174,2153
1631118274178,2212
1631118274182,2253
1631118274186,2258
1631118274190,2221
1631118274194,2154
1631118274198,2082
1631118274202,2032
1631118274206,2011
1631118274210,2017
1631118274214,2035
1631118274218,2050
1631118274222,2056
1631118274226,2057
1631118274230,2055
1631118274234,2054
1631118274238,2055
1631118274242,2055
1631118274246,2054
1631118274250,2055
1631118274254,2055
1631118274258,2056
1631118274262,2058
1631118274266,2059
1631118274270,2061
1631118274274,2062
1631118274278,2064
1631118274282,2065
1631118274286,2066
1631118274290,2066
1631118274294,2067
1631118274298,2068
1631118274302,2070
1631118274306,2071
1631118274310,2073
1631118274314,2074
1631118274318,2075
1631118274322,2076
1631118274326,2076
1631118274330,2077
1631118274334,2078
1631118274338,2080
1631118274342,2083
1631118274346,2086
1631118274350,2089
1631118274354,2091
1631118274358,2092
1631118274362,2093
1631118274366,2095
1631118274370,2098
1631118274374,2101
1631118274378,2104
1631118274382,2107
1631118274386,2111
1631118274390,2114
1631118274394,2117
1631118274398,2121
1631118274402,2123
1631118274406,2125
1631118274410,2127
1631118274414,2128
1631118274418,2129
1631118274422,2130
1631118274426,2131
1631118274430,2132
1631118274434,2130
1631118274438,2127
1631118274442,2121
1631118274446,2114
1631118274450,2106
1631118274454,2098
1631118274458,2089
1631118274462,2081
1631118274466,2073
1631118274470,2066
1631118274474,2058
1631118274478,2050
1631118274482,2045
1631118274486,2040
1631118274490,2036
1631118274494,2033
1631118274498,2031
1631118274502,2030
1631118274506,2029
1631118274510,2028
1631118274514,2028
1631118274518,2027
1631118274522,2026
1631118274526,2025
1631118274530,2025
1631118274534,2025
1631118274538,2025
1631118274542,2027
1631118274546,2028
1631118274550,2029
1631118274554,2029
1631118274558,2029
1631118274562,2029
1631118274566,2029
1631118274570,2029
1631118274574,2029
1631118274578,2029
1631118274582,2030
1631118274586,2031
1631118274590,2032
1631118274594,2032
1631118274598,2032
1631118274602,2031
1631118274606,2030
1631118274610,2030
1631118274614,2030
1631118274618,2030
1631118274622,2031
1631118274626,2031
1631118274630,2032
1631118274634,2032
1631118274638,2032
1631118274642,2033
1631118274646,2033
1631118274650,2033
1631118274654,2033
1631118274658,2034
1631118274662,2034
1631118274666,2034
1631118274670,2034
1631118274674,2034
1631118274678,2034
1631118274682,2034
1631118274686,2034
1631118274690,2033
1631118274694,2033
1631118274698,2034
1631118274702,2035
1631118274706,2036
1631118274710,2037
1631118274714,2038
1631118274718,2038
1631118274722,2038
1631118274726,2037
1631118274730,2036
1631118274734,2035
1631118274738,2035
1631118274742,2035
1631118274746,2035
1631118274750,2035
1631118274754,2034
1631118274758,2033
1631118274762,2033
1631118274766,2034
1631118274770,2035
1631118274774,2037
1631118274778,2039
1631118274782,2042
1631118274786,2044
1631118274790,2047
1631118274794,2048
1631118274798,2049
1631118274802,2050
1631118274806,2050
1631118274810,2050
1631118274814,2049
1631118274818,2049
1631118274822,2048
1631118274826,2048
1631118274830,2048
1631118274834,2047
1631118274838,2048
1631118274842,2048
1631118274846,2048
1631118274850,2047
1631118274854,2047
1631118274858,2046
1631118274862,2047
1631118274866,2048
1631118274870,2048
1631118274874,2048
1631118274878,2048
1631118274882,2048
1631118274886,2047
1631118274890,2047
1631118274894,2048
1631118274898,2048
1631118274902,2049
1631118274906,2050
1631118274910,2050
1631118274914,2048
1631118274918,2043
1631118274922,2036
1631118274926,2032
1631118274930,2038
1631118274934,2057
1631118274938,2094
1631118274942,2146
1631118274946,2202
1631118274950,2247
1631118274954,2263
1631118274958,2241
1631118274962,2188
1631118274966,2122
1631118274970,2066
1631118274974,2035
1631118274978,2029
1631118274982,2039
1631118274986,2051
1631118274990,2057
1631118274994,2056
1631118274998,2053
1631118275002,2052
1631118275006,2052
1631118275010,2053
1631118275014,2052
1631118275018,2052
1631118275022,2052
1631118275026,2052
1631118275030,2054
1631118275034,2055
1631118275038,2056
1631118275042,2057
1631118275046,2058
1631118275050,2060
1631118275054,2061
1631118275058,2063
1631118275062,2064
1631118275066,2065
1631118275070,2065
1631118275074,2064
1631118275078,2064
1631118275082,2065
1631118275086,2067
1631118275090,2068
1631118275094,2071
1631118275098,2073
1631118275102,2076
1631118275106,2078
1631118275110,2079
1631118275114,2081
1631118275118,2082
1631118275122,2084
1631118275126,2086
1631118275130,2088
1631118275134,2091
1631118275138,2094
1631118275142,2097
1631118275146,2100
1631118275150,2103
1631118275154,2107
1631118275158,2110
1631118275162,2113
1631118275166,2116
1631118275170,2118
1631118275174,2121
1631118275178,2124
1631118275182,2128
1631118275186,2131
1631118275190,2134
1631118275194,2137
1631118275198,2137
1631118275202,2136
1631118275206,2133
1631118275210,2130
1631118275214,2125
1631118275218,2119
1631118275222,2113
1631118275226,2105
1631118275230,2097
1631118275234,2088
1631118275238,2080
1631118275242,2072
1631118275246,2065
1631118275250,2059
1631118275254,2054
1631118275258,2049
1631118275262,2046
1631118275266,2043
1631118275270,2042
1631118275274,2041
1631118275278,2040
1631118275282,2039
1631118275286,2038
1631118275290,2037
1631118275294,2036
1631118275298,2036
1631118275302,2036
1631118275306,2036
1631118275310,2037
1631118275314,2037
1631118275318,2038
1631118275322,2038
1631118275326,2038
1631118275330,2038
1631118275334,2038
1631118275338,2039
1631118275342,2040
1631118275346,2041
1631118275350,2041
1631118275354,2041
1631118275358,2041
1631118275362,2040
1631118275366,2040
1631118275370,2039
1631118275374,2039
1631118275378,2039
1631118275382,2040
1631118275386,2042
1631118275390,2043
1631118275394,2043
1631118275398,2043
1631118275402,2043
1631118275406,2043
1631118275410,2043
1631118275414,2044
1631118275418,2045
1631118275422,2046
1631118275426,2047
1631118275430,2047
1631118275434,2046
1631118275438,2045
1631118275442,2045
1631118275446,2044
1631118275450,2044
1631118275454,2045
1631118275458,2046
1631118275462,2047
1631118275466,2048
1631118275470,2048
1631118275474,2048
1631118275478,2047
1631118275482,2046
1631118275486,2044
1631118275490,2044
1631118275494,2044
1631118275498,2045
1631118275502,2047
1631118275506,2048
1631118275510,2049
1631118275514,2048
1631118275518,2047
1631118275522,2045
1631118275526,2044
1631118275530,2045
1631118275534,2047
1631118275538,2049
1631118275542,2052
1631118275546,2055
1631118275550,2056
1631118275554,2058
1631118275558,2058
1631118275562,2059
1631118275566,2059
1631118275570,2059
1631118275574,2060
1631118275578,2059
1631118275582,2059
1631118275586,2057
1631118275590,2055
1631118275594,2053
1631118275598,2052
1631118275602,2051
1631118275606,2051
1631118275610,2050
1631118275614,2050
1631118275618,2050
1631118275622,2050
1631118275626,2051
1631118275630,2051
1631118275634,2051
1631118275638,2050
1631118275642,2049
1631118275646,2049
1631118275650,2049
1631118275654,2050
1631118275658,2050
1631118275662,2050
1631118275666,2049
1631118275670,2049
1631118275674,2050
1631118275678,2052
1631118275682,2053
1631118275686,2051
1631118275690,2047
1631118275694,2040
1631118275698,2036
1631118275702,2041
1631118275706,2060
1631118275710,2097
1631118275714,2149
1631118275718,2205
1631118275722,2248
1631118275726,2260
1631118275730,2234
1631118275734,2179
1631118275738,2112
1631118275742,2058
1631118275746,2031
1631118275750,2028
1631118275754,2040
1631118275758,2051
1631118275762,2057
1631118275766,2057
1631118275770,2055
1631118275774,2053
1631118275778,2054
1631118275782,2054
1631118275786,2054
1631118275790,2054
1631118275794,2054
1631118275798,2054
1631118275802,2054
1631118275806,2054
1631118275810,2055
1631118275814,2056
1631118275818,2058
1631118275822,2059
1631118275826,2060
1631118275830,2061
1631118275834,2062
1631118275838,2062
1631118275842,2063
1631118275846,2063
1631118275850,2064
1631118275854,2066
1631118275858,2067
1631118275862,2069
1631118275866,2070
1631118275870,2072
1631118275874,2073
1631118275878,2074
1631118275882,2074
1631118275886,2075
1631118275890,2076
1631118275894,2079
1631118275898,2082
1631118275902,2086
1631118275906,2089
1631118275910,2093
1631118275914,2096
1631118275918,2099
1631118275922,2102
1631118275926,2105
1631118275930,2108
1631118275934,2111
1631118275938,2114
1631118275942,2117
1631118275946,2119
1631118275950,2122
1631118275954,2124
1631118275958,2125
1631118275962,2126
1631118275966,2126
1631118275970,2125
1631118275974,2124
1631118275978,2122
1631118275982,2119
1631118275986,2115
1631118275990,2109
1631118275994,2102
1631118275998,2094
1631118276002,2085
1631118276006,2076
1631118276010,2067
1631118276014,2059
1631118276018,2052
1631118276022,2046
1631118276026,2041
1631118276030,2037
1631118276034,2034
1631118276038,2032
1631118276042,2030
1631118276046,2028
1631118276050,2026
1631118276054,2025
1631118276058,2024
1631118276062,2024
1631118276066,2026
1631118276070,2027
1631118276074,2028
1631118276078,2027
1631118276082,2026
1631118276086,2025
1631118276090,2025
1631118276094,2025
1631118276098,2027
1631118276102,2029
1631118276106,2030
1631118276110,2030
1631118276114,2030
1631118276118,2029
1631118276122,2028
1631118276126,2027
1631118276130,2027
1631118276134,2028
1631118276138,2029
1631118276142,2030
1631118276146,2031
1631118276150,2032
1631118276154,2032
1631118276158,2032
1631118276162,2031
1631118276166,2030
1631118276170,2030
1631118276174,2029
1631118276178,2029
1631118276182,2030
1631118276186,2031
1631118276190,2032
1631118276194,2033
1631118276198,2033
1631118276202,2032
1631118276206,2032
1631118276210,2031
1631118276214,2031
1631118276218,2031
1631118276222,2032
1631118276226,2033
1631118276230,2034
1631118276234,2034
1631118276238,2034
1631118276242,2033
1631118276246,2032
1631118276250,2032
1631118276254,2032
1631118276258,2032
1631118276262,2033
1631118276266,2033
1631118276270,2033
1631118276274,2032
1631118276278,2032
1631118276282,2031
1631118276286,2032
1631118276290,2033
1631118276294,2035
1631118276298,2036
1631118276302,2037
1631118276306,2037
1631118276310,2035
1631118276314,2034
1631118276318,2033
1631118276322,2032
1631118276326,2031
1631118276330,2030
1631118276334,2031
1631118276338,2032
1631118276342,2034
1631118276346,2036
1631118276350,2038
1631118276354,2040
1631118276358,2042
1631118276362,2042
1631118276366,2042
1631118276370,2042
1631118276374,2043
1631118276378,2044
1631118276382,2045
1631118276386,2046
1631118276390,2045
1631118276394,2043
1631118276398,2042
1631118276402,2040
1631118276406,2038
1631118276410,2038
1631118276414,2038
1631118276418,2039
1631118276422,2040
1631118276426,2041
1631118276430,2041
1631118276434,2040
1631118276438,2039
1631118276442,2038
1631118276446,2037
1631118276450,2037
1631118276454,2038
1631118276458,2038
1631118276462,2038
1631118276466,2038
1631118276470,2038
1631118276474,2038
1631118276478,2039
1631118276482,2039
1631118276486,2040
1631118276490,2040
1631118276494,2038
1631118276498,2035
1631118276502,2029
1631118276506,2024
1631118276510,2024
1631118276514,2034
1631118276518,2057
1631118276522,2099
1631118276526,2153
1631118276530,2208
1631118276534,2243
1631118276538,2242
1631118276542,2205
1631118276546,2143
1631118276550,2078
1631118276554,2034
1631118276558,2016
1631118276562,2021
1631118276566,2036
1631118276570,2047
1631118276574,2050
1631118276578,2048
1631118276582,2045
1631118276586,2044
1631118276590,2044
1631118276594,2045
1631118276598,2046
1631118276602,2047
1631118276606,2048
1631118276610,2048
1631118276614,2048
1631118276618,2048
1631118276622,2049
1631118276626,2050
1631118276630,2052
1631118276634,2053
1631118276638,2055
1631118276642,2055
1631118276646,2056
1631118276650,2057
1631118276654,2059
1631118276658,2060
1631118276662,2062
1631118276666,2063
1631118276670,2064
1631118276674,2065
1631118276678,2066
1631118276682,2067
1631118276686,2069
1631118276690,2070
1631118276694,2072
1631118276698,2074
1631118276702,2076
1631118276706,2079
1631118276710,2081
1631118276714,2083
1631118276718,2086
1631118276722,2088
1631118276726,2090
1631118276730,2092
1631118276734,2095
1631118276738,2098
1631118276742,2102
1631118276746,2107
1631118276750,2110
1631118276754,2113
1631118276758,2115
1631118276762,2117
1631118276766,2118
1631118276770,2119
1631118276774,2120
1631118276778,2120
1631118276782,2120
1631118276786,2119
1631118276790,2116
1631118276794,2112
1631118276798,2107
1631118276802,2101
1631118276806,2093
1631118276810,2086
1631118276814,2078
1631118276818,2069
1631118276822,2061
1631118276826,2054
1631118276830,2048
1631118276834,2042
1631118276838,2037
1631118276842,2033
1631118276846,2029
1631118276850,2027
1631118276854,2025
1631118276858,2023
1631118276862,2022
1631118276866,2022
1631118276870,2022
1631118276874,2022
1631118276878,2022
1631118276882,2022
1631118276886,2021
1631118276890,2022
1631118276894,2023
1631118276898,2024
1631118276902,2025
1631118276906,2025
1631118276910,2025
1631118276914,2025
1631118276918,2025
1631118276922,2025
1631118276926,2024
1631118276930,2024
1631118276934,2024
1631118276938,2025
1631118276942,2026
1631118276946,2027
1631118276950,2026
1631118276954,2026
1631118276958,2026
1631118276962,2025
1631118276966,2026
1631118276970,2026
1631118276974,2027
1631118276978,2027
1631118276982,2028
1631118276986,2028
1631118276990,2029
1631118276994,2029
1631118276998,2029
1631118277002,2029
1631118277006,2029
1631118277010,2029
1631118277014,2029
1631118277018,2029
1631118277022,2029
1631118277026,2029
1631118277030,2029
1631118277034,2029
1631118277038,2029
1631118277042,2029
1631118277046,2028
1631118277050,2028
1631118277054,2027
1631118277058,2027
1631118277062,2027
1631118277066,2028
1631118277070,2029
1631118277074,2030
1631118277078,2030
1631118277082,2030
1631118277086,2029
1631118277090,2029
1631118277094,2028
1631118277098,2028
1631118277102,2029
1631118277106,2029
1631118277110,2030
1631118277114,2031
1631118277118,2031
1631118277122,2031
1631118277126,2030
1631118277130,2030
1631118277134,2030
1631118277138,2030
1631118277142,2031
1631118277146,2032
1631118277150,2032
1631118277154,2032
1631118277158,2032
1631118277162,2032
1631118277166,2031
1631118277170,2031
1631118277174,2030
1631118277178,2029
1631118277182,2029
1631118277186,2028
1631118277190,2028
1631118277194,2028
1631118277198,2029
1631118277202,2030
1631118277206,2032
1631118277210,2035
1631118277214,2038
1631118277218,2041
1631118277222,2042
1631118277226,2042
1631118277230,2041
1631118277234,2041
1631118277238,2041
1631118277242,2042
1631118277246,2042
1631118277250,2041
1631118277254,2039
1631118277258,2037
1631118277262,2034
1631118277266,2032
1631118277270,2032
1631118277274,2032
1631118277278,2033
1631118277282,2032
1631118277286,2031
1631118277290,2029
1631118277294,2028
1631118277298,2027
1631118277302,2028
1631118277306,2028
1631118277310,2028
1631118277314,2027
1631118277318,2026
1631118277322,2025
1631118277326,2024
1631118277330,2024
1631118277334,2024
1631118277338,2025
1631118277342,2027
1631118277346,2030
1631118277350,2032
1631118277354,2031
1631118277358,2027
1631118277362,2020
1631118277366,2012
1631118277370,2010
1631118277374,2018
1631118277378,2044
1631118277382,2087
1631118277386,2144
1631118277390,2197
1631118277394,2228
1631118277398,2220
1631118277402,2174
1631118277406,2107
1631118277410,2044
1631118277414,2003
1631118277418,1991
1631118277422,2001
1631118277426,2017
1631118277430,2027
1631118277434,2028
1631118277438,2024
1631118277442,2020
1631118277446,2019
1631118277450,2019
1631118277454,2020
1631118277458,2022
1631118277462,2023
1631118277466,2025
1631118277470,2027
1631118277474,2028
1631118277478,2029
1631118277482,2030
1631118277486,2031
1631118277490,2031
1631118277494,2032
1631118277498,2034
1631118277502,2035
1631118277506,2037
1631118277510,2040
1631118277514,2041
1631118277518,2043
1631118277522,2044
1631118277526,2045
1631118277530,2046
1631118277534,2047
1631118277538,2048
1631118277542,2050
1631118277546,2052
1631118277550,2054
1631118277554,2057
1631118277558,2058
1631118277562,2060
1631118277566,2061
1631118277570,2063
1631118277574,2066
1631118277578,2068
1631118277582,2071
1631118277586,2073
1631118277590,2076
1631118277594,2079
1631118277598,2082
1631118277602,2086
1631118277606,2089
1631118277610,2092
1631118277614,2095
1631118277618,2098
1631118277622,2100
1631118277626,2101
1631118277630,2103
1631118277634,2104
1631118277638,2104
1631118277642,2104
1631118277646,2103
1631118277650,2102
1631118277654,2099
1631118277658,2094
1631118277662,2089
1631118277666,2082
1631118277670,2075
1631118277674,2068
1631118277678,2059
1631118277682,2050
1631118277686,2042
1631118277690,2034
1631118277694,2027
1631118277698,2022
1631118277702,2018
1631118277706,2014
1631118277710,2011
1631118277714,2009
1631118277718,2007
1631118277722,2006
1631118277726,2005
1631118277730,2004
1631118277734,2004
1631118277738,2003
1631118277742,2003
1631118277746,2003
1631118277750,2004
1631118277754,2006
1631118277758,2007
1631118277762,2008
1631118277766,2008
1631118277770,2008
1631118277774,2008
1631118277778,2008
1631118277782,2009
1631118277786,2010
1631118277790,2011
1631118277794,2011
1631118277798,2011
1631118277802,2010
1631118277806,2009
1631118277810,2009
1631118277814,2010
1631118277818,2010
1631118277822,2011
1631118277826,2012
1631118277830,2013
1631118277834,2013
1631118277838,2013
1631118277842,2013
1631118277846,2012
1631118277850,2012
1631118277854,2013
1631118277858,2014
1631118277862,2015
1631118277866,2015
1631118277870,2015
1631118277874,2015
1631118277878,2014
1631118277882,2015
1631118277886,2015
1631118277890,2015
1631118277894,2015
1631118277898,2015
1631118277902,2015
1631118277906,2016
1631118277910,2017
1631118277914,2018
1631118277918,2018
1631118277922,2019
1631118277926,2018
1631118277930,2017
1631118277934,2016
1631118277938,2016
1631118277942,2016
1631118277946,2017
1631118277950,2017
1631118277954,2017
1631118277958,2017
1631118277962,2017
1631118277966,2017
1631118277970,2018
1631118277974,2019
1631118277978,2021
1631118277982,2022
1631118277986,2023
1631118277990,2023
1631118277994,2023
1631118277998,2023
1631118278002,2023
1631118278006,2022
1631118278010,2023
1631118278014,2024
1631118278018,2024
1631118278022,2025
1631118278026,2025
1631118278030,2024
1631118278034,2023
1631118278038,2022
1631118278042,2021
1631118278046,2021
1631118278050,2022
1631118278054,2023
1631118278058,2026
1631118278062,2028
1631118278066,2031
1631118278070,2034
1631118278074,2035
1631118278078,2035
1631118278082,2034
1631118278086,2034
1631118278090,2034
1631118278094,2034
1631118278098,2035
1631118278102,2035
1631118278106,2034
1631118278110,2033
1631118278114,2032
1631118278118,2031
1631118278122,2031
1631118278126,2031
1631118278130,2032
1631118278134,2032
1631118278138,2033
1631118278142,2032
1631118278146,2032
1631118278150,2032
1631118278154,2032
1631118278158,2032
1631118278162,2031
1631118278166,2031
1631118278170,2031
1631118278174,2032
1631118278178,2033
1631118278182,2034
1631118278186,2034
1631118278190,2034
1631118278194,2033
1631118278198,2034
1631118278202,2035
1631118278206,2036
1631118278210,2036
1631118278214,2034
1631118278218,2029
1631118278222,2023
1631118278226,2023
1631118278230,2032
1631118278234,2057
1631118278238,2103
1631118278242,2160
1631118278246,2213
1631118278250,2239
1631118278254,2225
1631118278258,2172
1631118278262,2100
1631118278266,2036
1631118278270,1999
1631118278274,1993
1631118278278,2007
1631118278282,2027
1631118278286,2040
1631118278290,2043
1631118278294,2043
1631118278298,2042
1631118278302,2042
1631118278306,2043
1631118278310,2045
1631118278314,2046
1631118278318,2048
1631118278322,2048
1631118278326,2048
1631118278330,2049
1631118278334,2049
1631118278338,2050
1631118278342,2052
1631118278346,2055
1631118278350,2057
1631118278354,2058
1631118278358,2058
1631118278362,2058
1631118278366,2059
1631118278370,2061
1631118278374,2064
1631118278378,2066
1631118278382,2068
1631118278386,2069
1631118278390,2071
1631118278394,2072
1631118278398,2074
1631118278402,2075
1631118278406,2077
1631118278410,2078
1631118278414,2080
1631118278418,2082
1631118278422,2085
1631118278426,2088
1631118278430,2090
1631118278434,2093
1631118278438,2095
1631118278442,2097
1631118278446,2099
1631118278450,2102
1631118278454,2106
1631118278458,2110
1631118278462,2115
1631118278466,2119
1631118278470,2121
1631118278474,2122
1631118278478,2123
1631118278482,2124
1631118278486,2125
1631118278490,2126
1631118278494,2128
1631118278498,2129
1631118278502,2129
1631118278506,2128
1631118278510,2124
1631118278514,2118
1631118278518,2111
1631118278522,2102
1631118278526,2093
1631118278530,2083
1631118278534,2074
1631118278538,2065
1631118278542,2057
1631118278546,2050
1631118278550,2045
1631118278554,2040
1631118278558,2036
1631118278562,2031
1631118278566,2027
1631118278570,2024
1631118278574,2023
1631118278578,2022
1631118278582,2022
1631118278586,2022
1631118278590,2023
1631118278594,2024
1631118278598,2024
1631118278602,2024
1631118278606,2023
1631118278610,2024
1631118278614,2024
1631118278618,2025
1631118278622,2026
1631118278626,2027
1631118278630,2027
1631118278634,2027
1631118278638,2028
1631118278642,2028
1631118278646,2028
1631118278650,2028
1631118278654,2028
1631118278658,2028
1631118278662,2028
1631118278666,2029
1631118278670,2030
1631118278674,2030
1631118278678,2030
1631118278682,2030
1631118278686,2030
1631118278690,2030
1631118278694,2030
1631118278698,2029
1631118278702,2029
1631118278706,2029
1631118278710,2029
1631118278714,2029
1631118278718,2030
1631118278722,2030
1631118278726,2030
1631118278730,2031
1631118278734,2031
1631118278738,2032
1631118278742,2033
1631118278746,2034
1631118278750,2034
1631118278754,2034
1631118278758,2033
1631118278762,2032
1631118278766,2032
1631118278770,2031
1631118278774,2032
1631118278778,2032
1631118278782,2032
1631118278786,2032
1631118278790,2033
1631118278794,2033
1631118278798,2033
1631118278802,2033
1631118278806,2033
1631118278810,2033
1631118278814,2034
1631118278818,2033
1631118278822,2033
1631118278826,2032
1631118278830,2032
1631118278834,2032
1631118278838,2033
1631118278842,2034
1631118278846,2034
1631118278850,2034
1631118278854,2034
1631118278858,2035
1631118278862,2036
1631118278866,2037
1631118278870,2037
1631118278874,2036
1631118278878,2034
1631118278882,2032
1631118278886,2030
1631118278890,2031
1631118278894,2032
1631118278898,2034
1631118278902,2036
1631118278906,2039
1631118278910,2041
1631118278914,2042
1631118278918,2043
1631118278922,2043
1631118278926,2043
1631118278930,2043
1631118278934,2043
1631118278938,2044
1631118278942,2045
1631118278946,2046
1631118278950,2046
1631118278954,2044
1631118278958,2042
1631118278962,2039
1631118278966,2037
1631118278970,2036
1631118278974,2036
1631118278978,2037
1631118278982,2038
1631118278986,2039
1631118278990,2039
1631118278994,2038
1631118278998,2038
1631118279002,2038
1631118279006,2038
1631118279010,2038
1631118279014,2038
1631118279018,2038
1631118279022,2039
1631118279026,2039
1631118279030,2039
1631118279034,2040
1631118279038,2040
1631118279042,2040
1631118279046,2041
1631118279050,2041
1631118279054,2040
1631118279058,2037
1631118279062,2032
1631118279066,2027
1631118279070,2028
1631118279074,2038
1631118279078,2064
1631118279082,2108
1631118279086,2163
1631118279090,2216
1631118279094,2244
1631118279098,2235
1631118279102,2188
1631118279106,2120
1631118279110,2056
1631118279114,2017
1631118279118,2007
1631118279122,2019
1631118279126,2036
1631118279130,2047
1631118279134,2048
1631118279138,2048
1631118279142,2046
1631118279146,2047
1631118279150,2048
1631118279154,2048
1631118279158,2048
1631118279162,2048
1631118279166,2048
1631118279170,2049
1631118279174,2050
1631118279178,2051
1631118279182,2053
1631118279186,2055
1631118279190,2056
1631118279194,2057
1631118279198,2058
1631118279202,2059
1631118279206,2059
1631118279210,2060
1631118279214,2061
1631118279218,2062
1631118279222,2063
1631118279226,2065
1631118279230,2067
1631118279234,2068
1631118279238,2070
1631118279242,2071
1631118279246,2072
1631118279250,2074
1631118279254,2075
1631118279258,2077
1631118279262,2081
1631118279266,2084
1631118279270,2087
1631118279274,2090
1631118279278,2093
1631118279282,2095
1631118279286,2097
1631118279290,2099
1631118279294,2101
1631118279298,2104
1631118279302,2108
1631118279306,2112
1631118279310,2116
1631118279314,2119
1631118279318,2121
1631118279322,2122
1631118279326,2123
1631118279330,2125
1631118279334,2125
1631118279338,2125
1631118279342,2125
1631118279346,2125
1631118279350,2124
1631118279354,2123
1631118279358,2120
1631118279362,2114
1631118279366,2106
1631118279370,2097
1631118279374,2088
1631118279378,2079
1631118279382,2071
1631118279386,2063
1631118279390,2056
1631118279394,2049
1631118279398,2044
1631118279402,2039
1631118279406,2035
1631118279410,2031
1631118279414,2029
1631118279418,2027
1631118279422,2025
1631118279426,2025
1631118279430,2024
1631118279434,2024
1631118279438,2024
1631118279442,2024
1631118279446,2024
1631118279450,2024
1631118279454,2024
1631118279458,2024
1631118279462,2025
1631118279466,2026
1631118279470,2026
1631118279474,2027
1631118279478,2027
1631118279482,2028
1631118279486,2027
1631118279490,2027
1631118279494,2027
1631118279498,2027
1631118279502,2028
1631118279506,2029
1631118279510,2030
1631118279514,2030
1631118279518,2030
1631118279522,2030
1631118279526,2030
1631118279530,2029
1631118279534,2030
1631118279538,2030
1631118279542,2031
1631118279546,2032
1631118279550,2032
1631118279554,2032
1631118279558,2031
1631118279562,2031
1631118279566,2030
1631118279570,2030
1631118279574,2030
1631118279578,2030
1631118279582,2030
1631118279586,2030
1631118279590,2030
1631118279594,2030
1631118279598,2031
1631118279602,2031
1631118279606,2030
1631118279610,2030
1631118279614,2031
1631118279618,2032
1631118279622,2033
1631118279626,2034
1631118279630,2035
1631118279634,2035
1631118279638,2034
1631118279642,2034
1631118279646,2034
1631118279650,2034
1631118279654,2035
1631118279658,2036
1631118279662,2036
1631118279666,2036
1631118279670,2036
1631118279674,2036
1631118279678,2036
1631118279682,2036
1631118279686,2036
1631118279690,2035
1631118279694,2035
1631118279698,2035
1631118279702,2036
1631118279706,2037
1631118279710,2037
1631118279714,2038
1631118279718,2038
1631118279722,2038
1631118279726,2038
1631118279730,2038
1631118279734,2037
1631118279738,2037
1631118279742,2037
1631118279746,2037
1631118279750,2037
1631118279754,2038
1631118279758,2038
1631118279762,2038
1631118279766,2038
1631118279770,2039
1631118279774,2040
1631118279778,2042
1631118279782,2045
1631118279786,2048
1631118279790,2049
1631118279794,2049
1631118279798,2049
1631118279802,2048
1631118279806,2048
1631118279810,2047
1631118279814,2048
1631118279818,2048
1631118279822,2048
1631118279826,2048
1631118279830,2048
1631118279834,2046
1631118279838,2045
1631118279842,2043
1631118279846,2042
1631118279850,2042
1631118279854,2042
1631118279858,2042
1631118279862,2043
1631118279866,2043
1631118279870,2043
1631118279874,2043
1631118279878,2042
1631118279882,2041
1631118279886,2040
1631118279890,2039
1631118279894,2039
1631118279898,2041
1631118279902,2042
1631118279906,2043
1631118279910,2043
1631118279914,2044
1631118279918,2044
1631118279922,2044
1631118279926,2043
1631118279930,2038
1631118279934,2032
1631118279938,2027
1631118279942,2030
1631118279946,2046
1631118279950,2077
1631118279954,2125
1631118279958,2181
1631118279962,2229
1631118279966,2250
1631118279970,2235
1631118279974,2186
1631118279978,2121
1631118279982,2062
1631118279986,2028
1631118279990,2020
1631118279994,2030
1631118279998,2044
1631118280002,2051
1631118280006,2051
1631118280010,2048
1631118280014,2045
1631118280018,2044
1631118280022,2045
1631118280026,2046
1631118280030,2047
1631118280034,2048
1631118280038,2048
1631118280042,2048
1631118280046,2049
1631118280050,2050
1631118280054,2052
1631118280058,2054
1631118280062,2056
1631118280066,2057
1631118280070,2059
1631118280074,2059
1631118280078,2060
1631118280082,2060
1631118280086,2061
1631118280090,2061
1631118280094,2062
1631118280098,2064
1631118280102,2066
1631118280106,2067
1631118280110,2068
1631118280114,2069
1631118280118,2070
1631118280122,2072
1631118280126,2074
1631118280130,2077
1631118280134,2080
1631118280138,2083
1631118280142,2085
1631118280146,2087
1631118280150,2089
1631118280154,2091
1631118280158,2093
1631118280162,2096
1631118280166,2099
1631118280170,2102
1631118280174,2106
1631118280178,2110
1631118280182,2113
1631118280186,2117
1631118280190,2120
1631118280194,2122
1631118280198,2124
1631118280202,2125
1631118280206,2125
1631118280210,2125
1631118280214,2124
1631118280218,2123
1631118280222,2121
1631118280226,2118
1631118280230,2114
1631118280234,2108
1631118280238,2100
1631118280242,2093
1631118280246,2084
1631118280250,2076
1631118280254,2069
1631118280258,2062
1631118280262,2055
1631118280266,2049
1631118280270,2045
1631118280274,2040
1631118280278,2035
1631118280282,2031
1631118280286,2028
1631118280290,2025
1631118280294,2024
1631118280298,2023
1631118280302,2023
1631118280306,2023
1631118280310,2024
1631118280314,2024
1631118280318,2025
1631118280322,2026
1631118280326,2026
1631118280330,2025
1631118280334,2025
1631118280338,2025
1631118280342,2025
1631118280346,2025
1631118280350,2026
1631118280354,2026
1631118280358,2027
1631118280362,2026
1631118280366,2026
1631118280370,2025
1631118280374,2026
1631118280378,2027
1631118280382,2028
1631118280386,2029
1631118280390,2029
1631118280394,2029
1631118280398,2029
1631118280402,2029
1631118280406,2029
1631118280410,2029
1631118280414,2029
1631118280418,2029
1631118280422,2029
1631118280426,2030
1631118280430,2030
1631118280434,2030
1631118280438,2030
1631118280442,2030
1631118280446,2030
1631118280450,2029
1631118280454,2029
1631118280458,2029
1631118280462,2029
1631118280466,2030
1631118280470,2030
1631118280474,2031
1631118280478,2031
1631118280482,2031
1631118280486,2031
1631118280490,2030
1631118280494,2029
1631118280498,2029
1631118280502,2030
1631118280506,2031
1631118280510,2031
1631118280514,2032
1631118280518,2031
1631118280522,2031
1631118280526,2031
1631118280530,2031
1631118280534,2032
1631118280538,2033
1631118280542,2033
1631118280546,2033
1631118280550,2032
1631118280554,2032
1631118280558,2032
1631118280562,2032
1631118280566,2033
1631118280570,2033
1631118280574,2033
1631118280578,2033
1631118280582,2033
1631118280586,2033
1631118280590,2033
1631118280594,2033
1631118280598,2033
1631118280602,2033
1631118280606,2033
1631118280610,2032
1631118280614,2032
1631118280618,2032
1631118280622,2033
1631118280626,2034
1631118280630,2035
1631118280634,2035
1631118280638,2033
1631118280642,2032
1631118280646,2031
1631118280650,2032
1631118280654,2033
1631118280658,2034
1631118280662,2036
1631118280666,2037
1631118280670,2040
1631118280674,2042
1631118280678,2044
1631118280682,2045
1631118280686,2045
1631118280690,2044
1631118280694,2044
1631118280698,2044
1631118280702,2044
1631118280706,2044
1631118280710,2044
1631118280714,2042
1631118280718,2040
1631118280722,2038
1631118280726,2036
1631118280730,2036
1631118280734,2036
1631118280738,2037
1631118280742,2037
1631118280746,2037
1631118280750,2037
1631118280754,2037
1631118280758,2038
1631118280762,2038
1631118280766,2037
1631118280770,2036
1631118280774,2036
1631118280778,2035
1631118280782,2035
1631118280786,2036
1631118280790,2037
1631118280794,2038
1631118280798,2039
1631118280802,2040
1631118280806,2041
1631118280810,2040
1631118280814,2036
1631118280818,2030
1631118280822,2024
1631118280826,2023
1631118280830,2033
1631118280834,2058
1631118280838,2101
1631118280842,2156
1631118280846,2209
1631118280850,2240
1631118280854,2237
1631118280858,2196
1631118280862,2133
1631118280866,2069
1631118280870,2027
1631118280874,2012
1631118280878,2019
1631118280882,2034
1631118280886,2045
1631118280890,2048
1631118280894,2045
1631118280898,2042
1631118280902,2041
1631118280906,2042
1631118280910,2043
1631118280914,2043
1631118280918,2044
1631118280922,2045
1631118280926,2045
1631118280930,2047
1631118280934,2048
1631118280938,2048
1631118280942,2049
1631118280946,2051
1631118280950,2052
1631118280954,2053
1631118280958,2054
1631118280962,2055
1631118280966,2056
1631118280970,2057
1631118280974,2058
1631118280978,2059
1631118280982,2059
1631118280986,2060
1631118280990,2062
1631118280994,2063
1631118280998,2065
1631118281002,2067
1631118281006,2070
1631118281010,2072
1631118281014,2073
1631118281018,2075
1631118281022,2076
1631118281026,2079
1631118281030,2081
1631118281034,2084
1631118281038,2087
1631118281042,2089
1631118281046,2091
1631118281050,2093
1631118281054,2096
1631118281058,2100
1631118281062,2103
1631118281066,2107
1631118281070,2110
1631118281074,2112
1631118281078,2113
1631118281082,2115
1631118281086,2116
1631118281090,2117
1631118281094,2119
1631118281098,2119
1631118281102,2119
1631118281106,2118
1631118281110,2116
1631118281114,2112
1631118281118,2108
1631118281122,2101
1631118281126,2094
1631118281130,2087
1631118281134,2078
1631118281138,2070
1631118281142,2062
1631118281146,2055
1631118281150,2049
1631118281154,2044
1631118281158,2039
1631118281162,2035
1631118281166,2031
1631118281170,2029
1631118281174,2027
1631118281178,2025
1631118281182,2025
1631118281186,2024
1631118281190,2024
1631118281194,2024
1631118281198,2024
1631118281202,2024
1631118281206,2024
1631118281210,2023
1631118281214,2023
1631118281218,2024
1631118281222,2025
1631118281226,2026
1631118281230,2026
1631118281234,2027
1631118281238,2027
1631118281242,2027
1631118281246,2027
1631118281250,2027
1631118281254,2026
1631118281258,2026
1631118281262,2027
1631118281266,2028
1631118281270,2030
1631118281274,2030
1631118281278,2030
1631118281282,2030
1631118281286,2029
1631118281290,2028
1631118281294,2028
1631118281298,2029
1631118281302,2029
1631118281306,2030
1631118281310,2030
1631118281314,2031
1631118281318,2031
1631118281322,2031
1631118281326,2031
1631118281330,2031
1631118281334,2031
1631118281338,2032
1631118281342,2032
1631118281346,2033
1631118281350,2034
1631118281354,2034
1631118281358,2034
1631118281362,2033
1631118281366,2032
1631118281370,2031
1631118281374,2031
1631118281378,2032
1631118281382,2032
1631118281386,2033
1631118281390,2033
1631118281394,2033
1631118281398,2032
1631118281402,2032
1631118281406,2032
1631118281410,2033
1631118281414,2034
1631118281418,2035
1631118281422,2035
1631118281426,2035
1631118281430,2035
1631118281434,2034
1631118281438,2033
1631118281442,2033
1631118281446,2033
1631118281450,2033
1631118281454,2033
1631118281458,2034
1631118281462,2034
1631118281466,2035
1631118281470,2035
1631118281474,2036
1631118281478,2036
1631118281482,2036
1631118281486,2036
1631118281490,2035
1631118281494,2035
1631118281498,2035
1631118281502,2036
1631118281506,2036
1631118281510,2036
1631118281514,2036
1631118281518,2035
1631118281522,2033
1631118281526,2031
1631118281530,2030
1631118281534,2029
1631118281538,2030
1631118281542,2031
1631118281546,2034
1631118281550,2037
1631118281554,2041
1631118281558,2043
1631118281562,2045
1631118281566,2045
1631118281570,2044
1631118281574,2043
1631118281578,2043
1631118281582,2044
1631118281586,2045
1631118281590,2047
1631118281594,2047
1631118281598,2046
1631118281602,2043
1631118281606,2040
1631118281610,2038
1631118281614,2037
1631118281618,2036
1631118281622,2037
1631118281626,2038
1631118281630,2039
1631118281634,2039
1631118281638,2038
1631118281642,2038
1631118281646,2037
1631118281650,2037
1631118281654,2036
1631118281658,2035
1631118281662,2035
1631118281666,2035
1631118281670,2036
1631118281674,2037
1631118281678,2037
1631118281682,2037
1631118281686,2037
1631118281690,2037
1631118281694,2037
1631118281698,2036
1631118281702,2034
1631118281706,2028
1631118281710,2023
1631118281714,2022
1631118281718,2032
1631118281722,2059
1631118281726,2104
1631118281730,2162
1631118281734,2214
1631118281738,2243
1631118281742,2232
1631118281746,2185
1631118281750,2117
1631118281754,2053
1631118281758,2015
1631118281762,2006
1631118281766,2017
1631118281770,2035
1631118281774,2047
1631118281778,2049
1631118281782,2048
1631118281786,2046
1631118281790,2045
1631118281794,2044
1631118281798,2044
1631118281802,2044
1631118281806,2044
1631118281810,2045
1631118281814,2047
1631118281818,2048
1631118281822,2050
1631118281826,2052
1631118281830,2054
1631118281834,2055
1631118281838,2055
1631118281842,2056
1631118281846,2056
1631118281850,2057
1631118281854,2058
1631118281858,2059
1631118281862,2061
1631118281866,2062
1631118281870,2063
1631118281874,2064
1631118281878,2065
1631118281882,2066
1631118281886,2067
1631118281890,2069
1631118281894,2072
1631118281898,2075
1631118281902,2078
1631118281906,2081
1631118281910,2082
1631118281914,2084
1631118281918,2085
1631118281922,2086
1631118281926,2088
1631118281930,2091
1631118281934,2095
1631118281938,2098
1631118281942,2102
1631118281946,2105
1631118281950,2108
1631118281954,2109
1631118281958,2111
1631118281962,2112
1631118281966,2113
1631118281970,2115
1631118281974,2117
1631118281978,2119
1631118281982,2120
1631118281986,2121
1631118281990,2120
1631118281994,2119
1631118281998,2116
1631118282002,2112
1631118282006,2106
1631118282010,2099
1631118282014,2091
1631118282018,2082
1631118282022,2073
1631118282026,2065
1631118282030,2058
1631118282034,2051
1631118282038,2045
1631118282042,2039
1631118282046,2033
1631118282050,2028
1631118282054,2024
1631118282058,2022
1631118282062,2021
1631118282066,2021
1631118282070,2021
1631118282074,2021
1631118282078,2021
1631118282082,2021
1631118282086,2020
1631118282090,2020
1631118282094,2020
1631118282098,2021
1631118282102,2023
1631118282106,2025
1631118282110,2026
1631118282114,2027
1631118282118,2027
1631118282122,2026
1631118282126,2025
1631118282130,2025
1631118282134,2025
1631118282138,2025
1631118282142,2027
1631118282146,2028
1631118282150,2029
1631118282154,2031
1631118282158,2031
1631118282162,2031
1631118282166,2030
1631118282170,2029
1631118282174,2029
1631118282178,2028
1631118282182,2028
1631118282186,2028
1631118282190,2028
1631118282194,2028
1631118282198,2028
1631118282202,2029
1631118282206,2028
1631118282210,2027
1631118282214,2026
1631118282218,2026
1631118282222,2028
1631118282226,2029
1631118282230,2030
1631118282234,2030
1631118282238,2030
1631118282242,2029
1631118282246,2029
1631118282250,2029
1631118282254,2030
1631118282258,2031
1631118282262,2031
1631118282266,2031
1631118282270,2031
1631118282274,2031
1631118282278,2031
1631118282282,2031
1631118282286,2031
1631118282290,2032
1631118282294,2033
1631118282298,2034
1631118282302,2035
1631118282306,2035
1631118282310,2036
1631118282314,2036
1631118282318,2036
1631118282322,2035
1631118282326,2035
1631118282330,2035
1631118282334,2035
1631118282338,2036
1631118282342,2037
1631118282346,2038
1631118282350,2039
1631118282354,2039
1631118282358,2038
1631118282362,2037
1631118282366,2036
1631118282370,2036
1631118282374,2036
1631118282378,2037
1631118282382,2038
1631118282386,2039
1631118282390,2040
1631118282394,2042
1631118282398,2043
1631118282402,2044
1631118282406,2045
1631118282410,2046
1631118282414,2047
1631118282418,2048
1631118282422,2048
1631118282426,2049
1631118282430,2051
1631118282434,2051
1631118282438,2052
1631118282442,2052
1631118282446,2050
1631118282450,2048
1631118282454,2047
1631118282458,2046
1631118282462,2047
1631118282466,2048
1631118282470,2048
1631118282474,2049
1631118282478,2048
1631118282482,2048
1631118282486,2046
1631118282490,2044
1631118282494,2044
1631118282498,2044
1631118282502,2046
1631118282506,2047
1631118282510,2048
1631118282514,2047
1631118282518,2046
1631118282522,2045
1631118282526,2045
1631118282530,2046
1631118282534,2048
1631118282538,2049
1631118282542,2050
1631118282546,2051
1631118282550,2050
1631118282554,2049
1631118282558,2047
1631118282562,2042
1631118282566,2038
1631118282570,2040
1631118282574,2050
1631118282578,2077
1631118282582,2122
1631118282586,2176
1631118282590,2224
1631118282594,2245
1631118282598,2228
1631118282602,2175
1631118282606,2105
1631118282610,2045
1631118282614,2011
1631118282618,2007
1631118282622,2024
1631118282626,2045
1631118282630,2057
1631118282634,2061
1631118282638,2060
1631118282642,2058
1631118282646,2058
1631118282650,2059
1631118282654,2061
1631118282658,2062
1631118282662,2065
1631118282666,2066
1631118282670,2066
1631118282674,2066
1631118282678,2066
1631118282682,2066
1631118282686,2068
1631118282690,2071
1631118282694,2074
1631118282698,2077
1631118282702,2078
1631118282706,2078
1631118282710,2078
1631118282714,2079
1631118282718,2080
1631118282722,2081
1631118282726,2083
1631118282730,2085
1631118282734,2086
1631118282738,2088
1631118282742,2090
1631118282746,2092
1631118282750,2093
1631118282754,2094
1631118282758,2095
1631118282762,2096
1631118282766,2099
1631118282770,2102
1631118282774,2105
1631118282778,2108
1631118282782,2111
1631118282786,2114
1631118282790,2116
1631118282794,2119
1631118282798,2122
1631118282802,2125
1631118282806,2127
1631118282810,2130
1631118282814,2132
1631118282818,2135
1631118282822,2139
1631118282826,2141
1631118282830,2143
1631118282834,2143
1631118282838,2142
1631118282842,2141
1631118282846,2140
1631118282850,2139
1631118282854,2137
1631118282858,2133
1631118282862,2127
1631118282866,2118
1631118282870,2109
1631118282874,2100
1631118282878,2091
1631118282882,2083
1631118282886,2075
1631118282890,2067
1631118282894,2061
1631118282898,2055
1631118282902,2050
1631118282906,2047
1631118282910,2044
1631118282914,2042
1631118282918,2040
1631118282922,2039
1631118282926,2038
1631118282930,2037
1631118282934,2036
1631118282938,2035
1631118282942,2035
1631118282946,2035
1631118282950,2036
1631118282954,2037
1631118282958,2038
1631118282962,2038
1631118282966,2039
1631118282970,2039
1631118282974,2039
1631118282978,2039
1631118282982,2040
1631118282986,2040
1631118282990,2041
1631118282994,2041
1631118282998,2041
1631118283002,2041
1631118283006,2041
1631118283010,2040
1631118283014,2040
1631118283018,2039
1631118283022,2040
1631118283026,2040
1631118283030,2041
1631118283034,2042
1631118283038,2043
1631118283042,2043
1631118283046,2043
1631118283050,2042
1631118283054,2041
1631118283058,2040
1631118283062,2040
1631118283066,2040
1631118283070,2040
1631118283074,2040
1631118283078,2041
1631118283082,2041
1631118283086,2042
1631118283090,2042
1631118283094,2043
1631118283098,2042
1631118283102,2042
1631118283106,2042
1631118283110,2042
1631118283114,2041
1631118283118,2041
1631118283122,2040
1631118283126,2039
1631118283130,2039
1631118283134,2040
1631118283138,2041
1631118283142,2043
1631118283146,2044
1631118283150,2045
1631118283154,2044
1631118283158,2043
1631118283162,2042
1631118283166,2042
1631118283170,2042
1631118283174,2042
1631118283178,2043
1631118283182,2044
1631118283186,2044
1631118283190,2044
1631118283194,2044
1631118283198,2043
1631118283202,2043
1631118283206,2042
1631118283210,2042
1631118283214,2042
1631118283218,2041
1631118283222,2041
1631118283226,2041
1631118283230,2041
1631118283234,2042
1631118283238,2043
1631118283242,2045
1631118283246,2046
1631118283250,2048
1631118283254,2048
1631118283258,2050
1631118283262,2051
1631118283266,2052
1631118283270,2053
1631118283274,2053
1631118283278,2053
1631118283282,2053
1631118283286,2052
1631118283290,2050
1631118283294,2049
1631118283298,2048
1631118283302,2047
1631118283306,2046
1631118283310,2046
1631118283314,2046
1631118283318,2046
1631118283322,2046
1631118283326,2045
1631118283330,2044
1631118283334,2045
1631118283338,2045
1631118283342,2045
1631118283346,2045
1631118283350,2045
1631118283354,2045
1631118283358,2045
1631118283362,2044
1631118283366,2044
1631118283370,2044
1631118283374,2043
1631118283378,2044
1631118283382,2045
1631118283386,2046
1631118283390,2047
1631118283394,2045
1631118283398,2040
1631118283402,2034
1631118283406,2032
1631118283410,2039
1631118283414,2060
1631118283418,2100
1631118283422,2155
1631118283426,2209
1631118283430,2242
1631118283434,2239
1631118283438,2198
1631118283442,2132
1631118283446,2067
1631118283450,2025
1631118283454,2011
1631118283458,2021
1631118283462,2039
1631118283466,2051
1631118283470,2055
1631118283474,2054
1631118283478,2052
1631118283482,2051
1631118283486,2052
1631118283490,2053
1631118283494,2053
1631118283498,2053
1631118283502,2054
1631118283506,2055
1631118283510,2057
1631118283514,2058
1631118283518,2058
1631118283522,2059
1631118283526,2059
1631118283530,2060
1631118283534,2061
1631118283538,2062
1631118283542,2064
1631118283546,2065
1631118283550,2066
1631118283554,2067
1631118283558,2067
1631118283562,2066
1631118283566,2067
1631118283570,2069
1631118283574,2071
1631118283578,2074
1631118283582,2076
1631118283586,2078
1631118283590,2080
1631118283594,2081
1631118283598,2083
1631118283602,2085
1631118283606,2086
1631118283610,2088
1631118283614,2090
1631118283618,2093
1631118283622,2096
1631118283626,2099
1631118283630,2102
1631118283634,2105
1631118283638,2108
1631118283642,2111
1631118283646,2114
1631118283650,2118
1631118283654,2121
1631118283658,2124
1631118283662,2126
1631118283666,2127
1631118283670,2128
1631118283674,2129
1631118283678,2128
1631118283682,2127
1631118283686,2126
1631118283690,2124
1631118283694,2121
1631118283698,2117
1631118283702,2112
1631118283706,2105
1631118283710,2096
1631118283714,2087
1631118283718,2078
1631118283722,2070
1631118283726,2062
1631118283730,2055
1631118283734,2050
1631118283738,2047
1631118283742,2043
1631118283746,2039
1631118283750,2036
1631118283754,2033
1631118283758,2031
1631118283762,2031
1631118283766,2031
1631118283770,2032
1631118283774,2033
1631118283778,2033
1631118283782,2033
1631118283786,2034
1631118283790,2034
1631118283794,2034
1631118283798,2034
1631118283802,2033
1631118283806,2033
1631118283810,2033
1631118283814,2034
1631118283818,2035
1631118283822,2036
1631118283826,2037
1631118283830,2037
1631118283834,2037
1631118283838,2037
1631118283842,2037
1631118283846,2037
1631118283850,2036
1631118283854,2036
1631118283858,2036
1631118283862,2037
1631118283866,2038
1631118283870,2038
1631118283874,2039
1631118283878,2040
1631118283882,2040
1631118283886,2040
1631118283890,2039
1631118283894,2038
1631118283898,2037
1631118283902,2037
1631118283906,2038
1631118283910,2039
1631118283914,2039
1631118283918,2040
1631118283922,2040
1631118283926,2039
1631118283930,2039
1631118283934,2039
1631118283938,2039
1631118283942,2039
1631118283946,2040
1631118283950,2040
1631118283954,2040
1631118283958,2041
1631118283962,2041
1631118283966,2041
1631118283970,2041
1631118283974,2041
1631118283978,2041
1631118283982,2041
1631118283986,2041
1631118283990,2041
1631118283994,2041
1631118283998,2041
1631118284002,2042
1631118284006,2042
1631118284010,2042
1631118284014,2042
1631118284018,2043
1631118284022,2043
1631118284026,2044
1631118284030,2045
1631118284034,2046
1631118284038,2047
1631118284042,2047
1631118284046,2047
1631118284050,2047
1631118284054,2046
1631118284058,2045
1631118284062,2044
1631118284066,2043
1631118284070,2043
1631118284074,2045
1631118284078,2046
1631118284082,2048
1631118284086,2048
1631118284090,2049
1631118284094,2051
1631118284098,2053
1631118284102,2054
1631118284106,2055
1631118284110,2056
1631118284114,2056
1631118284118,2056
1631118284122,2056
1631118284126,2057
1631118284130,2058
1631118284134,2058
1631118284138,2057
1631118284142,2055
1631118284146,2053
1631118284150,2051
1631118284154,2050
1631118284158,2050
1631118284162,2051
1631118284166,2052
1631118284170,2052
1631118284174,2052
1631118284178,2052
1631118284182,2051
1631118284186,2051
1631118284190,2051
1631118284194,2051
1631118284198,2051
1631118284202,2051
1631118284206,2051
1631118284210,2051
1631118284214,2050
1631118284218,2050
1631118284222,2051
1631118284226,2053
1631118284230,2054
1631118284234,2054
1631118284238,2051
1631118284242,2047
1631118284246,2040
1631118284250,2038
1631118284254,2045
1631118284258,2066
1631118284262,2106
1631118284266,2160
1631118284270,2215
1631118284274,2252
1631118284278,2256
1631118284282,2223
1631118284286,2162
1631118284290,2095
1631118284294,2047
1631118284298,2026
1631118284302,2030
1631118284306,2045
1631118284310,2058
1631118284314,2063
1631118284318,2061
1631118284322,2057
1631118284326,2054
1631118284330,2053
1631118284334,2053
1631118284338,2054
1631118284342,2055
1631118284346,2057
1631118284350,2059
1631118284354,2060
1631118284358,2060
1631118284362,2060
1631118284366,2060
1631118284370,2060
1631118284374,2062
1631118284378,2064
1631118284382,2066
1631118284386,2068
1631118284390,2068
1631118284394,2068
1631118284398,2068
1631118284402,2069
1631118284406,2069
1631118284410,2070
1631118284414,2072
1631118284418,2074
1631118284422,2076
1631118284426,2078
1631118284430,2079
1631118284434,2081
1631118284438,2082
1631118284442,2083
1631118284446,2085
1631118284450,2087
1631118284454,2090
1631118284458,2093
1631118284462,2096
1631118284466,2099
1631118284470,2102
1631118284474,2104
1631118284478,2107
1631118284482,2109
1631118284486,2112
1631118284490,2114
1631118284494,2117
1631118284498,2120
1631118284502,2123
1631118284506,2125
1631118284510,2127
1631118284514,2128
1631118284518,2129
1631118284522,2130
1631118284526,2129
1631118284530,2128
1631118284534,2125
1631118284538,2121
1631118284542,2117
1631118284546,2111
1631118284550,2104
1631118284554,2096
1631118284558,2087
1631118284562,2078
1631118284566,2069
1631118284570,2062
1631118284574,2055
1631118284578,2049
1631118284582,2045
1631118284586,2041
1631118284590,2039
1631118284594,2037
1631118284598,2036
1631118284602,2034
1631118284606,2033
1631118284610,2031
1631118284614,2031
1631118284618,2030
1631118284622,2030
1631118284626,2030
1631118284630,2031
1631118284634,2031
1631118284638,2031
1631118284642,2031
1631118284646,2031
1631118284650,2030
1631118284654,2030
1631118284658,2030
1631118284662,2031
1631118284666,2032
1631118284670,2032
1631118284674,2032
1631118284678,2032
1631118284682,2032
1631118284686,2032
1631118284690,2033
1631118284694,2034
1631118284698,2035
1631118284702,2036
1631118284706,2036
1631118284710,2036
1631118284714,2035
1631118284718,2034
1631118284722,2033
1631118284726,2033
1631118284730,2034
1631118284734,2034
1631118284738,2035
1631118284742,2036
1631118284746,2036
1631118284750,2036
1631118284754,2036
1631118284758,2036
1631118284762,2036
1631118284766,2035
1631118284770,2035
1631118284774,2035
1631118284778,2035
1631118284782,2035
1631118284786,2036
1631118284790,2036
1631118284794,2035
1631118284798,2035
1631118284802,2035
1631118284806,2035
1631118284810,2036
1631118284814,2036
1631118284818,2036
1631118284822,2036
1631118284826,2036
1631118284830,2035
1631118284834,2036
1631118284838,2036
1631118284842,2036
1631118284846,2037
1631118284850,2037
1631118284854,2037
1631118284858,2037
1631118284862,2038
1631118284866,2038
1631118284870,2039
1631118284874,2039
1631118284878,2038
1631118284882,2037
1631118284886,2037
1631118284890,2037
1631118284894,2037
1631118284898,2036
1631118284902,2036
1631118284906,2035
1631118284910,2035
1631118284914,2035
1631118284918,2036
1631118284922,2036
1631118284926,2038
1631118284930,2040
1631118284934,2043
1631118284938,2045
1631118284942,2047
1631118284946,2048
1631118284950,2048
1631118284954,2048
1631118284958,2048
1631118284962,2048
1631118284966,2049
1631118284970,2049
1631118284974,2048
1631118284978,2047
1631118284982,2045
1631118284986,2042
1631118284990,2041
1631118284994,2042
1631118284998,2043
1631118285002,2043
1631118285006,2044
1631118285010,2044
1631118285014,2043
1631118285018,2043
1631118285022,2042
1631118285026,2042
1631118285030,2041
1631118285034,2041
1631118285038,2040
1631118285042,2041
1631118285046,2041
1631118285050,2041
1631118285054,2042
1631118285058,2042
1631118285062,2042
1631118285066,2043
1631118285070,2044
1631118285074,2044
1631118285078,2041
1631118285082,2035
1631118285086,2029
1631118285090,2029
1631118285094,2038
1631118285098,2062
1631118285102,2105
1631118285106,2160
1631118285110,2213
1631118285114,2244
1631118285118,2238
1631118285122,2196
1631118285126,2131
1631118285130,2067
1631118285134,2026
1631118285138,2013
1631118285142,2022
1631118285146,2039
1631118285150,2050
1631118285154,2054
1631118285158,2052
1631118285162,2048
1631118285166,2048
1631118285170,2047
1631118285174,2047
1631118285178,2048
1631118285182,2048
1631118285186,2049
1631118285190,2050
1631118285194,2051
1631118285198,2051
1631118285202,2052
1631118285206,2053
1631118285210,2054
1631118285214,2055
1631118285218,2057
1631118285222,2058
1631118285226,2059
1631118285230,2060
1631118285234,2061
1631118285238,2062
1631118285242,2063
1631118285246,2063
1631118285250,2064
1631118285254,2066
1631118285258,2067
1631118285262,2069
1631118285266,2071
1631118285270,2073
1631118285274,2074
1631118285278,2076
1631118285282,2077
1631118285286,2079
1631118285290,2082
1631118285294,2085
1631118285298,2089
1631118285302,2092
1631118285306,2095
1631118285310,2098
1631118285314,2101
1631118285318,2104
1631118285322,2107
1631118285326,2110
1631118285330,2112
1631118285334,2114
1631118285338,2117
1631118285342,2119
1631118285346,2121
1631118285350,2122
1631118285354,2123
1631118285358,2124
1631118285362,2124
1631118285366,2123
1631118285370,2122
1631118285374,2119
1631118285378,2115
1631118285382,2109
1631118285386,2102
1631118285390,2094
1631118285394,2086
1631118285398,2077
1631118285402,2068
1631118285406,2060
1631118285410,2052
1631118285414,2046
1631118285418,2041
1631118285422,2037
1631118285426,2034
1631118285430,2032
1631118285434,2030
1631118285438,2027
1631118285442,2026
1631118285446,2025
1631118285450,2024
1631118285454,2024
1631118285458,2025
1631118285462,2025
1631118285466,2026
1631118285470,2026
1631118285474,2026
1631118285478,2026
1631118285482,2027
1631118285486,2027
1631118285490,2027
1631118285494,2027
1631118285498,2028
1631118285502,2028
1631118285506,2030
1631118285510,2030
1631118285514,2030
1631118285518,2029
1631118285522,2029
1631118285526,2028
1631118285530,2029
1631118285534,2029
1631118285538,2029
1631118285542,2030
1631118285546,2030
1631118285550,2031
1631118285554,2032
1631118285558,2032
1631118285562,2033
1631118285566,2032
1631118285570,2030
1631118285574,2029
1631118285578,2029
1631118285582,2030
1631118285586,2031
1631118285590,2033
1631118285594,2033
1631118285598,2033
1631118285602,2032
1631118285606,2031
1631118285610,2031
1631118285614,2031
1631118285618,2031
1631118285622,2032
1631118285626,2032
1631118285630,2033
1631118285634,2034
1631118285638,2034
1631118285642,2034
1631118285646,2033
1631118285650,2033
1631118285654,2032
1631118285658,2032
1631118285662,2032
1631118285666,2033
1631118285670,2034
1631118285674,2034
1631118285678,2034
1631118285682,2033
1631118285686,2033
1631118285690,2033
1631118285694,2034
1631118285698,2035
1631118285702,2036
1631118285706,2036
1631118285710,2036
1631118285714,2036
1631118285718,2036
1631118285722,2035
1631118285726,2035
1631118285730,2035
1631118285734,2034
1631118285738,2034
1631118285742,2034
1631118285746,2033
1631118285750,2032
1631118285754,2032
1631118285758,2031
1631118285762,2031
1631118285766,2032
1631118285770,2034
1631118285774,2036
1631118285778,2039
1631118285782,2041
1631118285786,2043
1631118285790,2044
1631118285794,2044
1631118285798,2044
1631118285802,2044
1631118285806,2043
1631118285810,2042
1631118285814,2041
1631118285818,2040
1631118285822,2038
1631118285826,2036
1631118285830,2035
1631118285834,2034
1631118285838,2035
1631118285842,2036
1631118285846,2036
1631118285850,2036
1631118285854,2035
1631118285858,2034
1631118285862,2033
1631118285866,2034
1631118285870,2034
1631118285874,2034
1631118285878,2034
1631118285882,2033
1631118285886,2032
1631118285890,2032
1631118285894,2032
1631118285898,2033
1631118285902,2034
1631118285906,2035
1631118285910,2036
1631118285914,2037
1631118285918,2035
1631118285922,2030
1631118285926,2024
1631118285930,2020
1631118285934,2022
1631118285938,2035
1631118285942,2065
1631118285946,2112
1631118285950,2169
1631118285954,2218
1631118285958,2238
1631118285962,2218
1631118285966,2163
1631118285970,2092
1631118285974,2034
1631118285978,2003
1631118285982,2001
1631118285986,2017
1631118285990,2035
1631118285994,2043
1631118285998,2044
1631118286002,2042
1631118286006,2040
1631118286010,2040
1631118286014,2041
1631118286018,2042
1631118286022,2043
1631118286026,2044
1631118286030,2046
1631118286034,2047
1631118286038,2048
1631118286042,2048
1631118286046,2048
1631118286050,2048
1631118286054,2049
1631118286058,2050
1631118286062,2053
1631118286066,2055
1631118286070,2056
1631118286074,2058
1631118286078,2058
1631118286082,2059
1631118286086,2059
1631118286090,2060
1631118286094,2062
1631118286098,2063
1631118286102,2065
1631118286106,2068
1631118286110,2070
1631118286114,2072
1631118286118,2074
1631118286122,2075
1631118286126,2076
1631118286130,2077
1631118286134,2079
1631118286138,2081
1631118286142,2084
1631118286146,2088
1631118286150,2092
1631118286154,2096
1631118286158,2099
1631118286162,2102
1631118286166,2105
1631118286170,2107
1631118286174,2110
1631118286178,2112
1631118286182,2115
1631118286186,2116
1631118286190,2118
1631118286194,2119
1631118286198,2120
1631118286202,2121
1631118286206,2121
1631118286210,2119
1631118286214,2117
1631118286218,2113
1631118286222,2109
1631118286226,2103
1631118286230,2096
1631118286234,2088
1631118286238,2078
1631118286242,2068
1631118286246,2058
1631118286250,2049
1631118286254,2042
1631118286258,2036
1631118286262,2032
1631118286266,2028
1631118286270,2026
1631118286274,2023
1631118286278,2021
1631118286282,2018
1631118286286,2015
1631118286290,2013
1631118286294,2013
1631118286298,2013
1631118286302,2015
1631118286306,2016
1631118286310,2017
1631118286314,2018
1631118286318,2018
1631118286322,2018
1631118286326,2017
1631118286330,2017
1631118286334,2017
1631118286338,2017
1631118286342,2018
1631118286346,2020
1631118286350,2021
1631118286354,2022
1631118286358,2022
1631118286362,2022
1631118286366,2021
1631118286370,2020
1631118286374,2020
1631118286378,2020
1631118286382,2022
1631118286386,2023
1631118286390,2024
1631118286394,2024
1631118286398,2024
1631118286402,2024
1631118286406,2024
1631118286410,2024
1631118286414,2024
1631118286418,2024
1631118286422,2025
1631118286426,2026
1631118286430,2027
1631118286434,2028
1631118286438,2028
1631118286442,2028
1631118286446,2027
1631118286450,2026
1631118286454,2026
1631118286458,2026
1631118286462,2026
1631118286466,2027
1631118286470,2028
1631118286474,2029
1631118286478,2029
1631118286482,2029
1631118286486,2028
1631118286490,2028
1631118286494,2028
1631118286498,2029
1631118286502,2030
1631118286506,2031
1631118286510,2031
1631118286514,2031
1631118286518,2031
1631118286522,2031
1631118286526,2030
1631118286530,2030
1631118286534,2030
1631118286538,2030
1631118286542,2030
1631118286546,2031
1631118286550,2031
1631118286554,2031
1631118286558,2031
1631118286562,2031
1631118286566,2031
1631118286570,2031
1631118286574,2031
1631118286578,2032
1631118286582,2033
1631118286586,2035
1631118286590,2037
1631118286594,2039
1631118286598,2040
1631118286602,2041
1631118286606,2041
1631118286610,2042
1631118286614,2043
1631118286618,2044
1631118286622,2045
1631118286626,2046
1631118286630,2045
1631118286634,2044
1631118286638,2042
1631118286642,2041
1631118286646,2039
1631118286650,2038
1631118286654,2038
1631118286658,2038
1631118286662,2039
1631118286666,2040
1631118286670,2041
1631118286674,2040
1631118286678,2039
1631118286682,2038
1631118286686,2037
1631118286690,2037
1631118286694,2038
1631118286698,2038
1631118286702,2038
1631118286706,2039
1631118286710,2039
1631118286714,2039
1631118286718,2039
1631118286722,2039
1631118286726,2040
1631118286730,2040
1631118286734,2041
1631118286738,2041
1631118286742,2038
1631118286746,2034
1631118286750,2030
1631118286754,2031
1631118286758,2041
1631118286762,2069
1631118286766,2115
1631118286770,2170
1631118286774,2216
1631118286778,2232
1631118286782,2209
1631118286786,2151
1631118286790,2081
1631118286794,2025
1631118286798,1997
1631118286802,1998
1631118286806,2015
1631118286810,2034
1631118286814,2044
1631118286818,2046
1631118286822,2046
1631118286826,2046
1631118286830,2048
1631118286834,2049
1631118286838,2050
1631118286842,2050
1631118286846,2050
1631118286850,2050
1631118286854,2052
1631118286858,2054
1631118286862,2056
1631118286866,2057
1631118286870,2058
1631118286874,2059
1631118286878,2060
1631118286882,2061
1631118286886,2062
1631118286890,2064
1631118286894,2065
1631118286898,2066
1631118286902,2067
1631118286906,2068
1631118286910,2070
1631118286914,2071
1631118286918,2073
1631118286922,2074
1631118286926,2075
1631118286930,2077
1631118286934,2079
1631118286938,2082
1631118286942,2085
1631118286946,2087
1631118286950,2090
1631118286954,2092
1631118286958,2094
1631118286962,2096
1631118286966,2098
1631118286970,2100
1631118286974,2103
1631118286978,2107
1631118286982,2111
1631118286986,2115
1631118286990,2118
1631118286994,2121
1631118286998,2123
1631118287002,2124
1631118287006,2126
1631118287010,2127
1631118287014,2129
1631118287018,2130
1631118287022,2131
1631118287026,2131
1631118287030,2129
1631118287034,2126
1631118287038,2122
1631118287042,2116
1631118287046,2108
1631118287050,2101
1631118287054,2092
1631118287058,2083
1631118287062,2075
1631118287066,2067
1631118287070,2060
1631118287074,2054
1631118287078,2049
1631118287082,2044
1631118287086,2039
1631118287090,2035
1631118287094,2032
1631118287098,2030
1631118287102,2029
1631118287106,2028
1631118287110,2028
1631118287114,2027
1631118287118,2027
1631118287122,2027
1631118287126,2027
1631118287130,2028
1631118287134,2028
1631118287138,2028
1631118287142,2028
1631118287146,2028
1631118287150,2029
1631118287154,2029
1631118287158,2030
1631118287162,2031
1631118287166,2031
1631118287170,2031
1631118287174,2031
1631118287178,2031
1631118287182,2031
1631118287186,2031
1631118287190,2032
1631118287194,2033
1631118287198,2033
1631118287202,2033
1631118287206,2033
1631118287210,2033
1631118287214,2033
1631118287218,2034
1631118287222,2034
1631118287226,2034
1631118287230,2034
1631118287234,2034
1631118287238,2034
1631118287242,2034
1631118287246,2034
1631118287250,2033
1631118287254,2033
1631118287258,2034
1631118287262,2035
1631118287266,2036
1631118287270,2037
1631118287274,2038
1631118287278,2038
1631118287282,2037
1631118287286,2037
1631118287290,2036
1631118287294,2036
1631118287298,2037
1631118287302,2037
1631118287306,2037
1631118287310,2038
1631118287314,2038
1631118287318,2038
1631118287322,2038
1631118287326,2039
1631118287330,2039
1631118287334,2039
1631118287338,2039
1631118287342,2040
1631118287346,2040
1631118287350,2040
1631118287354,2041
1631118287358,2041
1631118287362,2041
1631118287366,2041
1631118287370,2042
1631118287374,2042
1631118287378,2042
1631118287382,2042
1631118287386,2042
1631118287390,2042
1631118287394,2042
1631118287398,2040
1631118287402,2039
1631118287406,2037
1631118287410,2036
1631118287414,2036
1631118287418,2038
1631118287422,2040
1631118287426,2042
1631118287430,2044
1631118287434,2046
1631118287438,2047
1631118287442,2048
1631118287446,2050
1631118287450,2051
1631118287454,2051
1631118287458,2051
1631118287462,2051
1631118287466,2052
1631118287470,2052
1631118287474,2052
1631118287478,2052
1631118287482,2050
1631118287486,2048
1631118287490,2047
1631118287494,2046
1631118287498,2045
1631118287502,2045
1631118287506,2047
1631118287510,2048
1631118287514,2048
1631118287518,2049
1631118287522,2049
1631118287526,2048
1631118287530,2049
1631118287534,2050
1631118287538,2051
1631118287542,2052
1631118287546,2052
1631118287550,2052
1631118287554,2052
1631118287558,2052
1631118287562,2053
1631118287566,2054
1631118287570,2056
1631118287574,2057
1631118287578,2056
1631118287582,2052
1631118287586,2047
1631118287590,2042
1631118287594,2044
1631118287598,2055
1631118287602,2085
1631118287606,2132
1631118287610,2188
1631118287614,2237
1631118287618,2259
1631118287622,2243
1631118287626,2192
1631118287630,2124
1631118287634,2063
1631118287638,2029
1631118287642,2023
1631118287646,2035
1631118287650,2051
1631118287654,2061
1631118287658,2064
1631118287662,2061
1631118287666,2059
1631118287670,2058
1631118287674,2058
1631118287678,2058
1631118287682,2058
1631118287686,2059
1631118287690,2060
1631118287694,2060
1631118287698,2061
1631118287702,2063
1631118287706,2064
1631118287710,2065
1631118287714,2065
1631118287718,2065
1631118287722,2064
1631118287726,2065
1631118287730,2066
1631118287734,2069
1631118287738,2071
1631118287742,2073
1631118287746,2074
1631118287750,2074
1631118287754,2075
1631118287758,2075
1631118287762,2076
1631118287766,2078
1631118287770,2079
1631118287774,2081
1631118287778,2083
1631118287782,2085
1631118287786,2087
1631118287790,2090
1631118287794,2092
1631118287798,2094
1631118287802,2096
1631118287806,2097
1631118287810,2099
1631118287814,2102
1631118287818,2106
1631118287822,2111
1631118287826,2116
1631118287830,2120
1631118287834,2122
1631118287838,2124
1631118287842,2125
1631118287846,2127
1631118287850,2129
1631118287854,2131
1631118287858,2132
1631118287862,2133
1631118287866,2133
1631118287870,2133
1631118287874,2131
1631118287878,2128
1631118287882,2123
1631118287886,2116
1631118287890,2108
1631118287894,2100
1631118287898,2092
1631118287902,2084
1631118287906,2077
1631118287910,2070
1631118287914,2063
1631118287918,2056
1631118287922,2050
1631118287926,2045
1631118287930,2041
1631118287934,2039
1631118287938,2037
1631118287942,2036
1631118287946,2035
1631118287950,2034
1631118287954,2034
1631118287958,2033
1631118287962,2033
1631118287966,2033
1631118287970,2033
1631118287974,2033
1631118287978,2032
1631118287982,2033
1631118287986,2034
1631118287990,2035
1631118287994,2036
1631118287998,2036
1631118288002,2036
1631118288006,2036
1631118288010,2036
1631118288014,2036
1631118288018,2036
1631118288022,2036
1631118288026,2037
1631118288030,2037
1631118288034,2038
1631118288038,2037
1631118288042,2036
1631118288046,2035
1631118288050,2035
1631118288054,2035
1631118288058,2036
1631118288062,2037
1631118288066,2038
1631118288070,2038
1631118288074,2038
1631118288078,2037
1631118288082,2037
1631118288086,2037
1631118288090,2037
1631118288094,2037
1631118288098,2037
1631118288102,2037
1631118288106,2037
1631118288110,2037
1631118288114,2037
1631118288118,2037
1631118288122,2036
1631118288126,2036
1631118288130,2036
1631118288134,2036
1631118288138,2037
1631118288142,2038
1631118288146,2039
1631118288150,2039
1631118288154,2039
1631118288158,2038
1631118288162,2038
1631118288166,2037
1631118288170,2038
1631118288174,2038
1631118288178,2038
1631118288182,2039
1631118288186,2038
1631118288190,2038
1631118288194,2038
1631118288198,2038
1631118288202,2039
1631118288206,2039
1631118288210,2040
1631118288214,2040
1631118288218,2040
1631118288222,2040
1631118288226,2040
1631118288230,2040
1631118288234,2040
1631118288238,2040
1631118288242,2039
1631118288246,2038
1631118288250,2036
1631118288254,2035
1631118288258,2035
1631118288262,2037
1631118288266,2039
1631118288270,2043
1631118288274,2045
1631118288278,2047
1631118288282,2047
1631118288286,2047
1631118288290,2048
1631118288294,2048
1631118288298,2048
1631118288302,2050
1631118288306,2051
1631118288310,2051
1631118288314,2050
1631118288318,2048
1631118288322,2046
1631118288326,2044
1631118288330,2042
1631118288334,2041
1631118288338,2042
1631118288342,2042
1631118288346,2043
1631118288350,2043
1631118288354,2042
1631118288358,2042
1631118288362,2041
1631118288366,2041
1631118288370,2041
1631118288374,2041
1631118288378,2042
1631118288382,2042
1631118288386,2042
1631118288390,2042
1631118288394,2042
1631118288398,2042
1631118288402,2042
1631118288406,2042
1631118288410,2043
1631118288414,2044
1631118288418,2044
1631118288422,2041
1631118288426,2036
1631118288430,2031
1631118288434,2032
1631118288438,2044
1631118288442,2073
1631118288446,2118
1631118288450,2174
1631118288454,2224
1631118288458,2248
1631118288462,2234
1631118288466,2184
1631118288470,2116
1631118288474,2056
1631118288478,2021
1631118288482,2014
1631118288486,2026
1631118288490,2043
1631118288494,2051
1631118288498,2053
1631118288502,2051
1631118288506,2049
1631118288510,2048
1631118288514,2049
1631118288518,2049
1631118288522,2050
1631118288526,2051
1631118288530,2053
1631118288534,2054
1631118288538,2055
1631118288542,2056
1631118288546,2057
1631118288550,2058
1631118288554,2059
1631118288558,2059
1631118288562,2060
1631118288566,2060
1631118288570,2061
1631118288574,2061
1631118288578,2063
1631118288582,2064
1631118288586,2066
1631118288590,2067
1631118288594,2068
1631118288598,2069
1631118288602,2070
1631118288606,2071
1631118288610,2073
1631118288614,2075
1631118288618,2078
1631118288622,2081
1631118288626,2083
1631118288630,2086
1631118288634,2088
1631118288638,2089
1631118288642,2091
1631118288646,2093
1631118288650,2095
1631118288654,2099
1631118288658,2104
1631118288662,2109
1631118288666,2114
1631118288670,2118
1631118288674,2121
1631118288678,2124
1631118288682,2126
1631118288686,2127
1631118288690,2128
1631118288694,2129
1631118288698,2130
1631118288702,2131
1631118288706,2131
1631118288710,2130
1631118288714,2129
1631118288718,2126
1631118288722,2120
1631118288726,2113
1631118288730,2105
1631118288734,2096
1631118288738,2088
1631118288742,2079
1631118288746,2072
1631118288750,2065
1631118288754,2058
1631118288758,2050
1631118288762,2045
1631118288766,2039
1631118288770,2035
1631118288774,2033
1631118288778,2031
1631118288782,2031
1631118288786,2031
1631118288790,2030
1631118288794,2029
1631118288798,2028
1631118288802,2027
1631118288806,2027
1631118288810,2028
1631118288814,2028
1631118288818,2028
1631118288822,2029
1631118288826,2030
1631118288830,2031
1631118288834,2031
1631118288838,2031
1631118288842,2030
1631118288846,2030
1631118288850,2030
1631118288854,2030
1631118288858,2031
1631118288862,2032
1631118288866,2033
1631118288870,2033
1631118288874,2032
1631118288878,2032
1631118288882,2032
1631118288886,2032
1631118288890,2032
1631118288894,2032
1631118288898,2033
1631118288902,2034
1631118288906,2034
1631118288910,2034
1631118288914,2033
1631118288918,2033
1631118288922,2033
1631118288926,2033
1631118288930,2033
1631118288934,2033
1631118288938,2032
1631118288942,2033
1631118288946,2033
1631118288950,2034
1631118288954,2035
1631118288958,2036
1631118288962,2035
1631118288966,2035
1631118288970,2034
1631118288974,2034
1631118288978,2034
1631118288982,2035
1631118288986,2034
1631118288990,2034
1631118288994,2034
1631118288998,2034
1631118289002,2034
1631118289006,2035
1631118289010,2035
1631118289014,2036
1631118289018,2037
1631118289022,2037
1631118289026,2037
1631118289030,2037
1631118289034,2037
1631118289038,2037
1631118289042,2037
1631118289046,2036
1631118289050,2036
1631118289054,2037
1631118289058,2037
1631118289062,2037
1631118289066,2037
1631118289070,2038
1631118289074,2038
1631118289078,2038
1631118289082,2038
1631118289086,2037
1631118289090,2036
1631118289094,2034
1631118289098,2033
1631118289102,2033
1631118289106,2034
1631118289110,2036
1631118289114,2036
1631118289118,2037
1631118289122,2039
1631118289126,2041
1631118289130,2044
1631118289134,2046
1631118289138,2048
1631118289142,2048
1631118289146,2048
1631118289150,2048
1631118289154,2048
1631118289158,2048
1631118289162,2048
1631118289166,2048
1631118289170,2048
1631118289174,2047
1631118289178,2045
1631118289182,2044
1631118289186,2044
1631118289190,2043
1631118289194,2043
1631118289198,2043
1631118289202,2043
1631118289206,2043
1631118289210,2043
1631118289214,2043
1631118289218,2042
1631118289222,2042
1631118289226,2042
1631118289230,2042
1631118289234,2042
1631118289238,2042
1631118289242,2041
1631118289246,2040
1631118289250,2040
1631118289254,2039
1631118289258,2039
1631118289262,2039
1631118289266,2039
1631118289270,2039
1631118289274,2035
1631118289278,2029
1631118289282,2023
1631118289286,2022
1631118289290,2031
1631118289294,2057
1631118289298,2101
1631118289302,2158
1631118289306,2210
1631118289310,2237
1631118289314,2226
1631118289318,2178
1631118289322,2111
1631118289326,2049
1631118289330,2013
1631118289334,2004
1631118289338,2016
1631118289342,2033
1631118289346,2045
1631118289350,2048
1631118289354,2046
1631118289358,2044
1631118289362,2043
1631118289366,2042
1631118289370,2042
1631118289374,2042
1631118289378,2044
1631118289382,2046
1631118289386,2048
1631118289390,2048
1631118289394,2049
1631118289398,2050
1631118289402,2051
1631118289406,2052
1631118289410,2053
1631118289414,2055
1631118289418,2056
1631118289422,2057
1631118289426,2058
1631118289430,2059
1631118289434,2060
1631118289438,2060
1631118289442,2060
1631118289446,2061
1631118289450,2062
1631118289454,2064
1631118289458,2066
1631118289462,2069
1631118289466,2071
1631118289470,2073
1631118289474,2075
1631118289478,2077
1631118289482,2079
1631118289486,2081
1631118289490,2082
1631118289494,2084
1631118289498,2086
1631118289502,2090
1631118289506,2094
1631118289510,2098
1631118289514,2101
1631118289518,2104
1631118289522,2106
1631118289526,2109
1631118289530,2111
1631118289534,2112
1631118289538,2114
1631118289542,2116
1631118289546,2118
1631118289550,2120
1631118289554,2121
1631118289558,2121
1631118289562,2120
1631118289566,2118
1631118289570,2114
1631118289574,2110
1631118289578,2105
1631118289582,2098
1631118289586,2091
1631118289590,2082
1631118289594,2072
1631118289598,2063
1631118289602,2054
1631118289606,2047
1631118289610,2040
1631118289614,2034
1631118289618,2030
1631118289622,2026
1631118289626,2023
1631118289630,2020
1631118289634,2018
1631118289638,2017
1631118289642,2015
1631118289646,2014
1631118289650,2013
1631118289654,2013
1631118289658,2013
1631118289662,2013
1631118289666,2014
1631118289670,2014
1631118289674,2015
1631118289678,2016
1631118289682,2017
1631118289686,2018
1631118289690,2018
1631118289694,2018
1631118289698,2018
1631118289702,2018
1631118289706,2020
1631118289710,2021
1631118289714,2021
1631118289718,2021
1631118289722,2021
1631118289726,2020
1631118289730,2021
1631118289734,2021
1631118289738,2021
1631118289742,2022
1631118289746,2023
1631118289750,2024
1631118289754,2025
1631118289758,2025
1631118289762,2024
1631118289766,2023
1631118289770,2022
1631118289774,2021
1631118289778,2021
1631118289782,2021
1631118289786,2022
1631118289790,2022
1631118289794,2023
1631118289798,2023
1631118289802,2023
1631118289806,2022
1631118289810,2022
1631118289814,2022
1631118289818,2022
1631118289822,2023
1631118289826,2023
1631118289830,2024
1631118289834,2024
1631118289838,2024
1631118289842,2023
1631118289846,2023
1631118289850,2023
1631118289854,2023
1631118289858,2023
1631118289862,2024
1631118289866,2024
1631118289870,2025
1631118289874,2024
1631118289878,2023
1631118289882,2022
1631118289886,2022
1631118289890,2023
1631118289894,2023
1631118289898,2024
1631118289902,2025
1631118289906,2026
1631118289910,2027
1631118289914,2028
1631118289918,2028
1631118289922,2028
1631118289926,2026
1631118289930,2025
1631118289934,2024
1631118289938,2023
1631118289942,2024
1631118289946,2025
1631118289950,2026
1631118289954,2028
1631118289958,2030
1631118289962,2032
1631118289966,2033
1631118289970,2035
1631118289974,2037
1631118289978,2038
1631118289982,2039
1631118289986,2040
1631118289990,2040
1631118289994,2040
1631118289998,2040
1631118290002,2040
1631118290006,2038
1631118290010,2037
1631118290014,2036
1631118290018,2034
1631118290022,2033
1631118290026,2033
1631118290030,2032
1631118290034,2032
1631118290038,2032
1631118290042,2033
1631118290046,2033
1631118290050,2033
1631118290054,2032
1631118290058,2032
1631118290062,2033
1631118290066,2033
1631118290070,2034
1631118290074,2034
1631118290078,2034
1631118290082,2033
1631118290086,2033
1631118290090,2033
1631118290094,2033
1631118290098,2035
1631118290102,2037
1631118290106,2038
1631118290110,2037
1631118290114,2033
1631118290118,2027
1631118290122,2023
1631118290126,2025
1631118290130,2037
1631118290134,2065
1631118290138,2111
1631118290142,2166
1631118290146,2214
1631118290150,2234
1631118290154,2214
1631118290158,2159
1631118290162,2089
1631118290166,2030
1631118290170,1998
1631118290174,1995
1631118290178,2012
1631118290182,2032
1631118290186,2044
1631118290190,2048
1631118290194,2048
1631118290198,2048
1631118290202,2048
1631118290206,2048
1631118290210,2048
1631118290214,2048
1631118290218,2049
1631118290222,2052
1631118290226,2055
1631118290230,2058
1631118290234,2059
1631118290238,2059
1631118290242,2060
1631118290246,2060
1631118290250,2061
1631118290254,2063
1631118290258,2065
1631118290262,2067
1631118290266,2068
1631118290270,2069
1631118290274,2070
1631118290278,2071
1631118290282,2072
1631118290286,2074
1631118290290,2075
1631118290294,2078
1631118290298,2080
1631118290302,2082
1631118290306,2083
1631118290310,2085
1631118290314,2088
1631118290318,2091
1631118290322,2093
1631118290326,2094
1631118290330,2095
1631118290334,2097
1631118290338,2099
1631118290342,2102
1631118290346,2107
1631118290350,2111
1631118290354,2115
1631118290358,2118
1631118290362,2120
1631118290366,2122
1631118290370,2124
1631118290374,2127
1631118290378,2131
1631118290382,2134
1631118290386,2136
1631118290390,2137
1631118290394,2137
1631118290398,2137
1631118290402,2135
1631118290406,2133
1631118290410,2129
1631118290414,2123
1631118290418,2117
1631118290422,2110
1631118290426,2102
1631118290430,2093
1631118290434,2083
1631118290438,2073
1631118290442,2064
1631118290446,2055
1631118290450,2049
1631118290454,2045
1631118290458,2040
1631118290462,2037
1631118290466,2034
1631118290470,2031
1631118290474,2030
1631118290478,2029
1631118290482,2029
1631118290486,2029
1631118290490,2029
1631118290494,2028
1631118290498,2028
1631118290502,2028
1631118290506,2028
1631118290510,2029
1631118290514,2030
1631118290518,2031
1631118290522,2031
1631118290526,2031
1631118290530,2031
1631118290534,2032
1631118290538,2032
1631118290542,2032
1631118290546,2033
1631118290550,2034
1631118290554,2035
1631118290558,2035
1631118290562,2035
1631118290566,2034
1631118290570,2033
1631118290574,2032
1631118290578,2032
1631118290582,2033
1631118290586,2034
1631118290590,2035
1631118290594,2036
1631118290598,2036
1631118290602,2036
1631118290606,2036
1631118290610,2036
1631118290614,2035
1631118290618,2035
1631118290622,2035
1631118290626,2035
1631118290630,2035
1631118290634,2036
1631118290638,2036
1631118290642,2036
1631118290646,2036
1631118290650,2035
1631118290654,2034
1631118290658,2033
1631118290662,2033
1631118290666,2033
1631118290670,2035
1631118290674,2036
1631118290678,2037
1631118290682,2037
1631118290686,2035
1631118290690,2034
1631118290694,2033
1631118290698,2034
1631118290702,2035
1631118290706,2037
1631118290710,2038
1631118290714,2038
1631118290718,2038
1631118290722,2037
1631118290726,2036
1631118290730,2036
1631118290734,2036
1631118290738,2037
1631118290742,2037
1631118290746,2038
1631118290750,2039
1631118290754,2040
1631118290758,2040
1631118290762,2040
1631118290766,2038
1631118290770,2037
1631118290774,2036
1631118290778,2035
1631118290782,2036
1631118290786,2037
1631118290790,2038
1631118290794,2040
1631118290798,2042
1631118290802,2044
1631118290806,2046
1631118290810,2048
1631118290814,2048
1631118290818,2048
1631118290822,2049
1631118290826,2049
1631118290830,2050
1631118290834,2051
1631118290838,2050
1631118290842,2049
1631118290846,2048
1631118290850,2046
1631118290854,2044
1631118290858,2043
1631118290862,2043
1631118290866,2044
1631118290870,2045
1631118290874,2045
1631118290878,2046
1631118290882,2045
1631118290886,2045
1631118290890,2044
1631118290894,2044
1631118290898,2043
1631118290902,2043
1631118290906,2044
1631118290910,2044
1631118290914,2045
1631118290918,2045
1631118290922,2045
1631118290926,2045
1631118290930,2045
1631118290934,2046
1631118290938,2047
1631118290942,2047
1631118290946,2047
1631118290950,2044
1631118290954,2039
1631118290958,2033
1631118290962,2033
1631118290966,2042
1631118290970,2066
1631118290974,2110
1631118290978,2165
1631118290982,2216
1631118290986,2241
1631118290990,2228
1631118290994,2178
1631118290998,2110
1631118291002,2048
1631118291006,2014
1631118291010,2008
1631118291014,2022
1631118291018,2042
1631118291022,2053
1631118291026,2056
1631118291030,2054
1631118291034,2052
1631118291038,2051
1631118291042,2051
1631118291046,2051
1631118291050,2051
1631118291054,2052
1631118291058,2054
1631118291062,2057
1631118291066,2059
1631118291070,2060
1631118291074,2061
1631118291078,2061
1631118291082,2061
1631118291086,2061
1631118291090,2061
1631118291094,2062
1631118291098,2064
1631118291102,2067
1631118291106,2069
1631118291110,2071
1631118291114,2072
1631118291118,2072
1631118291122,2073
1631118291126,2074
1631118291130,2076
1631118291134,2078
1631118291138,2080
1631118291142,2082
1631118291146,2084
1631118291150,2087
1631118291154,2089
1631118291158,2091
1631118291162,2093
1631118291166,2095
1631118291170,2097
1631118291174,2101
1631118291178,2104
1631118291182,2108
1631118291186,2110
1631118291190,2113
1631118291194,2116
1631118291198,2118
1631118291202,2121
1631118291206,2123
1631118291210,2126
1631118291214,2128
1631118291218,2129
1631118291222,2131
1631118291226,2132
1631118291230,2132
1631118291234,2132
1631118291238,2131
1631118291242,2130
1631118291246,2127
1631118291250,2123
1631118291254,2117
1631118291258,2111
1631118291262,2102
1631118291266,2094
1631118291270,2085
1631118291274,2077
1631118291278,2069
1631118291282,2063
1631118291286,2057
1631118291290,2051
1631118291294,2046
1631118291298,2042
1631118291302,2039
1631118291306,2037
1631118291310,2035
1631118291314,2033
1631118291318,2031
1631118291322,2030
1631118291326,2029
1631118291330,2029
1631118291334,2030
1631118291338,2031
1631118291342,2032
1631118291346,2033
1631118291350,2033
1631118291354,2033
1631118291358,2032
1631118291362,2032
1631118291366,2033
1631118291370,2033
1631118291374,2033
1631118291378,2034
1631118291382,2034
1631118291386,2034
1631118291390,2034
1631118291394,2034
1631118291398,2034
1631118291402,2034
1631118291406,2033
1631118291410,2033
1631118291414,2033
1631118291418,2033
1631118291422,2033
1631118291426,2034
1631118291430,2034
1631118291434,2034
1631118291438,2034
1631118291442,2034
1631118291446,2035
1631118291450,2035
1631118291454,2036
1631118291458,2036
1631118291462,2036
1631118291466,2036
1631118291470,2036
1631118291474,2036
1631118291478,2035
1631118291482,2036
1631118291486,2036
1631118291490,2036
1631118291494,2036
1631118291498,2037
1631118291502,2038
1631118291506,2038
1631118291510,2038
1631118291514,2039
1631118291518,2039
1631118291522,2039
1631118291526,2039
1631118291530,2039
1631118291534,2038
1631118291538,2038
1631118291542,2039
1631118291546,2040
1631118291550,2042
1631118291554,2044
1631118291558,2045
1631118291562,2046
1631118291566,2046
1631118291570,2046
1631118291574,2046
1631118291578,2046
1631118291582,2046
1631118291586,2046
1631118291590,2047
1631118291594,2047
1631118291598,2047
1631118291602,2047
1631118291606,2047
1631118291610,2047
1631118291614,2047
1631118291618,2047
1631118291622,2047
1631118291626,2046
1631118291630,2046
1631118291634,2046
1631118291638,2046
1631118291642,2046
1631118291646,2046
1631118291650,2047
1631118291654,2048
1631118291658,2048
1631118291662,2050
1631118291666,2052
1631118291670,2055
1631118291674,2056
1631118291678,2057
1631118291682,2058
1631118291686,2057
1631118291690,2057
1631118291694,2057
1631118291698,2057
1631118291702,2057
1631118291706,2057
1631118291710,2056
1631118291714,2055
1631118291718,2053
1631118291722,2051
1631118291726,2050
1631118291730,2049
1631118291734,2049
1631118291738,2049
1631118291742,2050
1631118291746,2050
1631118291750,2051
1631118291754,2051
1631118291758,2051
1631118291762,2050
1631118291766,2049
1631118291770,2049
1631118291774,2049
1631118291778,2049
1631118291782,2050
1631118291786,2051
1631118291790,2051
1631118291794,2051
1631118291798,2051
1631118291802,2052
1631118291806,2052
1631118291810,2051
1631118291814,2048
1631118291818,2042
1631118291822,2038
1631118291826,2043
1631118291830,2060
1631118291834,2094
1631118291838,2143
1631118291842,2198
1631118291846,2241
1631118291850,2256
1631118291854,2235
1631118291858,2182
1631118291862,2117
1631118291866,2063
1631118291870,2034
1631118291874,2030
1631118291878,2040
1631118291882,2053
1631118291886,2060
1631118291890,2061
1631118291894,2060
1631118291898,2059
1631118291902,2059
1631118291906,2059
1631118291910,2059
1631118291914,2058
1631118291918,2059
1631118291922,2059
1631118291926,2060
1631118291930,2060
1631118291934,2061
1631118291938,2062
1631118291942,2064
1631118291946,2065
1631118291950,2066
1631118291954,2066
1631118291958,2066
1631118291962,2066
1631118291966,2067
1631118291970,2068
1631118291974,2070
1631118291978,2072
1631118291982,2073
1631118291986,2074
1631118291990,2075
1631118291994,2077
1631118291998,2078
1631118292002,2079
1631118292006,2080
1631118292010,2081
1631118292014,2083
1631118292018,2085
1631118292022,2088
1631118292026,2091
1631118292030,2095
1631118292034,2098
1631118292038,2101
1631118292042,2103
1631118292046,2105
1631118292050,2108
1631118292054,2110
1631118292058,2113
1631118292062,2116
1631118292066,2120
1631118292070,2123
1631118292074,2126
1631118292078,2127
1631118292082,2128
1631118292086,2129
1631118292090,2130
1631118292094,2130
1631118292098,2131
1631118292102,2131
1631118292106,2131
1631118292110,2128
1631118292114,2124
1631118292118,2117
1631118292122,2109
1631118292126,2101
1631118292130,2092
1631118292134,2083
1631118292138,2075
1631118292142,2067
1631118292146,2060
1631118292150,2053
1631118292154,2048
1631118292158,2044
1631118292162,2040
1631118292166,2037
1631118292170,2035
1631118292174,2033
1631118292178,2032
1631118292182,2031
1631118292186,2031
1631118292190,2030
1631118292194,2029
1631118292198,2029
1631118292202,2029
1631118292206,2029
1631118292210,2029
1631118292214,2029
1631118292218,2029
1631118292222,2030
1631118292226,2030
1631118292230,2032
1631118292234,2032
1631118292238,2032
1631118292242,2032
1631118292246,2031
1631118292250,2031
1631118292254,2032
1631118292258,2033
1631118292262,2034
1631118292266,2034
1631118292270,2034
1631118292274,2033
1631118292278,2033
1631118292282,2033
1631118292286,2033
1631118292290,2034
1631118292294,2034
1631118292298,2035
1631118292302,2035
1631118292306,2034
1631118292310,2034
1631118292314,2033
1631118292318,2033
1631118292322,2033
1631118292326,2034
1631118292330,2034
1631118292334,2034
1631118292338,2034
1631118292342,2034
1631118292346,2035
1631118292350,2035
1631118292354,2035
1631118292358,2034
1631118292362,2034
1631118292366,2033
1631118292370,2033
1631118292374,2034
1631118292378,2035
1631118292382,2036
1631118292386,2036
1631118292390,2036
1631118292394,2035
1631118292398,2035
1631118292402,2034
1631118292406,2034
1631118292410,2034
1631118292414,2034
1631118292418,2035
1631118292422,2036
1631118292426,2037
1631118292430,2038
1631118292434,2038
1631118292438,2038
1631118292442,2038
1631118292446,2037
1631118292450,2037
1631118292454,2037
1631118292458,2037
1631118292462,2038
1631118292466,2038
1631118292470,2038
1631118292474,2038
1631118292478,2038
1631118292482,2038
1631118292486,2038
1631118292490,2037
1631118292494,2035
1631118292498,2034
1631118292502,2034
1631118292506,2035
1631118292510,2037
1631118292514,2038
1631118292518,2039
1631118292522,2040
1631118292526,2041
1631118292530,2043
1631118292534,2045
1631118292538,2048
1631118292542,2048
1631118292546,2048
1631118292550,2048
1631118292554,2048
1631118292558,2048
1631118292562,2048
1631118292566,2049
1631118292570,2048
1631118292574,2047
1631118292578,2045
1631118292582,2043
1631118292586,2042
1631118292590,2042
1631118292594,2043
1631118292598,2044
1631118292602,2044
1631118292606,2044
1631118292610,2043
1631118292614,2042
1631118292618,2042
1631118292622,2042
1631118292626,2042
1631118292630,2042
1631118292634,2043
1631118292638,2043
1631118292642,2043
1631118292646,2043
1631118292650,2043
1631118292654,2042
1631118292658,2042
1631118292662,2043
1631118292666,2044
1631118292670,2045
1631118292674,2044
1631118292678,2040
1631118292682,2033
1631118292686,2029
1631118292690,2031
1631118292694,2047
1631118292698,2078
1631118292702,2127
1631118292706,2184
1631118292710,2232
1631118292714,2252
1631118292718,2233
1631118292722,2181
1631118292726,2113
1631118292730,2054
1631118292734,2022
1631118292738,2017
1631118292742,2030
1631118292746,2046
1631118292750,2053
1631118292754,2054
1631118292758,2050
1631118292762,2048
1631118292766,2047
1631118292770,2047
1631118292774,2048
1631118292778,2048
1631118292782,2050
1631118292786,2052
1631118292790,2053
1631118292794,2054
1631118292798,2054
1631118292802,2055
1631118292806,2055
1631118292810,2056
1631118292814,2057
1631118292818,2058
1631118292822,2059
1631118292826,2061
1631118292830,2062
1631118292834,2063
1631118292838,2064
1631118292842,2065
1631118292846,2066
1631118292850,2067
1631118292854,2068
1631118292858,2070
1631118292862,2072
1631118292866,2074
1631118292870,2076
1631118292874,2078
1631118292878,2079
1631118292882,2081
1631118292886,2083
1631118292890,2085
1631118292894,2088
1631118292898,2090
1631118292902,2093
1631118292906,2096
1631118292910,2099
1631118292914,2103
1631118292918,2106
1631118292922,2109
1631118292926,2111
1631118292930,2113
1631118292934,2115
1631118292938,2118
1631118292942,2120
1631118292946,2123
1631118292950,2125
1631118292954,2126
1631118292958,2127
1631118292962,2127
1631118292966,2127
1631118292970,2125
1631118292974,2123
1631118292978,2119
1631118292982,2113
1631118292986,2106
1631118292990,2098
1631118292994,2089
1631118292998,2080
1631118293002,2071
1631118293006,2063
1631118293010,2055
1631118293014,2049
1631118293018,2045
1631118293022,2041
1631118293026,2039
1631118293030,2037
1631118293034,2034
1631118293038,2032
1631118293042,2029
1631118293046,2027
1631118293050,2026
1631118293054,2026
1631118293058,2026
1631118293062,2026
1631118293066,2027
1631118293070,2028
1631118293074,2028
1631118293078,2029
1631118293082,2029
1631118293086,2028
1631118293090,2028
1631118293094,2027
1631118293098,2028
1631118293102,2029
1631118293106,2030
1631118293110,2032
1631118293114,2032
1631118293118,2032
1631118293122,2031
1631118293126,2030
1631118293130,2030
1631118293134,2030
1631118293138,2030
1631118293142,2030
1631118293146,2031
1631118293150,2031
1631118293154,2031
1631118293158,2032
1631118293162,2032
1631118293166,2032
1631118293170,2032
1631118293174,2032
1631118293178,2032
1631118293182,2032
1631118293186,2032
1631118293190,2032
1631118293194,2032
1631118293198,2031
1631118293202,2031
1631118293206,2031
1631118293210,2032
1631118293214,2032
1631118293218,2032
1631118293222,2033
1631118293226,2034
1631118293230,2035
1631118293234,2035
1631118293238,2035
1631118293242,2034
1631118293246,2033
1631118293250,2033
1631118293254,2032
1631118293258,2032
1631118293262,2033
1631118293266,2035
1631118293270,2036
1631118293274,2037
1631118293278,2038
1631118293282,2038
1631118293286,2037
1631118293290,2036
1631118293294,2036
1631118293298,2036
1631118293302,2037
1631118293306,2038
1631118293310,2039
1631118293314,2039
1631118293318,2039
1631118293322,2037
1631118293326,2036
1631118293330,2036
1631118293334,2036
1631118293338,2036
1631118293342,2038
1631118293346,2039
1631118293350,2040
1631118293354,2040
1631118293358,2040
1631118293362,2039
1631118293366,2037
1631118293370,2036
1631118293374,2035
1631118293378,2034
1631118293382,2034
1631118293386,2035
1631118293390,2036
1631118293394,2038
1631118293398,2040
1631118293402,2042
1631118293406,2044
1631118293410,2045
1631118293414,2045
1631118293418,2045
1631118293422,2046
1631118293426,2046
1631118293430,2048
1631118293434,2048
1631118293438,2048
1631118293442,2048
1631118293446,2047
1631118293450,2044
1631118293454,2042
1631118293458,2040
1631118293462,2039
1631118293466,2040
1631118293470,2041
1631118293474,2043
1631118293478,2043
1631118293482,2042
1631118293486,2041
1631118293490,2040
1631118293494,2039
1631118293498,2039
1631118293502,2039
1631118293506,2040
1631118293510,2040
1631118293514,2039
1631118293518,2038
1631118293522,2037
1631118293526,2036
1631118293530,2036
1631118293534,2036
1631118293538,2037
1631118293542,2038
1631118293546,2039
1631118293550,2037
1631118293554,2033
1631118293558,2026
1631118293562,2023
1631118293566,2029
1631118293570,2049
1631118293574,2089
1631118293578,2144
1631118293582,2200
1631118293586,2237
1631118293590,2236
1631118293594,2196
1631118293598,2129
1631118293602,2061
1631118293606,2015
1631118293610,1998
1631118293614,2007
1631118293618,2026
1631118293622,2041
1631118293626,2047
1631118293630,2047
1631118293634,2044
1631118293638,2043
1631118293642,2042
1631118293646,2042
1631118293650,2041
1631118293654,2041
1631118293658,2041
1631118293662,2042
1631118293666,2042
1631118293670,2043
1631118293674,2044
1631118293678,2045
1631118293682,2046
1631118293686,2047
1631118293690,2047
1631118293694,2047
1631118293698,2048
1631118293702,2049
1631118293706,2051
1631118293710,2053
1631118293714,2055
1631118293718,2056
1631118293722,2057
1631118293726,2058
1631118293730,2059
1631118293734,2061
1631118293738,2062
1631118293742,2065
1631118293746,2067
1631118293750,2070
1631118293754,2072
1631118293758,2074
1631118293762,2075
1631118293766,2076
1631118293770,2078
1631118293774,2081
1631118293778,2084
1631118293782,2088
1631118293786,2092
1631118293790,2095
1631118293794,2098
1631118293798,2100
1631118293802,2102
1631118293806,2105
1631118293810,2108
1631118293814,2111
1631118293818,2114
1631118293822,2117
1631118293826,2118
1631118293830,2119
1631118293834,2118
1631118293838,2117
1631118293842,2115
1631118293846,2111
1631118293850,2107
1631118293854,2102
1631118293858,2096
1631118293862,2089
1631118293866,2081
1631118293870,2073
1631118293874,2063
1631118293878,2054
1631118293882,2046
1631118293886,2039
1631118293890,2034
1631118293894,2029
1631118293898,2026
1631118293902,2024
1631118293906,2021
1631118293910,2018
1631118293914,2015
1631118293918,2013
1631118293922,2011
1631118293926,2011
1631118293930,2011
1631118293934,2013
1631118293938,2014
1631118293942,2014
1631118293946,2014
1631118293950,2014
1631118293954,2014
1631118293958,2014
1631118293962,2015
1631118293966,2014
1631118293970,2014
1631118293974,2014
1631118293978,2014
1631118293982,2014
1631118293986,2015
1631118293990,2017
1631118293994,2019
1631118293998,2020
1631118294002,2020
1631118294006,2019
1631118294010,2018
1631118294014,2018
1631118294018,2018
1631118294022,2020
1631118294026,2021
1631118294030,2022
1631118294034,2022
1631118294038,2021
1631118294042,2020
1631118294046,2020
1631118294050,2019
1631118294054,2019
1631118294058,2019
1631118294062,2020
1631118294066,2020
1631118294070,2021
1631118294074,2021
1631118294078,2021
1631118294082,2021
1631118294086,2021
1631118294090,2023
1631118294094,2024
1631118294098,2024
1631118294102,2025
1631118294106,2024
1631118294110,2024
1631118294114,2024
1631118294118,2024
1631118294122,2024
1631118294126,2024
1631118294130,2024
1631118294134,2025
1631118294138,2026
1631118294142,2027
1631118294146,2027
1631118294150,2027
1631118294154,2027
1631118294158,2027
1631118294162,2027
1631118294166,2028
1631118294170,2028
1631118294174,2029
1631118294178,2029
1631118294182,2029
1631118294186,2029
1631118294190,2029
1631118294194,2030
1631118294198,2030
1631118294202,2031
1631118294206,2030
1631118294210,2029
1631118294214,2028
1631118294218,2027
1631118294222,2028
1631118294226,2029
1631118294230,2030
1631118294234,2033
1631118294238,2035
1631118294242,2037
1631118294246,2038
1631118294250,2039
1631118294254,2040
1631118294258,2041
1631118294262,2042
1631118294266,2043
1631118294270,2044
1631118294274,2044
1631118294278,2045
1631118294282,2045
1631118294286,2045
1631118294290,2044
1631118294294,2042
1631118294298,2040
1631118294302,2039
1631118294306,2038
1631118294310,2039
1631118294314,2040
1631118294318,2040
1631118294322,2040
1631118294326,2039
1631118294330,2038
1631118294334,2037
1631118294338,2037
1631118294342,2037
1631118294346,2038
1631118294350,2038
1631118294354,2040
1631118294358,2041
1631118294362,2041
1631118294366,2041
1631118294370,2040
1631118294374,2039
1631118294378,2039
1631118294382,2040
1631118294386,2042
1631118294390,2044
1631118294394,2043
1631118294398,2039
1631118294402,2034
1631118294406,2032
1631118294410,2039
1631118294414,2061
1631118294418,2101
1631118294422,2154
1631118294426,2205
1631118294430,2234
1631118294434,2225
1631118294438,2179
1631118294442,2110
1631118294446,2045
1631118294450,2004
1631118294454,1994
1631118294458,2008
1631118294462,2029
1631118294466,2045
1631118294470,2050
1631118294474,2051
1631118294478,2051
1631118294482,2052
1631118294486,2053
1631118294490,2054
1631118294494,2054
1631118294498,2054
1631118294502,2054
1631118294506,2056
1631118294510,2058
1631118294514,2060
1631118294518,2061
1631118294522,2061
1631118294526,2062
1631118294530,2064
1631118294534,2066
1631118294538,2068
1631118294542,2070
1631118294546,2071
1631118294550,2072
1631118294554,2072
1631118294558,2073
1631118294562,2074
1631118294566,2076
1631118294570,2077
1631118294574,2079
1631118294578,2081
1631118294582,2083
1631118294586,2085
1631118294590,2087
1631118294594,2089
1631118294598,2092
1631118294602,2094
1631118294606,2096
1631118294610,2099
1631118294614,2101
1631118294618,2103
1631118294622,2106
1631118294626,2109
1631118294630,2112
1631118294634,2116
1631118294638,2119
1631118294642,2121
1631118294646,2124
1631118294650,2127
1631118294654,2130
1631118294658,2132
1631118294662,2135
1631118294666,2137
1631118294670,2139
1631118294674,2140
1631118294678,2140
1631118294682,2139
1631118294686,2136
1631118294690,2133
1631118294694,2129
1631118294698,2123
1631118294702,2116
1631118294706,2108
1631118294710,2098
1631118294714,2088
1631118294718,2078
1631118294722,2070
1631118294726,2062
1631118294730,2056
1631118294734,2051
1631118294738,2048
1631118294742,2044
1631118294746,2040
1631118294750,2037
1631118294754,2035
1631118294758,2033
1631118294762,2032
1631118294766,2030
1631118294770,2030
1631118294774,2029
1631118294778,2030
1631118294782,2032
1631118294786,2033
1631118294790,2035
1631118294794,2035
1631118294798,2034
1631118294802,2033
1631118294806,2033
1631118294810,2033
1631118294814,2034
1631118294818,2034
1631118294822,2034
1631118294826,2034
1631118294830,2034
1631118294834,2035
1631118294838,2035
1631118294842,2035
1631118294846,2035
1631118294850,2036
1631118294854,2037
1631118294858,2037
1631118294862,2038
1631118294866,2037
1631118294870,2037
1631118294874,2037
1631118294878,2038
1631118294882,2039
1631118294886,2039
1631118294890,2039
1631118294894,2039
1631118294898,2038
1631118294902,2037
1631118294906,2037
1631118294910,2037
1631118294914,2038
1631118294918,2038
1631118294922,2039
1631118294926,2039
1631118294930,2039
1631118294934,2039
1631118294938,2039
1631118294942,2039
1631118294946,2038
1631118294950,2039
1631118294954,2039
1631118294958,2039
1631118294962,2039
1631118294966,2040
1631118294970,2040
1631118294974,2040
1631118294978,2040
1631118294982,2041
1631118294986,2041
1631118294990,2041
1631118294994,2041
1631118294998,2042
1631118295002,2042
1631118295006,2042
1631118295010,2041
1631118295014,2041
1631118295018,2042
1631118295022,2043
1631118295026,2044
1631118295030,2044
1631118295034,2044
1631118295038,2044
1631118295042,2043
1631118295046,2042
1631118295050,2041
1631118295054,2041
1631118295058,2040
1631118295062,2041
1631118295066,2042
1631118295070,2043
1631118295074,2044
1631118295078,2046
1631118295082,2047
1631118295086,2048
1631118295090,2050
1631118295094,2051
1631118295098,2052
1631118295102,2052
1631118295106,2053
1631118295110,2053
1631118295114,2054
1631118295118,2054
1631118295122,2054
1631118295126,2053
1631118295130,2051
1631118295134,2050
1631118295138,2048
1631118295142,2048
1631118295146,2047
1631118295150,2047
1631118295154,2048
1631118295158,2048
1631118295162,2048
1631118295166,2047
1631118295170,2047
1631118295174,2046
1631118295178,2046
1631118295182,2045
1631118295186,2045
1631118295190,2046
1631118295194,2047
1631118295198,2048
1631118295202,2048
1631118295206,2048
1631118295210,2047
1631118295214,2047
1631118295218,2048
1631118295222,2048
1631118295226,2049
1631118295230,2048
1631118295234,2045
1631118295238,2039
1631118295242,2035
1631118295246,2038
1631118295250,2054
1631118295254,2088
1631118295258,2138
1631118295262,2193
1631118295266,2233
1631118295270,2242
1631118295274,2212
1631118295278,2152
1631118295282,2084
1631118295286,2033
1631118295290,2011
1631118295294,2014
1631118295298,2032
1631118295302,2048
1631118295306,2056
1631118295310,2057
1631118295314,2055
1631118295318,2053
1631118295322,2054
1631118295326,2055
1631118295330,2055
1631118295334,2057
1631118295338,2058
1631118295342,2059
1631118295346,2060
1631118295350,2061
1631118295354,2062
1631118295358,2063
1631118295362,2064
1631118295366,2064
1631118295370,2064
1631118295374,2065
1631118295378,2066
1631118295382,2067
1631118295386,2068
1631118295390,2069
1631118295394,2070
1631118295398,2071
1631118295402,2071
1631118295406,2072
1631118295410,2073
1631118295414,2074
1631118295418,2076
1631118295422,2079
1631118295426,2081
1631118295430,2083
1631118295434,2084
1631118295438,2086
1631118295442,2087
1631118295446,2089
1631118295450,2092
1631118295454,2095
1631118295458,2098
1631118295462,2101
1631118295466,2104
1631118295470,2107
1631118295474,2110
1631118295478,2112
1631118295482,2115
1631118295486,2117
1631118295490,2119
1631118295494,2121
1631118295498,2123
1631118295502,2125
1631118295506,2127
1631118295510,2128
1631118295514,2129
1631118295518,2129
1631118295522,2127
1631118295526,2124
1631118295530,2121
1631118295534,2116
1631118295538,2111
1631118295542,2105
1631118295546,2098
1631118295550,2090
1631118295554,2082
1631118295558,2073
1631118295562,2065
1631118295566,2057
1631118295570,2051
1631118295574,2046
1631118295578,2042
1631118295582,2039
1631118295586,2036
1631118295590,2035
1631118295594,2034
1631118295598,2033
1631118295602,2033
1631118295606,2033
1631118295610,2032
1631118295614,2032
1631118295618,2032
1631118295622,2032
1631118295626,2032
1631118295630,2033
1631118295634,2033
1631118295638,2033
1631118295642,2033
1631118295646,2033
1631118295650,2032
1631118295654,2033
1631118295658,2033
1631118295662,2034
1631118295666,2035
1631118295670,2036
1631118295674,2036
1631118295678,2035
1631118295682,2035
1631118295686,2034
1631118295690,2035
1631118295694,2035
1631118295698,2035
1631118295702,2036
1631118295706,2036
1631118295710,2035
1631118295714,2035
1631118295718,2035
1631118295722,2034
1631118295726,2034
1631118295730,2035
1631118295734,2036
1631118295738,2037
1631118295742,2038
1631118295746,2038
1631118295750,2038
1631118295754,2037
1631118295758,2037
1631118295762,2037
1631118295766,2037
1631118295770,2037
1631118295774,2037
1631118295778,2037
1631118295782,2038
1631118295786,2039
1631118295790,2040
1631118295794,2040
1631118295798,2039
1631118295802,2038
1631118295806,2038
1631118295810,2037
1631118295814,2037
1631118295818,2038
1631118295822,2039
1631118295826,2039
1631118295830,2040
1631118295834,2040
1631118295838,2040
1631118295842,2040
1631118295846,2039
1631118295850,2038
1631118295854,2038
1631118295858,2038
1631118295862,2039
1631118295866,2039
1631118295870,2039
1631118295874,2040
1631118295878,2040
1631118295882,2041
1631118295886,2041
1631118295890,2041
1631118295894,2041
1631118295898,2040
1631118295902,2040
1631118295906,2039
1631118295910,2039
1631118295914,2039
1631118295918,2040
1631118295922,2041
1631118295926,2043
1631118295930,2044
1631118295934,2046
1631118295938,2048
1631118295942,2048
1631118295946,2049
1631118295950,2050
1631118295954,2051
1631118295958,2052
1631118295962,2053
1631118295966,2053
1631118295970,2053
1631118295974,2053
1631118295978,2053
1631118295982,2052
1631118295986,2050
1631118295990,2050
1631118295994,2049
1631118295998,2050
1631118296002,2051
1631118296006,2050
1631118296010,2050
1631118296014,2049
1631118296018,2049
1631118296022,2049
1631118296026,2050
1631118296030,2051
1631118296034,2052
1631118296038,2051
1631118296042,2051
1631118296046,2051
1631118296050,2051
1631118296054,2051
1631118296058,2052
1631118296062,2053
1631118296066,2055
1631118296070,2056
1631118296074,2055
1631118296078,2053
1631118296082,2048
1631118296086,2043
1631118296090,2040
1631118296094,2045
1631118296098,2064
1631118296102,2101
1631118296106,2151
1631118296110,2206
1631118296114,2247
1631118296118,2257
1631118296122,2231
1631118296126,2176
1631118296130,2111
1631118296134,2059
1631118296138,2034
1631118296142,2033
1631118296146,2046
1631118296150,2058
1631118296154,2064
1631118296158,2063
1631118296162,2059
1631118296166,2057
1631118296170,2057
1631118296174,2057
1631118296178,2057
1631118296182,2057
1631118296186,2058
1631118296190,2059
1631118296194,2060
1631118296198,2062
1631118296202,2063
1631118296206,2064
1631118296210,2065
1631118296214,2066
1631118296218,2067
1631118296222,2069
1631118296226,2070
1631118296230,2071
1631118296234,2072
1631118296238,2072
1631118296242,2073
1631118296246,2073
1631118296250,2073
1631118296254,2074
