timestamp,green,ir,red
1631118271008,47662,247144,208412
1631118271018,47657,247153,208429
1631118271028,47658,247164,208401
1631118271038,47650,247197,208433
1631118271048,47646,247203,208441
1631118271058,47644,247182,208447
1631118271068,47631,247185,208436
1631118271078,47613,247221,208458
1631118271088,47615,247218,208446
1631118271098,47602,247244,208481
1631118271108,47615,247266,208500
1631118271118,47616,247284,208486
1631118271128,47614,247314,208503
1631118271138,47608,247278,208504
1631118271148,47621,247291,208540
1631118271158,47623,247350,208528
1631118271168,47619,247333,208544
1631118271178,47630,247357,208549
1631118271188,47631,247388,208549
1631118271198,47642,247448,208563
1631118271208,47652,247461,208630
1631118271218,47660,247470,208629
1631118271228,47674,247539,208677
1631118271238,47683,247545,208752
1631118271248,47695,247557,208790
1631118271258,47681,247629,208810
1631118271268,47680,247591,208812
1631118271278,47675,247603,208809
1631118271288,47670,247577,208832
1631118271298,47669,247592,208796
1631118271308,47661,247611,208822
1631118271318,47655,247602,208795
1631118271328,47647,247617,208824
1631118271338,47642,247595,208806
1631118271348,47636,247595,208843
1631118271358,47635,247631,208813
1631118271368,47634,247635,208836
1631118271378,47644,247606,208832
1631118271388,47625,247648,208851
1631118271398,47622,247615,208836
1631118271408,47616,247630,208829
1631118271418,47625,247640,208818
1631118271428,47613,247661,208850
1631118271438,47617,247667,208820
1631118271448,47616,247625,208833
1631118271458,47614,247631,208840
1631118271468,47616,247602,208816
1631118271478,47620,247679,208843
1631118271488,47619,247666,208859
1631118271498,47624,247636,208877
1631118271508,47628,247692,208882
1631118271518,47628,247706,208887
1631118271528,47627,247698,208874
1631118271538,47635,247689,208879
1631118271548,47626,247703,208881
1631118271558,47622,247667,208879
1631118271568,47630,247626,208895
1631118271578,47649,247659,208892
1631118271588,47638,247698,208859
1631118271598,47643,247684,208874
1631118271608,47642,247660,208898
1631118271618,47647,247691,208894
1631118271628,47647,247677,208904
1631118271638,47656,247703,208881
1631118271648,47658,247696,208906
1631118271658,47667,247717,208895
1631118271668,47663,247654,208875
1631118271678,47667,247679,208884
1631118271688,47668,247677,208888
1631118271698,47675,247700,208894
1631118271708,47678,247668,208902
1631118271718,47678,247692,208894
1631118271728,47668,247673,208889
1631118271738,47677,247712,208862
1631118271748,47682,247694,208865
1631118271758,47679,247688,208871
1631118271768,47677,247662,208880
1631118271778,47685,247669,208858
1631118271788,47687,247706,208880
1631118271798,47687,247718,208897
1631118271808,47693,247710,208922
1631118271818,47694,247708,208915
1631118271828,47688,247700,208914
1631118271838,47704,247708,208911
1631118271848,47697,247727,208902
1631118271858,47699,247744,208902
1631118271868,47695,247723,208898
1631118271878,47690,247718,208929
1631118271888,47694,247772,208905
1631118271898,47708,247766,208935
1631118271908,47714,247767,208951
1631118271918,47714,247759,208960
1631118271928,47723,247826,208968
1631118271938,47729,247839,208995
1631118271948,47737,247849,209030
1631118271958,47746,247902,209078
1631118271968,47766,247897,209089
1631118271978,47761,247928,209139
1631118271988,47764,247929,209128
1631118271998,47756,247890,209148
1631118272008,47752,247917,209144
1631118272018,47737,247897,209138
1631118272028,47735,247903,209113
1631118272038,47725,247877,209145
1631118272048,47726,247849,209137
1631118272058,47707,247904,209144
1631118272068,47696,247869,209129
1631118272078,47697,247880,209127
1631118272088,47697,247884,209123
1631118272098,47693,247890,209135
1631118272108,47690,247874,209151
1631118272118,47686,247921,209143
1631118272128,47693,247912,209144
1631118272138,47687,247895,209136
1631118272148,47676,247860,209136
1631118272158,47676,247852,209137
1631118272168,47680,247902,209149
1631118272178,47675,247849,209130
1631118272188,47687,247911,209123
1631118272198,47682,247905,209128
1631118272208,47682,247927,209128
1631118272218,47673,247875,209152
1631118272228,47676,247873,209137
1631118272238,47672,247854,209133
1631118272248,47683,247840,209154
1631118272258,47680,247885,209122
1631118272268,47665,247909,209136
1631118272278,47675,247855,209147
1631118272288,47678,247889,209164
1631118272298,47680,247866,209141
1631118272308,47680,247881,209156
1631118272318,47679,247882,209157
1631118272328,47682,247891,209161
1631118272338,47677,247890,209149
1631118272348,47679,247881,209130
1631118272358,47671,247910,209142
1631118272368,47679,247918,209136
1631118272378,47677,247889,209152
1631118272388,47676,247885,209147
1631118272398,47680,247894,209124
1631118272408,47679,247880,209125
1631118272418,47680,247848,209155
1631118272428,47681,247889,209143
1631118272438,47687,247899,209135
1631118272448,47684,247844,209135
1631118272458,47692,247879,209134
1631118272468,47689,247885,209144
1631118272478,47691,247857,209136
1631118272488,47700,247881,209128
1631118272498,47696,247846,209150
1631118272508,47719,247919,209141
1631118272518,47693,247888,209141
1631118272528,47723,247863,209143
1631118272538,47724,247903,209154
1631118272548,47719,247917,209150
1631118272558,47726,247885,209160
1631118272568,47730,247908,209159
1631118272578,47739,247927,209187
1631118272588,47737,247924,209178
1631118272598,47746,247944,209175
1631118272608,47755,247895,209175
1631118272618,47766,247917,209169
1631118272628,47776,247927,209162
1631118272638,47771,247892,209148
1631118272648,47775,247961,209161
1631118272658,47792,247930,209173
1631118272668,47799,247942,209186
1631118272678,47800,247919,209179
1631118272688,47790,247924,209179
1631118272698,47809,247927,209204
1631118272708,47818,248003,209226
1631118272718,47827,248009,209277
1631118272728,47836,248020,209286
1631118272738,47846,248052,209321
1631118272748,47858,248053,209364
1631118272758,47854,248077,209399
1631118272768,47858,248065,209378
1631118272778,47852,248062,209390
1631118272788,47844,248043,209412
1631118272798,47838,248004,209379
1631118272808,47829,247997,209384
1631118272818,47819,247971,209353
1631118272828,47820,247984,209353
1631118272838,47803,247945,209339
1631118272848,47805,247945,209372
1631118272858,47806,247940,209366
1631118272868,47792,247912,209348
1631118272878,47786,247883,209336
1631118272888,47785,247896,209346
1631118272898,47778,247882,209324
1631118272908,47778,247867,209317
1631118272918,47777,247855,209333
1631118272928,47766,247855,209318
1631118272938,47760,247870,209300
1631118272948,47772,247855,209305
1631118272958,47767,247814,209288
1631118272968,47754,247807,209296
1631118272978,47763,247791,209300
1631118272988,47757,247793,209316
1631118272998,47759,247767,209297
1631118273008,47771,247800,209309
1631118273018,47763,247789,209317
1631118273028,47756,247765,209315
1631118273038,47746,247730,209309
1631118273048,47740,247750,209290
1631118273058,47757,247759,209262
1631118273068,47751,247713,209253
1631118273078,47755,247728,209273
1631118273088,47738,247726,209235
1631118273098,47738,247721,209239
1631118273108,47739,247694,209239
1631118273118,47743,247694,209224
1631118273128,47737,247641,209225
1631118273138,47741,247695,209212
1631118273148,47729,247639,209217
1631118273158,47736,247634,209209
1631118273168,47732,247636,209237
1631118273178,47744,247650,209211
1631118273188,47736,247662,209213
1631118273198,47755,247652,209203
1631118273208,47753,247636,209225
1631118273218,47741,247610,209208
1631118273228,47747,247653,209166
1631118273238,47743,247600,209173
1631118273248,47749,247629,209173
1631118273258,47751,247628,209163
1631118273268,47752,247562,209154
1631118273278,47749,247609,209152
1631118273288,47742,247591,209157
1631118273298,47757,247594,209138
1631118273308,47755,247602,209148
1631118273318,47752,247565,209118
1631118273328,47763,247552,209134
1631118273338,47746,247556,209114
1631118273348,47757,247592,209132
1631118273358,47765,247542,209112
1631118273368,47744,247527,209123
1631118273378,47756,247558,209105
1631118273388,47750,247592,209106
1631118273398,47776,247581,209106
1631118273408,47757,247561,209100
1631118273418,47758,247571,209102
1631118273428,47762,247552,209109
1631118273438,47764,247555,209064
1631118273448,47765,247560,209050
1631118273458,47764,247588,209096
1631118273468,47759,247579,209064
1631118273478,47757,247607,209074
1631118273488,47782,247600,209096
1631118273498,47775,247659,209097
1631118273508,47782,247632,209124
1631118273518,47778,247645,209129
1631118273528,47777,247624,209171
1631118273538,47773,247611,209172
1631118273548,47765,247651,209176
1631118273558,47752,247572,209147
1631118273568,47728,247602,209152
1631118273578,47722,247624,209142
1631118273588,47711,247588,209125
1631118273598,47693,247532,209110
1631118273608,47675,247504,209105
1631118273618,47659,247485,209092
1631118273628,47656,247467,209059
1631118273638,47631,247474,209081
1631118273648,47614,247452,209051
1631118273658,47601,247453,209053
1631118273668,47582,247410,209060
1631118273678,47566,247405,209030
1631118273688,47549,247377,208990
1631118273698,47543,247345,209005
1631118273708,47521,247385,208987
1631118273718,47516,247384,208999
1631118273728,47495,247398,208975
1631118273738,47483,247368,208960
1631118273748,47477,247356,208990
1631118273758,47470,247405,208992
1631118273768,47444,247414,209003
1631118273778,47446,247452,209039
1631118273788,47434,247454,209071
1631118273798,47417,247521,209068
1631118273808,47400,247533,209067
1631118273818,47374,247571,209092
1631118273828,47391,247659,209152
1631118273838,47370,247673,209206
1631118273848,47373,247720,209234
1631118273858,47360,247792,209268
1631118273868,47349,247849,209310
1631118273878,47339,247927,209362
1631118273888,47332,247950,209377
1631118273898,47328,247952,209415
1631118273908,47325,248006,209417
1631118273918,47311,248062,209446
1631118273928,47302,248087,209446
1631118273938,47293,248104,209462
1631118273948,47285,248125,209443
1631118273958,47270,248144,209465
1631118273968,47255,248119,209431
1631118273978,47248,248140,209470
1631118273988,47249,248145,209464
1631118273998,47250,248197,209476
1631118274008,47251,248198,209504
1631118274018,47252,248206,209510
1631118274028,47228,248240,209515
1631118274038,47224,248281,209523
1631118274048,47215,248288,209516
1631118274058,47215,248332,209527
1631118274068,47213,248324,209530
1631118274078,47208,248313,209503
1631118274088,47208,248407,209506
1631118274098,47206,248360,209542
1631118274108,47206,248374,209557
1631118274118,47214,248414,209557
1631118274128,47219,248435,209596
1631118274138,47228,248459,209560
1631118274148,47215,248475,209567
1631118274158,47210,248492,209574
1631118274168,47203,248485,209562
1631118274178,47193,248476,209581
1631118274188,47196,248502,209574
1631118274198,47207,248530,209584
1631118274208,47208,248499,209589
1631118274218,47206,248534,209579
1631118274228,47207,248538,209572
1631118274238,47205,248553,209598
1631118274248,47202,248598,209577
1631118274258,47203,248586,209604
1631118274268,47208,248619,209595
1631118274278,47202,248639,209599
1631118274288,47206,248671,209615
1631118274298,47211,248710,209661
1631118274308,47203,248703,209666
1631118274318,47198,248694,209666
1631118274328,47206,248656,209683
1631118274338,47173,248719,209692
1631118274348,47173,248725,209712
1631118274358,47166,248710,209681
1631118274368,47149,248717,209693
1631118274378,47149,248688,209678
1631118274388,47150,248713,209708
1631118274398,47140,248700,209682
1631118274408,47144,248693,209701
1631118274418,47140,248663,209683
1631118274428,47140,248690,209691
1631118274438,47140,248680,209712
1631118274448,47131,248715,209727
1631118274458,47125,248697,209716
1631118274468,47135,248679,209695
1631118274478,47116,248723,209707
1631118274488,47120,248700,209696
1631118274498,47101,248643,209642
1631118274508,47108,248647,209648
1631118274518,47106,248652,209653
1631118274528,47113,248678,209668
1631118274538,47114,248668,209700
1631118274548,47125,248678,209695
1631118274558,47131,248693,209722
1631118274568,47133,248656,209716
1631118274578,47132,248620,209698
1631118274588,47128,248645,209719
1631118274598,47134,248647,209707
1631118274608,47116,248634,209673
1631118274618,47109,248652,209709
1631118274628,47113,248620,209668
1631118274638,47118,248636,209697
1631118274648,47126,248651,209706
1631118274658,47129,248640,209697
1631118274668,47130,248649,209707
1631118274678,47126,248657,209735
1631118274688,47118,248652,209732
1631118274698,47115,248643,209732
1631118274708,47108,248636,209678
1631118274718,47101,248586,209675
1631118274728,47105,248608,209645
1631118274738,47104,248620,209688
1631118274748,47105,248623,209673
1631118274758,47109,248623,209678
1631118274768,47101,248569,209650
1631118274778,47100,248608,209652
1631118274788,47097,248588,209656
1631118274798,47087,248587,209642
1631118274808,47104,248578,209666
1631118274818,47103,248612,209684
1631118274828,47092,248587,209660
1631118274838,47097,248596,209643
1631118274848,47097,248541,209656
1631118274858,47098,248539,209666
1631118274868,47103,248583,209659
1631118274878,47104,248563,209653
1631118274888,47108,248601,209645
1631118274898,47111,248562,209651
1631118274908,47109,248556,209634
1631118274918,47112,248567,209613
1631118274928,47103,248547,209617
1631118274938,47108,248516,209624
1631118274948,47120,248545,209583
1631118274958,47123,248528,209618
1631118274968,47124,248500,209599
1631118274978,47116,248537,209587
1631118274988,47131,248528,209598
1631118274998,47137,248516,209598
1631118275008,47148,248535,209611
1631118275018,47141,248504,209624
1631118275028,47136,248533,209584
1631118275038,47143,248525,209614
1631118275048,47150,248546,209631
1631118275058,47156,248541,209635
1631118275068,47160,248542,209632
1631118275078,47163,248514,209629
1631118275088,47158,248566,209663
1631118275098,47156,248498,209684
1631118275108,47151,248541,209671
1631118275118,47156,248491,209653
1631118275128,47149,248445,209637
1631118275138,47134,248443,209604
1631118275148,47153,248430,209602
1631118275158,47154,248388,209571
1631118275168,47170,248375,209577
1631118275178,47182,248395,209576
1631118275188,47194,248388,209570
1631118275198,47209,248342,209539
1631118275208,47220,248292,209564
1631118275218,47236,248300,209524
1631118275228,47246,248263,209504
1631118275238,47237,248187,209446
1631118275248,47248,248185,209407
1631118275258,47259,248144,209374
1631118275268,47263,248151,209366
1631118275278,47283,248091,209347
1631118275288,47289,248108,209320
1631118275298,47298,248066,209318
1631118275308,47319,248038,209339
1631118275318,47333,248076,209309
1631118275328,47342,248039,209280
1631118275338,47344,248012,209253
1631118275348,47338,247970,209198
1631118275358,47355,247952,209171
1631118275368,47361,247946,209162
1631118275378,47355,247902,209123
1631118275388,47354,247926,209084
1631118275398,47350,247862,209069
1631118275408,47358,247844,209045
1631118275418,47362,247802,209032
1631118275428,47367,247824,209035
1631118275438,47359,247774,209006
1631118275448,47370,247749,208994
1631118275458,47380,247746,208987
1631118275468,47379,247755,209006
1631118275478,47384,247714,209028
1631118275488,47393,247733,209012
1631118275498,47389,247700,209038
1631118275508,47406,247745,208995
1631118275518,47406,247684,209005
1631118275528,47417,247740,209002
1631118275538,47406,247685,209005
1631118275548,47415,247698,209024
1631118275558,47415,247678,208967
1631118275568,47421,247624,208969
1631118275578,47419,247637,208992
1631118275588,47433,247661,208982
1631118275598,47437,247662,209007
1631118275608,47437,247661,208985
1631118275618,47454,247656,208957
1631118275628,47453,247610,208928
1631118275638,47452,247611,208913
1631118275648,47463,247598,208929
1631118275658,47466,247586,208895
1631118275668,47460,247555,208890
1631118275678,47464,247547,208864
1631118275688,47472,247519,208819
1631118275698,47472,247513,208810
1631118275708,47479,247458,208816
1631118275718,47483,247509,208798
1631118275728,47486,247461,208800
1631118275738,47500,247489,208809
1631118275748,47498,247465,208813
1631118275758,47514,247456,208784
1631118275768,47523,247469,208789
1631118275778,47535,247478,208806
1631118275788,47559,247450,208834
1631118275798,47561,247471,208833
1631118275808,47581,247417,208844
1631118275818,47588,247451,208849
1631118275828,47595,247463,208854
1631118275838,47592,247452,208844
1631118275848,47584,247397,208806
1631118275858,47580,247386,208827
1631118275868,47569,247337,208779
1631118275878,47545,247288,208754
1631118275888,47534,247249,208690
1631118275898,47510,247219,208697
1631118275908,47503,247181,208621
1631118275918,47493,247173,208608
1631118275928,47493,247115,208573
1631118275938,47483,247106,208578
1631118275948,47494,247085,208558
1631118275958,47503,247046,208574
1631118275968,47498,247021,208560
1631118275978,47502,247059,208541
1631118275988,47500,247051,208522
1631118275998,47514,247056,208517
1631118276008,47528,247050,208529
1631118276018,47527,247054,208527
1631118276028,47541,247094,208506
1631118276038,47539,247065,208519
1631118276048,47550,247118,208515
1631118276058,47565,247115,208540
1631118276068,47574,247099,208521
1631118276078,47580,247107,208534
1631118276088,47576,247138,208527
1631118276098,47579,247133,208570
1631118276108,47591,247143,208564
1631118276118,47591,247141,208545
1631118276128,47590,247108,208536
1631118276138,47578,247065,208519
1631118276148,47567,247072,208484
1631118276158,47568,247055,208451
1631118276168,47567,247024,208440
1631118276178,47559,247006,208435
1631118276188,47557,247012,208410
1631118276198,47550,246998,208367
1631118276208,47543,246998,208404
1631118276218,47541,246973,208358
1631118276228,47543,246894,208371
1631118276238,47550,246916,208350
1631118276248,47545,246906,208313
1631118276258,47547,246929,208317
1631118276268,47555,246891,208308
1631118276278,47549,246873,208271
1631118276288,47528,246813,208271
1631118276298,47528,246764,208228
1631118276308,47523,246795,208228
1631118276318,47536,246785,208228
1631118276328,47551,246784,208228
1631118276338,47549,246750,208237
1631118276348,47564,246764,208235
1631118276358,47568,246768,208271
1631118276368,47574,246753,208258
1631118276378,47579,246757,208262
1631118276388,47585,246727,208270
1631118276398,47598,246710,208285
1631118276408,47606,246730,208285
1631118276418,47619,246750,208295
1631118276428,47626,246749,208314
1631118276438,47638,246763,208360
1631118276448,47645,246767,208344
1631118276458,47651,246742,208326
1631118276468,47653,246721,208312
1631118276478,47663,246713,208323
1631118276488,47672,246731,208331
1631118276498,47685,246702,208344
1631118276508,47693,246694,208335
1631118276518,47697,246657,208326
1631118276528,47709,246689,208356
1631118276538,47727,246705,208387
1631118276548,47739,246717,208402
1631118276558,47753,246737,208433
1631118276568,47750,246736,208447
1631118276578,47768,246740,208489
1631118276588,47767,246694,208505
1631118276598,47756,246720,208484
1631118276608,47755,246707,208484
1631118276618,47751,246660,208469
1631118276628,47732,246640,208460
1631118276638,47718,246586,208458
1631118276648,47703,246566,208434
1631118276658,47697,246577,208405
1631118276668,47684,246559,208406
1631118276678,47683,246546,208399
1631118276688,47660,246502,208378
1631118276698,47655,246496,208375
1631118276708,47636,246458,208340
1631118276718,47620,246432,208314
1631118276728,47627,246431,208287
1631118276738,47580,246418,208249
1631118276748,47573,246352,208207
1631118276758,47563,246306,208211
1631118276768,47558,246296,208199
1631118276778,47536,246284,208185
1631118276788,47519,246256,208188
1631118276798,47513,246265,208134
1631118276808,47507,246218,208126
1631118276818,47503,246255,208116
1631118276828,47501,246236,208114
1631118276838,47497,246230,208119
1631118276848,47505,246260,208118
1631118276858,47507,246227,208117
1631118276868,47509,246242,208103
1631118276878,47517,246252,208127
1631118276888,47519,246258,208056
1631118276898,47526,246248,208069
1631118276908,47516,246263,208052
1631118276918,47527,246244,208035
1631118276928,47526,246176,208006
1631118276938,47528,246224,207984
1631118276948,47515,246171,207957
1631118276958,47518,246202,207938
1631118276968,47518,246200,207949
1631118276978,47505,246173,207899
1631118276988,47509,246165,207887
1631118276998,47519,246154,207874
1631118277008,47503,246145,207848
1631118277018,47502,246122,207866
1631118277028,47506,246146,207853
1631118277038,47507,246106,207887
1631118277048,47505,246116,207843
1631118277058,47522,246117,207816
1631118277068,47496,246127,207826
1631118277078,47515,246117,207814
1631118277088,47507,246100,207808
1631118277098,47519,246094,207803
1631118277108,47506,246096,207814
1631118277118,47513,246077,207794
1631118277128,47520,246068,207770
1631118277138,47516,246087,207798
1631118277148,47526,246086,207751
1631118277158,47525,246085,207754
1631118277168,47520,246047,207764
1631118277178,47524,246061,207774
1631118277188,47501,246059,207742
1631118277198,47496,246085,207746
1631118277208,47488,246043,207760
1631118277218,47493,246054,207766
1631118277228,47468,246065,207758
1631118277238,47467,246040,207793
1631118277248,47453,246055,207808
1631118277258,47442,246050,207801
1631118277268,47438,246080,207820
1631118277278,47434,246100,207824
1631118277288,47434,246088,207835
1631118277298,47447,246084,207860
1631118277308,47454,246130,207894
1631118277318,47469,246182,207928
1631118277328,47471,246213,207962
1631118277338,47475,246229,208013
1631118277348,47491,246260,208005
1631118277358,47493,246261,208027
1631118277368,47489,246231,208065
1631118277378,47472,246254,208045
1631118277388,47473,246219,208008
1631118277398,47457,246212,208036
1631118277408,47472,246195,207993
1631118277418,47459,246239,208019
1631118277428,47442,246222,208026
1631118277438,47434,246231,208010
1631118277448,47426,246207,207993
1631118277458,47430,246201,208006
1631118277468,47416,246218,208000
1631118277478,47416,246247,208007
1631118277488,47411,246238,208003
1631118277498,47406,246213,208025
1631118277508,47405,246220,208023
1631118277518,47382,246267,208041
1631118277528,47386,246227,208026
1631118277538,47398,246273,208028
1631118277548,47368,246249,208038
1631118277558,47377,246246,208031
1631118277568,47372,246281,208040
1631118277578,47380,246299,208046
1631118277588,47384,246274,208067
1631118277598,47380,246321,208047
1631118277608,47381,246330,208062
1631118277618,47385,246283,208082
1631118277628,47386,246271,208047
1631118277638,47386,246284,208051
1631118277648,47395,246259,208097
1631118277658,47391,246256,208049
1631118277668,47393,246246,208023
1631118277678,47391,246235,208040
1631118277688,47387,246259,208028
1631118277698,47391,246161,208003
1631118277708,47390,246205,207993
1631118277718,47389,246212,208010
1631118277728,47369,246155,207998
1631118277738,47379,246174,208009
1631118277748,47375,246148,207978
1631118277758,47363,246112,207988
1631118277768,47364,246099,207953
1631118277778,47355,246126,207980
1631118277788,47361,246080,207967
1631118277798,47358,246089,207942
1631118277808,47358,246077,207956
1631118277818,47352,246070,207950
1631118277828,47354,246076,207957
1631118277838,47358,246061,207942
1631118277848,47351,246047,207921
1631118277858,47356,246015,207938
1631118277868,47354,246042,207926
1631118277878,47352,246011,207948
1631118277888,47360,246009,207932
1631118277898,47362,245984,207924
1631118277908,47349,246009,207897
1631118277918,47344,245994,207919
1631118277928,47342,245972,207900
1631118277938,47330,245966,207908
1631118277948,47333,245980,207897
1631118277958,47342,245977,207865
1631118277968,47337,245937,207904
1631118277978,47343,245930,207877
1631118277988,47344,245938,207903
1631118277998,47345,245933,207861
1631118278008,47340,245939,207894
1631118278018,47337,245965,207904
1631118278028,47347,245953,207925
1631118278038,47349,245967,207938
1631118278048,47371,245941,207963
1631118278058,47381,245959,208003
1631118278068,47391,246021,208016
1631118278078,47395,245993,208035
1631118278088,47399,246017,208056
1631118278098,47398,246025,208044
1631118278108,47389,245991,208074
1631118278118,47387,246006,208070
1631118278128,47378,245985,208058
1631118278138,47377,246007,208047
1631118278148,47367,246007,208062
1631118278158,47354,245994,208039
1631118278168,47354,245944,208063
1631118278178,47343,245965,208055
1631118278188,47327,245970,208053
1631118278198,47335,245962,208085
1631118278208,47338,245980,208093
1631118278218,47329,245947,208093
1631118278228,47324,245979,208092
1631118278238,47325,245998,208102
1631118278248,47303,245977,208100
1631118278258,47312,245959,208129
1631118278268,47305,245990,208099
1631118278278,47304,246000,208098
1631118278288,47310,245990,208097
1631118278298,47304,245951,208122
1631118278308,47304,245959,208105
1631118278318,47302,245995,208091
1631118278328,47305,245991,208151
1631118278338,47314,245996,208128
1631118278348,47304,245998,208147
1631118278358,47316,245986,208136
1631118278368,47320,246009,208137
1631118278378,47322,246023,208153
1631118278388,47322,246029,208161
1631118278398,47316,246000,208153
1631118278408,47323,246010,208155
1631118278418,47323,245985,208165
1631118278428,47318,246001,208163
1631118278438,47322,246037,208147
1631118278448,47322,246006,208148
1631118278458,47325,246034,208172
1631118278468,47323,246010,208176
1631118278478,47318,246005,208155
1631118278488,47325,246039,208137
1631118278498,47323,246020,208163
1631118278508,47316,246048,208169
1631118278518,47329,246017,208144
1631118278528,47341,245968,208160
1631118278538,47320,246017,208183
1631118278548,47335,246012,208165
1631118278558,47331,246021,208177
1631118278568,47334,246004,208166
1631118278578,47328,246021,208170
1631118278588,47339,245980,208130
1631118278598,47339,246032,208150
1631118278608,47338,245963,208160
1631118278618,47342,245998,208161
1631118278628,47348,246017,208149
1631118278638,47348,245993,208156
1631118278648,47349,246008,208158
1631118278658,47348,246016,208182
1631118278668,47350,246051,208179
1631118278678,47341,246039,208166
1631118278688,47347,246041,208170
1631118278698,47355,246068,208156
1631118278708,47353,246010,208152
1631118278718,47346,246012,208172
1631118278728,47358,246055,208179
1631118278738,47357,246053,208154
1631118278748,47368,246044,208167
1631118278758,47356,246042,208135
1631118278768,47368,246056,208172
1631118278778,47374,246085,208169
1631118278788,47373,246070,208152
1631118278798,47381,246106,208168
1631118278808,47389,246101,208189
1631118278818,47393,246116,208227
1631118278828,47399,246147,208255
1631118278838,47407,246143,208296
1631118278848,47424,246197,208324
1631118278858,47414,246199,208351
1631118278868,47435,246225,208353
1631118278878,47429,246219,208358
1631118278888,47427,246204,208360
1631118278898,47408,246208,208371
1631118278908,47415,246194,208368
1631118278918,47408,246181,208375
1631118278928,47397,246193,208369
1631118278938,47402,246164,208371
1631118278948,47396,246172,208362
1631118278958,47381,246191,208363
1631118278968,47381,246165,208364
1631118278978,47360,246219,208371
1631118278988,47364,246183,208377
1631118278998,47368,246180,208356
1631118279008,47350,246159,208365
1631118279018,47349,246133,208372
1631118279028,47349,246178,208365
1631118279038,47346,246172,208342
1631118279048,47343,246154,208343
1631118279058,47337,246187,208341
1631118279068,47332,246159,208362
1631118279078,47324,246171,208360
1631118279088,47330,246186,208353
1631118279098,47329,246177,208340
1631118279108,47329,246196,208335
1631118279118,47328,246169,208346
1631118279128,47325,246176,208353
1631118279138,47323,246165,208351
1631118279148,47312,246130,208342
1631118279158,47318,246166,208345
1631118279168,47308,246152,208332
1631118279178,47298,246169,208318
1631118279188,47308,246134,208327
1631118279198,47294,246154,208348
1631118279208,47281,246198,208340
1631118279218,47279,246156,208364
1631118279228,47285,246160,208330
1631118279238,47280,246150,208372
1631118279248,47269,246159,208322
1631118279258,47272,246191,208335
1631118279268,47265,246205,208353
1631118279278,47270,246184,208358
1631118279288,47262,246177,208329
1631118279298,47261,246249,208325
1631118279308,47261,246208,208337
1631118279318,47261,246198,208349
1631118279328,47270,246270,208364
1631118279338,47262,246267,208389
1631118279348,47271,246276,208407
1631118279358,47277,246291,208410
1631118279368,47289,246273,208391
1631118279378,47282,246313,208419
1631118279388,47280,246308,208436
1631118279398,47275,246320,208440
1631118279408,47280,246333,208448
1631118279418,47284,246346,208450
1631118279428,47280,246368,208454
1631118279438,47292,246413,208464
1631118279448,47289,246407,208453
1631118279458,47297,246370,208492
1631118279468,47292,246429,208481
1631118279478,47293,246407,208506
1631118279488,47297,246414,208499
1631118279498,47296,246434,208510
1631118279508,47305,246451,208526
1631118279518,47315,246471,208508
1631118279528,47312,246502,208544
1631118279538,47316,246484,208526
1631118279548,47314,246464,208541
1631118279558,47327,246540,208597
1631118279568,47331,246517,208572
1631118279578,47342,246560,208590
1631118279588,47357,246557,208621
1631118279598,47374,246629,208647
1631118279608,47381,246636,208679
1631118279618,47390,246639,208694
1631118279628,47394,246662,208748
1631118279638,47392,246703,208775
1631118279648,47388,246687,208745
1631118279658,47380,246665,208754
1631118279668,47379,246654,208749
1631118279678,47385,246670,208789
1631118279688,47361,246665,208759
1631118279698,47360,246691,208790
1631118279708,47365,246663,208790
1631118279718,47355,246726,208770
1631118279728,47348,246640,208772
1631118279738,47350,246679,208781
1631118279748,47341,246661,208776
1631118279758,47338,246666,208767
1631118279768,47328,246643,208770
1631118279778,47333,246689,208786
1631118279788,47313,246657,208754
1631118279798,47310,246673,208777
1631118279808,47310,246657,208765
1631118279818,47304,246650,208748
1631118279828,47303,246615,208753
1631118279838,47291,246653,208749
1631118279848,47293,246650,208712
1631118279858,47293,246639,208743
1631118279868,47286,246632,208770
1631118279878,47284,246620,208754
1631118279888,47281,246626,208768
1631118279898,47292,246611,208746
1631118279908,47286,246656,208768
1631118279918,47283,246650,208766
1631118279928,47286,246625,208760
1631118279938,47288,246626,208756
1631118279948,47287,246641,208753
1631118279958,47284,246662,208764
1631118279968,47287,246644,208769
1631118279978,47283,246626,208764
1631118279988,47273,246655,208780
1631118279998,47280,246646,208743
1631118280008,47301,246636,208763
1631118280018,47277,246648,208738
1631118280028,47287,246671,208738
1631118280038,47291,246625,208755
1631118280048,47293,246627,208780
1631118280058,47286,246673,208766
1631118280068,47290,246666,208749
1631118280078,47300,246637,208754
1631118280088,47289,246659,208756
1631118280098,47293,246666,208738
1631118280108,47298,246687,208748
1631118280118,47294,246647,208753
1631118280128,47299,246648,208780
1631118280138,47310,246695,208772
1631118280148,47306,246646,208756
1631118280158,47302,246669,208757
1631118280168,47301,246693,208750
1631118280178,47312,246660,208740
1631118280188,47314,246664,208748
1631118280198,47319,246651,208752
1631118280208,47314,246688,208755
1631118280218,47320,246674,208733
1631118280228,47317,246699,208757
1631118280238,47319,246678,208750
1631118280248,47318,246704,208744
1631118280258,47330,246702,208747
1631118280268,47325,246716,208760
1631118280278,47328,246730,208772
1631118280288,47329,246688,208763
1631118280298,47341,246726,208762
1631118280308,47327,246707,208760
1631118280318,47329,246732,208723
1631118280328,47337,246702,208772
1631118280338,47325,246694,208746
1631118280348,47343,246736,208755
1631118280358,47347,246721,208745
1631118280368,47348,246722,208767
1631118280378,47351,246792,208737
1631118280388,47366,246776,208776
1631118280398,47366,246825,208791
1631118280408,47378,246808,208809
1631118280418,47391,246849,208852
1631118280428,47400,246863,208860
1631118280438,47412,246861,208888
1631118280448,47408,246855,208882
1631118280458,47402,246877,208919
1631118280468,47384,246877,208912
1631118280478,47396,246882,208914
1631118280488,47374,246872,208895
1631118280498,47368,246816,208906
1631118280508,47378,246829,208896
1631118280518,47355,246865,208886
1631118280528,47355,246845,208904
1631118280538,47351,246837,208916
1631118280548,47340,246841,208891
1631118280558,47346,246865,208910
1631118280568,47328,246833,208888
1631118280578,47326,246817,208886
1631118280588,47331,246849,208877
1631118280598,47319,246816,208901
1631118280608,47323,246811,208893
1631118280618,47309,246821,208880
1631118280628,47302,246801,208854
1631118280638,47296,246801,208853
1631118280648,47294,246821,208850
1631118280658,47291,246802,208860
1631118280668,47279,246801,208845
1631118280678,47281,246807,208821
1631118280688,47274,246785,208852
1631118280698,47274,246830,208844
1631118280708,47273,246832,208836
1631118280718,47268,246759,208850
1631118280728,47266,246779,208832
1631118280738,47264,246780,208824
1631118280748,47257,246809,208853
1631118280758,47252,246822,208820
1631118280768,47247,246819,208838
1631118280778,47242,246832,208815
1631118280788,47241,246818,208813
1631118280798,47246,246797,208816
1631118280808,47240,246860,208832
1631118280818,47237,246840,208808
1631118280828,47254,246838,208818
1631118280838,47247,246845,208827
1631118280848,47240,246834,208818
1631118280858,47241,246814,208824
1631118280868,47237,246831,208840
1631118280878,47237,246836,208826
1631118280888,47237,246855,208819
1631118280898,47236,246844,208801
1631118280908,47245,246852,208803
1631118280918,47237,246841,208810
1631118280928,47237,246867,208816
1631118280938,47234,246856,208844
1631118280948,47252,246841,208817
1631118280958,47249,246862,208818
1631118280968,47241,246872,208810
1631118280978,47250,246841,208822
1631118280988,47244,246878,208835
1631118280998,47247,246816,208807
1631118281008,47264,246872,208822
1631118281018,47248,246910,208828
1631118281028,47247,246886,208842
1631118281038,47253,246874,208846
1631118281048,47263,246917,208820
1631118281058,47259,246937,208838
1631118281068,47249,246965,208857
1631118281078,47253,246922,208857
1631118281088,47254,246925,208820
1631118281098,47253,246921,208844
1631118281108,47260,246918,208842
1631118281118,47278,246936,208825
1631118281128,47271,246953,208833
1631118281138,47267,246995,208831
1631118281148,47272,246944,208847
1631118281158,47281,246997,208845
1631118281168,47271,247002,208830
1631118281178,47280,246987,208860
1631118281188,47275,247039,208866
1631118281198,47287,247011,208864
1631118281208,47281,247005,208859
1631118281218,47282,247043,208855
1631118281228,47282,247091,208853
1631118281238,47291,247045,208863
1631118281248,47290,247091,208881
1631118281258,47302,247101,208924
1631118281268,47315,247120,208937
1631118281278,47322,247138,208968
1631118281288,47317,247197,208972
1631118281298,47336,247185,209007
1631118281308,47351,247215,208977
1631118281318,47339,247182,208992
1631118281328,47333,247178,209016
1631118281338,47335,247211,208991
1631118281348,47330,247199,208962
1631118281358,47317,247197,208980
1631118281368,47314,247163,208988
1631118281378,47306,247192,208976
1631118281388,47303,247189,208956
1631118281398,47287,247237,208988
1631118281408,47294,247188,208967
1631118281418,47290,247180,208961
1631118281428,47282,247201,208963
1631118281438,47274,247183,208972
1631118281448,47276,247164,208963
1631118281458,47270,247167,208966
1631118281468,47268,247217,208980
1631118281478,47264,247183,208951
1631118281488,47255,247184,208948
1631118281498,47258,247173,208942
1631118281508,47259,247186,208942
1631118281518,47254,247180,208923
1631118281528,47267,247208,208942
1631118281538,47261,247234,208956
1631118281548,47261,247210,208950
1631118281558,47253,247216,208950
1631118281568,47256,247187,208950
1631118281578,47258,247231,208939
1631118281588,47263,247231,208953
1631118281598,47265,247196,208940
1631118281608,47268,247243,208942
1631118281618,47266,247221,208941
1631118281628,47271,247239,208956
1631118281638,47275,247242,208922
1631118281648,47267,247229,208947
1631118281658,47263,247229,208939
1631118281668,47269,247271,208921
1631118281678,47264,247280,208920
1631118281688,47270,247267,208929
1631118281698,47269,247270,208948
1631118281708,47273,247257,208935
1631118281718,47260,247246,208948
1631118281728,47272,247257,208943
1631118281738,47275,247261,208941
1631118281748,47272,247274,208919
1631118281758,47270,247294,208908
1631118281768,47278,247265,208934
1631118281778,47286,247267,208969
1631118281788,47303,247264,208961
1631118281798,47281,247284,208964
1631118281808,47298,247274,208931
1631118281818,47296,247289,208953
1631118281828,47291,247301,208953
1631118281838,47298,247283,208953
1631118281848,47304,247264,208949
1631118281858,47306,247274,208954
1631118281868,47312,247295,208959
1631118281878,47316,247335,208941
1631118281888,47311,247311,208963
1631118281898,47311,247303,208959
1631118281908,47324,247290,208955
1631118281918,47321,247315,208954
1631118281928,47315,247305,208937
1631118281938,47329,247312,208944
1631118281948,47334,247279,208953
1631118281958,47328,247317,208964
1631118281968,47324,247327,208944
1631118281978,47332,247357,208946
1631118281988,47337,247329,208932
1631118281998,47337,247331,208944
1631118282008,47340,247337,208951
1631118282018,47346,247346,208952
1631118282028,47339,247344,208921
1631118282038,47336,247364,208926
1631118282048,47342,247329,208945
1631118282058,47349,247340,208937
1631118282068,47359,247376,208963
1631118282078,47360,247380,208951
1631118282088,47376,247365,208970
1631118282098,47361,247373,208936
1631118282108,47370,247424,208975
1631118282118,47384,247372,208964
1631118282128,47395,247476,209010
1631118282138,47401,247419,209041
1631118282148,47411,247482,209048
1631118282158,47414,247495,209078
1631118282168,47423,247500,209072
1631118282178,47417,247462,209056
1631118282188,47417,247441,209089
1631118282198,47418,247473,209047
1631118282208,47406,247452,209063
1631118282218,47401,247476,209049
1631118282228,47391,247459,209069
1631118282238,47394,247458,209041
1631118282248,47386,247431,209054
1631118282258,47392,247463,209031
1631118282268,47401,247422,209054
1631118282278,47401,247402,209060
1631118282288,47382,247459,209033
1631118282298,47381,247445,209037
1631118282308,47378,247421,209047
1631118282318,47374,247432,209019
1631118282328,47379,247427,209007
1631118282338,47375,247420,209007
1631118282348,47375,247402,209011
1631118282358,47371,247419,209025
1631118282368,47373,247452,209011
1631118282378,47366,247425,209004
1631118282388,47373,247411,209026
1631118282398,47374,247445,209033
1631118282408,47380,247427,209030
1631118282418,47385,247430,209017
1631118282428,47379,247427,209024
1631118282438,47379,247439,209015
1631118282448,47370,247404,209021
1631118282458,47370,247414,209043
1631118282468,47366,247417,208989
1631118282478,47370,247397,209015
1631118282488,47370,247398,208996
1631118282498,47373,247432,209008
1631118282508,47367,247440,209019
1631118282518,47376,247420,209007
1631118282528,47374,247402,208976
1631118282538,47374,247418,209000
1631118282548,47371,247457,209008
1631118282558,47369,247435,208998
1631118282568,47383,247449,209008
1631118282578,47382,247423,208990
1631118282588,47379,247393,209019
1631118282598,47376,247422,208992
1631118282608,47373,247421,209009
1631118282618,47381,247466,209027
1631118282628,47389,247407,209010
1631118282638,47384,247452,209002
1631118282648,47383,247443,209003
1631118282658,47390,247439,208998
1631118282668,47385,247419,209044
1631118282678,47389,247459,209001
1631118282688,47399,247422,209014
1631118282698,47391,247433,209010
1631118282708,47390,247399,209025
1631118282718,47388,247444,209013
1631118282728,47404,247399,209029
1631118282738,47394,247433,209025
1631118282748,47397,247478,209033
1631118282758,47399,247415,209026
1631118282768,47394,247440,209002
1631118282778,47395,247442,209015
1631118282788,47399,247449,209033
1631118282798,47395,247419,209040
1631118282808,47393,247444,209030
1631118282818,47397,247442,209028
1631118282828,47394,247418,209015
1631118282838,47389,247448,209001
1631118282848,47398,247432,209037
1631118282858,47398,247440,209003
1631118282868,47406,247439,209014
1631118282878,47406,247420,209016
1631118282888,47414,247491,209017
1631118282898,47412,247467,209033
1631118282908,47409,247438,209002
1631118282918,47422,247440,209035
1631118282928,47418,247450,209022
1631118282938,47424,247461,208989
1631118282948,47428,247486,209018
1631118282958,47433,247522,209032
1631118282968,47440,247494,209082
1631118282978,47460,247504,209095
1631118282988,47463,247590,209117
1631118282998,47479,247567,209151
1631118283008,47478,247548,209131
1631118283018,47478,247564,209146
1631118283028,47470,247591,209161
1631118283038,47466,247561,209154
1631118283048,47461,247519,209146
1631118283058,47466,247548,209119
1631118283068,47455,247560,209147
1631118283078,47448,247544,209118
1631118283088,47459,247526,209105
1631118283098,47445,247501,209138
1631118283108,47430,247483,209146
1631118283118,47423,247509,209108
1631118283128,47412,247508,209107
1631118283138,47410,247456,209084
1631118283148,47407,247484,209095
1631118283158,47404,247500,209093
1631118283168,47394,247492,209100
1631118283178,47394,247493,209086
1631118283188,47386,247437,209068
1631118283198,47391,247453,209051
1631118283208,47382,247456,209092
1631118283218,47397,247471,209056
1631118283228,47395,247484,209083
1631118283238,47376,247427,209093
1631118283248,47387,247452,209093
1631118283258,47378,247461,209081
1631118283268,47381,247453,209074
1631118283278,47384,247462,209065
1631118283288,47385,247470,209080
1631118283298,47379,247452,209075
1631118283308,47374,247436,209067
1631118283318,47382,247424,209046
1631118283328,47381,247448,209045
1631118283338,47378,247467,209075
1631118283348,47379,247440,209052
1631118283358,47369,247455,209028
1631118283368,47375,247428,209049
1631118283378,47368,247425,209028
1631118283388,47365,247417,209040
1631118283398,47355,247430,209027
1631118283408,47377,247376,209053
1631118283418,47373,247429,209013
1631118283428,47364,247387,209031
1631118283438,47372,247382,209003
1631118283448,47363,247402,209008
1631118283458,47357,247390,209003
1631118283468,47367,247393,209015
1631118283478,47366,247383,209023
1631118283488,47359,247384,209002
1631118283498,47369,247400,209022
1631118283508,47370,247412,209008
1631118283518,47371,247380,209005
1631118283528,47364,247404,208997
1631118283538,47367,247412,209015
1631118283548,47379,247402,209007
1631118283558,47360,247380,208993
1631118283568,47375,247375,208989
1631118283578,47370,247396,208973
1631118283588,47364,247419,208974
1631118283598,47369,247398,208985
1631118283608,47374,247397,208976
1631118283618,47363,247397,208996
1631118283628,47372,247378,209001
1631118283638,47370,247398,208977
1631118283648,47378,247379,208988
1631118283658,47379,247393,208969
1631118283668,47376,247375,208980
1631118283678,47374,247416,208974
1631118283688,47379,247400,208994
1631118283698,47380,247409,208965
1631118283708,47389,247404,208979
1631118283718,47387,247395,208979
1631118283728,47393,247410,208956
1631118283738,47403,247400,208967
1631118283748,47391,247411,208967
1631118283758,47401,247353,208970
1631118283768,47396,247408,208961
1631118283778,47402,247385,208951
1631118283788,47402,247434,208960
1631118283798,47404,247435,208945
1631118283808,47406,247429,208978
1631118283818,47412,247426,208975
1631118283828,47424,247459,209019
1631118283838,47433,247478,209034
1631118283848,47447,247471,209034
1631118283858,47454,247516,209093
1631118283868,47461,247545,209092
1631118283878,47459,247518,209069
1631118283888,47448,247513,209072
1631118283898,47449,247522,209073
1631118283908,47452,247517,209078
1631118283918,47440,247478,209069
1631118283928,47427,247492,209083
1631118283938,47417,247460,209068
1631118283948,47416,247468,209078
1631118283958,47413,247443,209078
1631118283968,47407,247476,209068
1631118283978,47390,247430,209057
1631118283988,47391,247442,209076
1631118283998,47386,247410,209031
1631118284008,47383,247404,209062
1631118284018,47371,247437,209067
1631118284028,47386,247427,209047
1631118284038,47377,247385,209040
1631118284048,47370,247389,209038
1631118284058,47358,247341,209041
1631118284068,47354,247365,209019
1631118284078,47347,247358,209038
1631118284088,47344,247336,209031
1631118284098,47337,247376,209015
1631118284108,47330,247340,209025
1631118284118,47330,247338,209002
1631118284128,47331,247323,209022
1631118284138,47336,247403,209003
1631118284148,47327,247339,209021
1631118284158,47326,247316,209033
1631118284168,47327,247313,209034
1631118284178,47323,247319,209002
1631118284188,47324,247305,209008
1631118284198,47313,247349,209035
1631118284208,47321,247291,208997
1631118284218,47311,247305,208998
1631118284228,47306,247305,208984
1631118284238,47306,247271,208971
1631118284248,47319,247306,208986
1631118284258,47306,247312,208970
1631118284268,47301,247286,208960
1631118284278,47307,247278,208980
1631118284288,47306,247308,208988
1631118284298,47312,247279,208979
1631118284308,47305,247288,208939
1631118284318,47309,247333,208947
1631118284328,47304,247278,208992
1631118284338,47298,247301,208975
1631118284348,47311,247315,208946
1631118284358,47311,247309,208945
1631118284368,47303,247256,208952
1631118284378,47310,247344,208949
1631118284388,47317,247278,208953
1631118284398,47319,247278,208970
1631118284408,47313,247275,208944
1631118284418,47313,247299,208953
1631118284428,47312,247268,208959
1631118284438,47307,247321,208931
1631118284448,47307,247291,208935
1631118284458,47313,247284,208916
1631118284468,47309,247303,208925
1631118284478,47316,247307,208926
1631118284488,47304,247299,208932
1631118284498,47305,247302,208921
1631118284508,47306,247306,208927
1631118284518,47298,247314,208910
1631118284528,47319,247299,208915
1631118284538,47312,247296,208933
1631118284548,47303,247291,208943
1631118284558,47320,247277,208922
1631118284568,47319,247263,208934
1631118284578,47315,247266,208930
1631118284588,47315,247331,208917
1631118284598,47321,247298,208909
1631118284608,47323,247312,208913
1631118284618,47319,247294,208934
1631118284628,47324,247299,208894
1631118284638,47325,247300,208924
1631118284648,47327,247269,208923
1631118284658,47330,247301,208916
1631118284668,47330,247299,208924
1631118284678,47347,247328,208908
1631118284688,47339,247291,208912
1631118284698,47343,247308,208911
1631118284708,47348,247356,208938
1631118284718,47362,247359,208965
1631118284728,47367,247382,208963
1631118284738,47374,247392,209001
1631118284748,47376,247443,209030
1631118284758,47382,247439,209031
1631118284768,47392,247405,209031
1631118284778,47392,247439,209065
1631118284788,47378,247400,209039
1631118284798,47371,247398,209041
1631118284808,47369,247415,209039
1631118284818,47352,247391,209028
1631118284828,47352,247371,209013
1631118284838,47341,247426,209043
1631118284848,47327,247390,209038
1631118284858,47332,247372,209017
1631118284868,47321,247354,209014
1631118284878,47302,247364,208990
1631118284888,47312,247340,209000
1631118284898,47303,247348,209016
1631118284908,47306,247353,209004
1631118284918,47299,247310,208977
1631118284928,47293,247334,208986
1631118284938,47295,247317,208973
1631118284948,47292,247316,208990
1631118284958,47284,247320,208992
1631118284968,47287,247317,208994
1631118284978,47286,247346,208987
1631118284988,47278,247315,208954
1631118284998,47277,247309,208994
1631118285008,47284,247312,208961
1631118285018,47274,247317,208977
1631118285028,47275,247300,208942
1631118285038,47264,247309,208970
1631118285048,47275,247335,208955
1631118285058,47269,247308,208941
1631118285068,47262,247289,208959
1631118285078,47257,247331,208949
1631118285088,47263,247315,208947
1631118285098,47261,247296,208933
1631118285108,47256,247305,208954
1631118285118,47253,247296,208947
1631118285128,47260,247335,208940
1631118285138,47261,247315,208941
1631118285148,47255,247280,208945
1631118285158,47265,247265,208915
1631118285168,47258,247286,208912
1631118285178,47260,247300,208936
1631118285188,47253,247304,208933
1631118285198,47267,247322,208920
1631118285208,47261,247296,208897
1631118285218,47259,247279,208905
1631118285228,47255,247334,208927
1631118285238,47267,247308,208901
1631118285248,47258,247275,208915
1631118285258,47258,247301,208904
1631118285268,47256,247304,208901
1631118285278,47265,247287,208906
1631118285288,47269,247286,208931
1631118285298,47266,247296,208913
1631118285308,47271,247308,208897
1631118285318,47269,247349,208872
1631118285328,47270,247309,208889
1631118285338,47275,247331,208888
1631118285348,47271,247349,208896
1631118285358,47277,247310,208900
1631118285368,47287,247318,208878
1631118285378,47270,247299,208905
1631118285388,47278,247355,208899
1631118285398,47284,247333,208885
1631118285408,47274,247330,208882
1631118285418,47287,247332,208868
1631118285428,47291,247375,208871
1631118285438,47307,247331,208890
1631118285448,47298,247345,208892
1631118285458,47301,247381,208881
1631118285468,47301,247391,208903
1631118285478,47297,247355,208866
1631118285488,47297,247394,208858
1631118285498,47302,247377,208886
1631118285508,47300,247375,208890
1631118285518,47305,247361,208875
1631118285528,47306,247394,208894
1631118285538,47308,247373,208908
1631118285548,47309,247413,208876
1631118285558,47308,247376,208865
1631118285568,47311,247369,208883
1631118285578,47323,247401,208909
1631118285588,47323,247401,208900
1631118285598,47334,247444,208911
1631118285608,47342,247420,208904
1631118285618,47354,247498,208926
1631118285628,47373,247513,208964
1631118285638,47374,247538,209035
1631118285648,47381,247562,209027
1631118285658,47373,247535,209050
1631118285668,47372,247535,209031
1631118285678,47366,247532,209035
1631118285688,47361,247485,209019
1631118285698,47355,247491,209046
1631118285708,47353,247507,209002
1631118285718,47341,247464,208996
1631118285728,47333,247475,209013
1631118285738,47332,247464,209015
1631118285748,47326,247484,208995
1631118285758,47316,247483,208994
1631118285768,47316,247480,208999
1631118285778,47308,247493,208977
1631118285788,47303,247503,208988
1631118285798,47302,247481,208970
1631118285808,47304,247472,208997
1631118285818,47299,247467,208995
1631118285828,47301,247496,208977
1631118285838,47283,247478,208968
1631118285848,47288,247473,208974
1631118285858,47298,247447,208968
1631118285868,47284,247459,208960
1631118285878,47282,247476,208979
1631118285888,47273,247502,208973
1631118285898,47282,247486,208975
1631118285908,47285,247490,208970
1631118285918,47279,247483,208977
1631118285928,47279,247439,208980
1631118285938,47278,247472,208969
1631118285948,47269,247486,208970
1631118285958,47271,247468,208968
1631118285968,47271,247489,208928
1631118285978,47265,247456,208961
1631118285988,47265,247487,208959
1631118285998,47276,247455,208965
1631118286008,47277,247489,208946
1631118286018,47264,247490,208969
1631118286028,47269,247484,208934
1631118286038,47260,247469,208956
1631118286048,47261,247467,208940
1631118286058,47264,247480,208955
1631118286068,47257,247482,208963
1631118286078,47266,247491,208939
1631118286088,47268,247466,208956
1631118286098,47263,247482,208948
1631118286108,47264,247466,208924
1631118286118,47271,247462,208960
1631118286128,47271,247477,208950
1631118286138,47274,247481,208921
1631118286148,47278,247469,208950
1631118286158,47278,247520,208939
1631118286168,47275,247494,208937
1631118286178,47287,247458,208956
1631118286188,47283,247543,208941
1631118286198,47271,247477,208951
1631118286208,47290,247507,208931
1631118286218,47285,247518,208944
1631118286228,47287,247529,208947
1631118286238,47297,247502,208942
1631118286248,47301,247508,208954
1631118286258,47303,247478,208949
1631118286268,47307,247498,208944
1631118286278,47305,247488,208945
1631118286288,47311,247546,208949
1631118286298,47308,247502,208929
1631118286308,47338,247532,208964
1631118286318,47324,247518,208957
1631118286328,47330,247527,208965
1631118286338,47317,247561,208969
1631118286348,47334,247518,208995
1631118286358,47334,247537,208968
1631118286368,47339,247463,208960
1631118286378,47347,247545,208959
1631118286388,47342,247497,208948
1631118286398,47345,247532,208964
1631118286408,47352,247518,208962
1631118286418,47354,247558,208956
1631118286428,47357,247530,208979
1631118286438,47359,247523,208981
1631118286448,47357,247542,208967
1631118286458,47368,247545,208979
1631118286468,47374,247538,209011
1631118286478,47383,247614,209024
1631118286488,47407,247598,209055
1631118286498,47404,247608,209086
1631118286508,47415,247606,209089
1631118286518,47417,247633,209092
1631118286528,47408,247634,209098
1631118286538,47404,247639,209100
1631118286548,47400,247625,209084
1631118286558,47401,247623,209074
1631118286568,47394,247614,209062
1631118286578,47387,247623,209072
1631118286588,47377,247592,209075
1631118286598,47370,247614,209065
1631118286608,47378,247586,209034
1631118286618,47371,247605,209055
1631118286628,47375,247595,209038
1631118286638,47369,247571,209036
1631118286648,47359,247598,209042
1631118286658,47354,247589,209047
1631118286668,47351,247544,209032
1631118286678,47349,247565,209046
1631118286688,47346,247521,209007
1631118286698,47336,247543,208986
1631118286708,47338,247534,209011
1631118286718,47340,247513,209015
1631118286728,47337,247494,209004
1631118286738,47335,247547,208988
1631118286748,47337,247518,209028
1631118286758,47348,247549,208987
1631118286768,47334,247546,209013
1631118286778,47330,247522,209005
1631118286788,47336,247516,209007
1631118286798,47330,247531,209034
1631118286808,47332,247504,208979
1631118286818,47317,247533,208998
1631118286828,47323,247562,209020
1631118286838,47323,247508,209003
1631118286848,47325,247528,209008
1631118286858,47315,247515,209000
1631118286868,47306,247505,208965
1631118286878,47310,247521,208965
1631118286888,47303,247531,208957
1631118286898,47313,247523,208965
1631118286908,47307,247504,208953
1631118286918,47319,247525,208963
1631118286928,47309,247515,208966
1631118286938,47302,247513,208996
1631118286948,47300,247518,208944
1631118286958,47296,247470,208926
1631118286968,47304,247484,208948
1631118286978,47283,247495,208937
1631118286988,47300,247521,208955
1631118286998,47303,247516,208963
1631118287008,47300,247488,208938
1631118287018,47302,247519,208952
1631118287028,47301,247564,208928
1631118287038,47306,247532,208941
1631118287048,47307,247496,208928
1631118287058,47304,247508,208944
1631118287068,47306,247511,208934
1631118287078,47310,247507,208937
1631118287088,47306,247556,208952
1631118287098,47308,247520,208946
1631118287108,47302,247531,208934
1631118287118,47293,247519,208919
1631118287128,47309,247552,208929
1631118287138,47295,247577,208947
1631118287148,47292,247539,208945
1631118287158,47292,247544,208958
1631118287168,47298,247535,208937
1631118287178,47289,247532,208935
1631118287188,47290,247555,208944
1631118287198,47288,247565,208907
1631118287208,47282,247551,208952
1631118287218,47296,247561,208907
1631118287228,47290,247584,208924
1631118287238,47291,247558,208940
1631118287248,47290,247577,208931
1631118287258,47304,247595,208913
1631118287268,47301,247629,208949
1631118287278,47301,247597,208952
1631118287288,47313,247648,208982
1631118287298,47318,247641,208961
1631118287308,47320,247611,208996
1631118287318,47334,247676,209012
1631118287328,47340,247703,209046
1631118287338,47346,247717,209058
1631118287348,47341,247752,209095
1631118287358,47349,247717,209070
1631118287368,47343,247759,209088
1631118287378,47332,247707,209089
1631118287388,47328,247738,209051
1631118287398,47328,247693,209061
1631118287408,47314,247704,209079
1631118287418,47312,247700,209091
1631118287428,47291,247667,209063
1631118287438,47303,247668,209062
1631118287448,47291,247682,209080
1631118287458,47286,247658,209045
1631118287468,47265,247629,209066
1631118287478,47258,247668,209052
1631118287488,47253,247638,209060
1631118287498,47247,247641,209030
1631118287508,47240,247635,209060
1631118287518,47239,247630,209033
1631118287528,47243,247628,209036
1631118287538,47224,247665,209017
1631118287548,47237,247643,209039
1631118287558,47229,247673,209018
1631118287568,47229,247649,209017
1631118287578,47218,247633,209043
1631118287588,47227,247661,209040
1631118287598,47223,247703,209048
1631118287608,47215,247682,209043
1631118287618,47218,247627,209028
1631118287628,47214,247622,209048
1631118287638,47208,247643,209038
1631118287648,47202,247653,209020
1631118287658,47197,247629,209026
1631118287668,47196,247655,209027
1631118287678,47191,247654,209002
1631118287688,47184,247653,209017
1631118287698,47177,247637,209003
1631118287708,47173,247631,208984
1631118287718,47168,247643,208986
1631118287728,47153,247645,208995
1631118287738,47156,247648,209016
1631118287748,47154,247568,208979
1631118287758,47146,247644,208970
1631118287768,47153,247644,208962
1631118287778,47143,247598,208968
1631118287788,47149,247640,208948
1631118287798,47146,247631,208947
1631118287808,47137,247660,208964
1631118287818,47142,247633,208958
1631118287828,47134,247648,208990
1631118287838,47135,247617,208949
1631118287848,47137,247643,208971
1631118287858,47131,247675,208938
1631118287868,47130,247653,208954
1631118287878,47132,247633,208957
1631118287888,47121,247631,208960
1631118287898,47126,247635,208967
1631118287908,47124,247672,208943
1631118287918,47126,247629,208966
1631118287928,47132,247662,208967
1631118287938,47125,247706,208941
1631118287948,47125,247740,208955
1631118287958,47130,247682,208935
1631118287968,47132,247709,208959
1631118287978,47113,247723,208925
1631118287988,47111,247692,208902
1631118287998,47108,247687,208935
1631118288008,47102,247713,208933
1631118288018,47105,247708,208934
1631118288028,47092,247717,208907
1631118288038,47076,247730,208967
1631118288048,47078,247720,208931
1631118288058,47071,247735,208934
1631118288068,47066,247706,208914
1631118288078,47054,247714,208920
1631118288088,47037,247733,208920
1631118288098,47042,247716,208921
1631118288108,47045,247750,208906
1631118288118,47038,247787,208942
1631118288128,47028,247820,208920
1631118288138,47030,247820,208953
1631118288148,47030,247830,208977
1631118288158,47040,247863,208996
1631118288168,47051,247862,209012
1631118288178,47038,247928,209037
1631118288188,47041,247922,209028
1631118288198,47040,247882,209037
1631118288208,47019,247909,209049
1631118288218,47002,247919,209038
1631118288228,46988,247925,209035
1631118288238,46971,247884,209043
1631118288248,46958,247895,209035
1631118288258,46949,247901,209032
1631118288268,46934,247918,209037
1631118288278,46929,247885,209028
1631118288288,46910,247884,209016
1631118288298,46900,247893,209021
1631118288308,46888,247928,209049
1631118288318,46871,247903,209047
1631118288328,46872,247916,209031
1631118288338,46858,247927,209055
1631118288348,46858,247910,209066
1631118288358,46847,247889,209041
1631118288368,46843,247917,209036
1631118288378,46830,247903,209026
1631118288388,46817,247941,209039
1631118288398,46816,247876,209018
1631118288408,46812,247905,209037
1631118288418,46813,247900,209025
1631118288428,46799,247913,209011
1631118288438,46782,247876,209036
1631118288448,46778,247895,209027
1631118288458,46781,247889,209028
1631118288468,46767,247942,209012
1631118288478,46762,247906,209027
1631118288488,46750,247931,209040
1631118288498,46747,247883,209026
1631118288508,46741,247895,209005
1631118288518,46736,247904,209044
1631118288528,46733,247922,209038
1631118288538,46726,247933,208997
1631118288548,46710,247903,209014
1631118288558,46707,247910,209024
1631118288568,46707,247901,209009
1631118288578,46695,247912,208990
1631118288588,46711,247938,209009
1631118288598,46712,247962,208994
1631118288608,46690,247943,209039
1631118288618,46709,247929,209010
1631118288628,46693,247936,209016
1631118288638,46694,247956,209019
1631118288648,46696,247985,209024
1631118288658,46697,247978,209009
1631118288668,46697,247953,209024
1631118288678,46696,247935,209012
1631118288688,46706,247939,209011
1631118288698,46699,247969,208985
1631118288708,46701,247967,209033
1631118288718,46699,248009,208998
1631118288728,46694,247994,209027
1631118288738,46693,247986,209026
1631118288748,46713,247992,209024
1631118288758,46709,248006,209033
1631118288768,46720,247993,209022
1631118288778,46701,248008,209026
1631118288788,46705,248024,209024
1631118288798,46706,248034,209032
1631118288808,46708,248022,209024
1631118288818,46714,248005,209028
1631118288828,46721,248049,209034
1631118288838,46722,248016,209029
1631118288848,46728,248080,209021
1631118288858,46726,248076,209033
1631118288868,46734,248067,209047
1631118288878,46746,248053,209030
1631118288888,46744,248053,209031
1631118288898,46755,248067,209005
1631118288908,46745,248058,209031
1631118288918,46764,248027,209034
1631118288928,46763,248042,209037
1631118288938,46757,248041,209026
1631118288948,46769,248035,209021
1631118288958,46770,248073,209012
1631118288968,46784,248041,209006
1631118288978,46794,248061,209050
1631118288988,46806,248110,209049
1631118288998,46823,248119,209110
1631118289008,46833,248146,209104
1631118289018,46833,248102,209154
1631118289028,46836,248118,209181
1631118289038,46824,248132,209149
1631118289048,46816,248096,209140
1631118289058,46805,248077,209138
1631118289068,46799,248096,209130
1631118289078,46785,248071,209145
1631118289088,46791,248100,209115
1631118289098,46782,248061,209109
1631118289108,46768,248057,209126
1631118289118,46761,248030,209110
1631118289128,46758,248028,209115
1631118289138,46760,248023,209096
1631118289148,46753,248026,209120
1631118289158,46748,248029,209098
1631118289168,46744,247988,209086
1631118289178,46738,247998,209104
1631118289188,46729,247970,209089
1631118289198,46725,247920,209106
1631118289208,46719,247979,209106
1631118289218,46729,247947,209070
1631118289228,46700,247957,209071
1631118289238,46723,247942,209102
1631118289248,46712,247967,209104
1631118289258,46719,247944,209085
1631118289268,46699,247922,209081
1631118289278,46703,247940,209100
1631118289288,46701,247953,209048
1631118289298,46693,247963,209066
1631118289308,46691,247913,209079
1631118289318,46689,247910,209070
1631118289328,46685,247881,209063
1631118289338,46675,247922,209081
1631118289348,46681,247897,209081
1631118289358,46680,247911,209073
1631118289368,46667,247926,209060
1631118289378,46676,247894,209074
1631118289388,46680,247879,209058
1631118289398,46676,247892,209058
1631118289408,46671,247890,209055
1631118289418,46657,247907,209063
1631118289428,46674,247926,209066
1631118289438,46673,247864,209062
1631118289448,46679,247916,209085
1631118289458,46680,247889,209050
1631118289468,46684,247904,209048
1631118289478,46681,247849,209055
1631118289488,46686,247908,209060
1631118289498,46694,247892,209083
1631118289508,46695,247880,209068
1631118289518,46692,247883,209044
1631118289528,46688,247869,209056
1631118289538,46696,247848,209056
1631118289548,46699,247876,209066
1631118289558,46689,247836,209048
1631118289568,46692,247873,209041
1631118289578,46710,247893,209027
1631118289588,46708,247889,209041
1631118289598,46696,247883,209060
1631118289608,46705,247886,209068
1631118289618,46713,247867,209058
1631118289628,46712,247896,209056
1631118289638,46716,247885,209031
1631118289648,46717,247861,209045
1631118289658,46717,247893,209067
1631118289668,46725,247866,209044
1631118289678,46720,247850,209057
1631118289688,46727,247861,209055
1631118289698,46729,247862,209063
1631118289708,46746,247856,209063
1631118289718,46756,247877,209050
1631118289728,46731,247859,209064
1631118289738,46751,247888,209056
1631118289748,46751,247902,209064
1631118289758,46752,247884,209055
1631118289768,46744,247924,209048
1631118289778,46745,247922,209064
1631118289788,46757,247887,209061
1631118289798,46771,247914,209054
1631118289808,46759,247892,209049
1631118289818,46777,247942,209073
1631118289828,46777,247905,209086
1631118289838,46790,247976,209093
1631118289848,46797,247944,209118
1631118289858,46812,247972,209159
1631118289868,46819,247987,209177
1631118289878,46814,247985,209188
1631118289888,46807,247947,209189
1631118289898,46803,247973,209159
1631118289908,46797,247951,209188
1631118289918,46786,247899,209186
1631118289928,46781,247928,209179
1631118289938,46775,247922,209157
1631118289948,46758,247927,209168
1631118289958,46757,247902,209154
1631118289968,46749,247917,209162
1631118289978,46743,247875,209129
1631118289988,46744,247879,209169
1631118289998,46739,247894,209146
1631118290008,46731,247885,209117
1631118290018,46724,247863,209126
1631118290028,46718,247861,209133
1631118290038,46718,247855,209116
1631118290048,46713,247828,209110
1631118290058,46714,247851,209102
1631118290068,46720,247840,209106
1631118290078,46697,247843,209101
1631118290088,46700,247850,209110
1631118290098,46702,247838,209109
1631118290108,46693,247863,209118
1631118290118,46700,247833,209119
1631118290128,46699,247831,209119
1631118290138,46691,247825,209123
1631118290148,46698,247833,209108
1631118290158,46690,247812,209105
1631118290168,46692,247824,209103
1631118290178,46681,247788,209126
1631118290188,46671,247816,209072
1631118290198,46674,247801,209133
1631118290208,46680,247816,209081
1631118290218,46673,247787,209098
1631118290228,46678,247782,209079
1631118290238,46680,247776,209086
1631118290248,46670,247757,209089
1631118290258,46674,247814,209085
1631118290268,46675,247789,209081
1631118290278,46670,247798,209066
1631118290288,46675,247764,209071
1631118290298,46675,247759,209057
1631118290308,46677,247758,209072
1631118290318,46678,247752,209057
1631118290328,46675,247772,209034
1631118290338,46682,247735,209049
1631118290348,46679,247763,209062
1631118290358,46689,247751,209065
1631118290368,46678,247770,209064
1631118290378,46673,247751,209066
1631118290388,46679,247772,209052
1631118290398,46685,247717,209049
1631118290408,46683,247735,209054
1631118290418,46686,247739,209059
1631118290428,46691,247717,209020
1631118290438,46692,247764,209032
1631118290448,46683,247759,209069
1631118290458,46700,247740,209053
1631118290468,46704,247740,209056
1631118290478,46711,247721,209017
1631118290488,46702,247756,209026
1631118290498,46705,247730,209051
1631118290508,46710,247769,209037
1631118290518,46711,247706,209049
1631118290528,46718,247764,209027
1631118290538,46724,247772,209058
1631118290548,46707,247743,209014
1631118290558,46705,247794,209019
1631118290568,46713,247752,209025
1631118290578,46716,247727,209019
1631118290588,46714,247725,209023
1631118290598,46719,247749,209023
1631118290608,46728,247722,209019
1631118290618,46736,247727,209030
1631118290628,46725,247737,209032
1631118290638,46738,247763,209034
1631118290648,46736,247756,209047
1631118290658,46749,247820,209040
1631118290668,46762,247821,209102
1631118290678,46765,247842,209100
1631118290688,46778,247830,209111
1631118290698,46771,247849,209129
1631118290708,46766,247796,209146
1631118290718,46752,247796,209149
1631118290728,46747,247843,209108
1631118290738,46739,247759,209130
1631118290748,46733,247769,209128
1631118290758,46729,247810,209129
1631118290768,46723,247798,209123
1631118290778,46717,247798,209086
1631118290788,46714,247751,209090
1631118290798,46704,247781,209098
1631118290808,46700,247747,209101
1631118290818,46696,247739,209086
1631118290828,46693,247740,209091
1631118290838,46693,247752,209079
1631118290848,46685,247737,209078
1631118290858,46682,247727,209078
1631118290868,46687,247683,209059
1631118290878,46684,247722,209078
1631118290888,46682,247678,209082
1631118290898,46676,247676,209041
1631118290908,46678,247709,209033
1631118290918,46678,247702,209060
1631118290928,46676,247722,209047
1631118290938,46673,247700,209049
1631118290948,46677,247724,209073
1631118290958,46673,247689,209046
1631118290968,46675,247696,209073
1631118290978,46670,247674,209058
1631118290988,46664,247679,209031
1631118290998,46682,247687,209052
1631118291008,46670,247666,209062
1631118291018,46674,247677,209071
1631118291028,46666,247691,209042
1631118291038,46663,247681,209056
1631118291048,46667,247668,209066
1631118291058,46665,247708,209056
1631118291068,46659,247708,209050
1631118291078,46669,247625,209026
1631118291088,46666,247656,209049
1631118291098,46669,247657,209058
1631118291108,46672,247663,209029
1631118291118,46673,247660,209026
1631118291128,46665,247690,209044
1631118291138,46661,247654,209016
1631118291148,46670,247659,209028
1631118291158,46664,247672,209039
1631118291168,46674,247660,208979
1631118291178,46668,247677,209021
1631118291188,46675,247691,209016
1631118291198,46669,247681,209013
1631118291208,46683,247697,209038
1631118291218,46673,247686,209036
1631118291228,46672,247690,209016
1631118291238,46672,247727,209022
1631118291248,46679,247670,209024
1631118291258,46677,247687,209010
1631118291268,46676,247709,209040
1631118291278,46683,247689,208997
1631118291288,46684,247719,209016
1631118291298,46681,247693,209026
1631118291308,46685,247667,209007
1631118291318,46680,247728,209019
1631118291328,46682,247765,209037
1631118291338,46689,247750,209033
1631118291348,46700,247698,209014
1631118291358,46699,247716,209044
1631118291368,46703,247751,209004
1631118291378,46708,247739,209020
1631118291388,46712,247739,209038
1631118291398,46702,247785,209029
1631118291408,46706,247766,209018
1631118291418,46714,247752,209010
1631118291428,46710,247734,209044
1631118291438,46708,247756,209033
1631118291448,46724,247752,209036
1631118291458,46718,247806,209049
1631118291468,46716,247786,209048
1631118291478,46725,247792,209030
1631118291488,46733,247801,209083
1631118291498,46749,247825,209075
1631118291508,46751,247819,209128
1631118291518,46762,247899,209117
1631118291528,46758,247861,209153
1631118291538,46761,247865,209171
1631118291548,46735,247861,209156
1631118291558,46735,247834,209172
1631118291568,46723,247876,209145
1631118291578,46715,247824,209141
1631118291588,46719,247819,209167
1631118291598,46703,247843,209168
1631118291608,46700,247819,209167
1631118291618,46699,247811,209132
1631118291628,46684,247780,209155
1631118291638,46686,247817,209158
1631118291648,46680,247811,209153
1631118291658,46684,247812,209142
1631118291668,46664,247822,209145
1631118291678,46660,247771,209138
1631118291688,46659,247741,209135
1631118291698,46657,247819,209150
1631118291708,46645,247797,209143
1631118291718,46641,247773,209108
1631118291728,46634,247753,209120
1631118291738,46642,247763,209127
1631118291748,46634,247757,209123
1631118291758,46633,247761,209110
1631118291768,46637,247776,209137
1631118291778,46625,247784,209147
1631118291788,46627,247786,209121
1631118291798,46640,247751,209149
1631118291808,46623,247789,209136
1631118291818,46620,247799,209114
1631118291828,46618,247788,209134
1631118291838,46613,247797,209137
1631118291848,46611,247752,209118
1631118291858,46623,247757,209127
1631118291868,46610,247749,209131
1631118291878,46609,247775,209106
1631118291888,46611,247790,209127
1631118291898,46608,247742,209120
1631118291908,46615,247769,209128
1631118291918,46613,247761,209133
1631118291928,46611,247732,209105
1631118291938,46605,247757,209130
1631118291948,46609,247742,209130
1631118291958,46612,247771,209112
1631118291968,46618,247758,209114
1631118291978,46614,247768,209105
1631118291988,46627,247757,209132
1631118291998,46628,247789,209129
1631118292008,46634,247775,209142
1631118292018,46624,247795,209127
1631118292028,46627,247760,209150
1631118292038,46631,247748,209131
1631118292048,46635,247792,209115
1631118292058,46636,247764,209136
1631118292068,46641,247790,209127
1631118292078,46634,247782,209144
1631118292088,46642,247787,209131
1631118292098,46649,247786,209132
1631118292108,46657,247805,209121
1631118292118,46646,247788,209124
1631118292128,46655,247769,209142
1631118292138,46656,247764,209145
1631118292148,46654,247804,209150
1631118292158,46668,247789,209135
1631118292168,46659,247774,209159
1631118292178,46677,247800,209130
1631118292188,46673,247764,209138
1631118292198,46670,247813,209120
1631118292208,46666,247810,209125
1631118292218,46673,247816,209138
1631118292228,46678,247790,209132
1631118292238,46674,247809,209138
1631118292248,46679,247805,209149
1631118292258,46675,247815,209168
1631118292268,46692,247820,209140
1631118292278,46682,247792,209122
1631118292288,46691,247823,209150
1631118292298,46690,247780,209143
1631118292308,46700,247871,209144
1631118292318,46709,247871,209146
1631118292328,46720,247898,209173
1631118292338,46716,247913,209209
1631118292348,46725,247937,209217
1631118292358,46745,247916,209267
1631118292368,46743,247945,209278
1631118292378,46734,247952,209272
1631118292388,46735,247902,209285
1631118292398,46727,247944,209268
1631118292408,46712,247905,209254
1631118292418,46701,247888,209261
1631118292428,46694,247909,209246
1631118292438,46682,247877,209264
1631118292448,46681,247922,209271
1631118292458,46666,247901,209238
1631118292468,46669,247848,209233
1631118292478,46668,247874,209240
1631118292488,46662,247890,209260
1631118292498,46651,247897,209252
1631118292508,46643,247843,209255
1631118292518,46644,247836,209244
1631118292528,46627,247813,209252
1631118292538,46625,247819,209228
1631118292548,46634,247826,209241
1631118292558,46617,247832,209218
1631118292568,46627,247810,209227
1631118292578,46619,247789,209196
1631118292588,46617,247779,209203
1631118292598,46620,247794,209214
1631118292608,46618,247781,209229
1631118292618,46611,247799,209217
1631118292628,46602,247799,209239
1631118292638,46604,247812,209217
1631118292648,46614,247780,209229
1631118292658,46604,247782,209241
1631118292668,46599,247799,209237
1631118292678,46601,247772,209186
1631118292688,46601,247797,209207
1631118292698,46595,247768,209216
1631118292708,46603,247791,209208
1631118292718,46602,247796,209174
1631118292728,46594,247760,209203
1631118292738,46588,247778,209219
1631118292748,46600,247785,209209
1631118292758,46601,247752,209207
1631118292768,46593,247782,209219
1631118292778,46592,247756,209179
1631118292788,46599,247771,209203
1631118292798,46589,247721,209207
1631118292808,46597,247788,209220
1631118292818,46596,247769,209208
1631118292828,46598,247746,209183
1631118292838,46606,247764,209179
1631118292848,46596,247774,209205
1631118292858,46600,247745,209182
1631118292868,46595,247743,209189
1631118292878,46602,247792,209146
1631118292888,46603,247780,209195
1631118292898,46597,247754,209193
1631118292908,46605,247742,209169
1631118292918,46601,247768,209168
1631118292928,46597,247778,209158
1631118292938,46600,247790,209151
1631118292948,46602,247785,209155
1631118292958,46590,247768,209197
1631118292968,46580,247806,209171
1631118292978,46585,247773,209143
1631118292988,46593,247776,209175
1631118292998,46590,247770,209154
1631118293008,46601,247804,209154
1631118293018,46596,247791,209157
1631118293028,46589,247812,209156
1631118293038,46601,247789,209155
1631118293048,46597,247794,209169
1631118293058,46592,247796,209151
1631118293068,46602,247785,209161
1631118293078,46604,247832,209164
1631118293088,46597,247839,209160
1631118293098,46606,247801,209159
1631118293108,46606,247796,209161
1631118293118,46596,247810,209161
1631118293128,46623,247841,209174
1631118293138,46613,247798,209145
1631118293148,46623,247830,209161
1631118293158,46626,247876,209175
1631118293168,46631,247858,209186
1631118293178,46631,247909,209160
1631118293188,46646,247889,209217
1631118293198,46665,247915,209261
1631118293208,46669,247946,209256
1631118293218,46674,247944,209306
1631118293228,46670,247916,209284
1631118293238,46664,247969,209261
1631118293248,46646,247921,209295
1631118293258,46641,247924,209268
1631118293268,46636,247920,209273
1631118293278,46639,247907,209238
1631118293288,46619,247893,209282
1631118293298,46606,247882,209272
1631118293308,46609,247906,209237
1631118293318,46601,247852,209256
1631118293328,46586,247884,209260
1631118293338,46584,247871,209265
1631118293348,46573,247898,209287
1631118293358,46566,247851,209216
1631118293368,46565,247866,209236
1631118293378,46560,247823,209219
1631118293388,46559,247839,209239
1631118293398,46551,247833,209209
1631118293408,46554,247833,209249
1631118293418,46552,247866,209224
1631118293428,46548,247854,209216
1631118293438,46557,247856,209220
1631118293448,46542,247777,209252
1631118293458,46557,247843,209234
1631118293468,46556,247878,209232
1631118293478,46541,247838,209231
1631118293488,46552,247834,209235
1631118293498,46547,247815,209210
1631118293508,46543,247831,209248
1631118293518,46539,247823,209224
1631118293528,46551,247853,209218
1631118293538,46537,247801,209219
1631118293548,46539,247839,209208
1631118293558,46535,247815,209221
1631118293568,46533,247813,209215
1631118293578,46530,247806,209194
1631118293588,46529,247825,209212
1631118293598,46529,247835,209180
1631118293608,46526,247811,209211
1631118293618,46547,247821,209205
1631118293628,46535,247797,209166
1631118293638,46539,247798,209207
1631118293648,46531,247823,209174
1631118293658,46534,247834,209187
1631118293668,46529,247841,209180
1631118293678,46523,247832,209179
1631118293688,46536,247804,209173
1631118293698,46540,247821,209180
1631118293708,46536,247840,209163
1631118293718,46531,247817,209146
1631118293728,46528,247799,209181
1631118293738,46539,247815,209151
1631118293748,46539,247792,209167
1631118293758,46537,247835,209198
1631118293768,46548,247822,209143
1631118293778,46554,247829,209173
1631118293788,46556,247843,209187
1631118293798,46553,247862,209166
1631118293808,46551,247827,209161
1631118293818,46558,247836,209168
1631118293828,46562,247841,209179
1631118293838,46552,247838,209150
1631118293848,46565,247853,209163
1631118293858,46566,247827,209188
1631118293868,46568,247855,209184
1631118293878,46572,247887,209163
1631118293888,46566,247876,209162
1631118293898,46567,247844,209155
1631118293908,46575,247876,209159
1631118293918,46578,247880,209136
1631118293928,46571,247888,209168
1631118293938,46579,247879,209179
1631118293948,46582,247907,209151
1631118293958,46579,247890,209151
1631118293968,46589,247890,209140
1631118293978,46584,247886,209155
1631118293988,46587,247918,209166
1631118293998,46592,247927,209143
1631118294008,46593,247952,209159
1631118294018,46610,247930,209165
1631118294028,46623,247946,209199
1631118294038,46624,247987,209230
1631118294048,46634,247984,209250
1631118294058,46635,248002,209257
1631118294068,46634,247970,209261
1631118294078,46629,247981,209260
1631118294088,46612,247994,209283
1631118294098,46621,247989,209271
1631118294108,46607,247964,209290
1631118294118,46611,248003,209258
1631118294128,46593,247989,209270
1631118294138,46591,247934,209260
1631118294148,46585,247949,209258
1631118294158,46582,247963,209245
1631118294168,46582,247940,209246
1631118294178,46579,247976,209265
1631118294188,46568,247958,209251
1631118294198,46570,247942,209218
1631118294208,46560,247994,209233
1631118294218,46556,247976,209237
1631118294228,46554,247924,209232
1631118294238,46551,247901,209233
1631118294248,46554,247926,209212
1631118294258,46539,247945,209203
1631118294268,46553,247976,209242
1631118294278,46552,247921,209217
1631118294288,46551,247930,209219
1631118294298,46536,247943,209232
1631118294308,46541,247917,209225
1631118294318,46543,247928,209233
1631118294328,46538,247945,209225
1631118294338,46540,247938,209219
1631118294348,46540,247958,209241
1631118294358,46539,248003,209220
1631118294368,46544,247953,209225
1631118294378,46544,247944,209202
1631118294388,46543,247937,209228
1631118294398,46539,247934,209216
1631118294408,46546,247928,209218
1631118294418,46546,247917,209191
1631118294428,46553,247928,209226
1631118294438,46548,247940,209189
1631118294448,46548,247942,209199
1631118294458,46551,247936,209188
1631118294468,46544,247955,209181
1631118294478,46535,247905,209197
1631118294488,46540,247926,209197
1631118294498,46546,247925,209177
1631118294508,46544,247924,209181
1631118294518,46539,247911,209165
1631118294528,46548,247933,209187
1631118294538,46548,247942,209162
1631118294548,46541,247944,209197
1631118294558,46542,247929,209174
1631118294568,46541,247964,209177
1631118294578,46547,247923,209180
1631118294588,46546,247967,209183
1631118294598,46550,247971,209193
1631118294608,46544,247978,209172
1631118294618,46555,247949,209199
1631118294628,46565,247932,209197
1631118294638,46569,247985,209172
1631118294648,46560,247961,209164
1631118294658,46559,247962,209167
1631118294668,46572,247942,209169
1631118294678,46568,247943,209175
1631118294688,46569,247982,209190
1631118294698,46566,247960,209176
1631118294708,46569,247959,209175
1631118294718,46578,247951,209174
1631118294728,46575,247963,209170
1631118294738,46581,247969,209180
1631118294748,46584,248002,209176
1631118294758,46575,248000,209148
1631118294768,46581,247977,209146
1631118294778,46581,248006,209179
1631118294788,46590,247999,209162
1631118294798,46589,247970,209179
1631118294808,46597,248025,209163
1631118294818,46602,248011,209190
1631118294828,46605,248023,209182
1631118294838,46606,248025,209200
1631118294848,46612,248014,209210
1631118294858,46617,248061,209225
1631118294868,46640,248088,209242
1631118294878,46649,248127,209291
1631118294888,46649,248147,209286
1631118294898,46645,248150,209311
1631118294908,46642,248122,209318
1631118294918,46647,248121,209316
1631118294928,46637,248098,209281
1631118294938,46621,248104,209296
1631118294948,46613,248088,209294
1631118294958,46606,248100,209313
1631118294968,46602,248066,209300
1631118294978,46600,248041,209273
1631118294988,46592,248078,209263
1631118294998,46587,248121,209295
1631118295008,46586,248045,209283
1631118295018,46578,248063,209277
1631118295028,46569,248016,209262
1631118295038,46561,248068,209253
1631118295048,46562,248068,209259
1631118295058,46559,248049,209281
1631118295068,46548,248008,209272
1631118295078,46548,248015,209242
1631118295088,46545,248004,209236
1631118295098,46544,248024,209250
1631118295108,46549,248042,209248
1631118295118,46543,248022,209276
1631118295128,46552,248047,209276
1631118295138,46547,248025,209252
1631118295148,46555,248042,209253
1631118295158,46550,247995,209270
1631118295168,46548,248001,209259
1631118295178,46540,248031,209257
1631118295188,46537,248010,209256
1631118295198,46533,248026,209239
1631118295208,46532,248022,209269
1631118295218,46534,248016,209245
1631118295228,46532,248037,209268
1631118295238,46536,248028,209269
1631118295248,46532,248014,209217
1631118295258,46521,247987,209226
1631118295268,46526,248020,209259
1631118295278,46523,247978,209233
1631118295288,46525,248007,209234
1631118295298,46520,248040,209249
1631118295308,46533,248012,209226
1631118295318,46525,248017,209228
1631118295328,46524,248000,209226
1631118295338,46519,248022,209240
1631118295348,46527,247993,209211
1631118295358,46524,248036,209212
1631118295368,46527,247988,209237
1631118295378,46525,247976,209217
1631118295388,46525,248037,209207
1631118295398,46536,248019,209229
1631118295408,46537,248030,209196
1631118295418,46538,248041,209198
1631118295428,46551,248035,209232
1631118295438,46537,248016,209209
1631118295448,46535,248062,209198
1631118295458,46543,248030,209195
1631118295468,46543,248067,209200
1631118295478,46552,248052,209195
1631118295488,46551,248042,209182
1631118295498,46557,248058,209212
1631118295508,46550,248047,209198
1631118295518,46552,248037,209205
1631118295528,46563,248048,209220
1631118295538,46564,248067,209197
1631118295548,46576,248028,209230
1631118295558,46576,248067,209199
1631118295568,46568,248090,209193
1631118295578,46577,248038,209203
1631118295588,46564,248027,209187
1631118295598,46576,248073,209222
1631118295608,46580,248077,209200
1631118295618,46583,248057,209201
1631118295628,46580,248056,209188
1631118295638,46593,248093,209188
1631118295648,46591,248076,209191
1631118295658,46597,248089,209183
1631118295668,46595,248107,209210
1631118295678,46600,248121,209206
1631118295688,46607,248091,209212
1631118295698,46605,248116,209219
1631118295708,46610,248117,209245
1631118295718,46632,248193,209270
1631118295728,46651,248175,209272
1631118295738,46658,248182,209307
1631118295748,46646,248241,209314
1631118295758,46651,248205,209323
1631118295768,46643,248220,209357
1631118295778,46639,248208,209345
1631118295788,46625,248207,209337
1631118295798,46623,248169,209355
1631118295808,46617,248192,209336
1631118295818,46603,248186,209288
1631118295828,46602,248181,209310
1631118295838,46592,248157,209322
1631118295848,46580,248128,209347
1631118295858,46579,248126,209323
1631118295868,46580,248157,209326
1631118295878,46574,248101,209320
1631118295888,46576,248165,209300
1631118295898,46551,248112,209308
1631118295908,46556,248120,209276
1631118295918,46555,248106,209305
1631118295928,46549,248138,209286
1631118295938,46535,248078,209299
1631118295948,46539,248077,209294
1631118295958,46535,248073,209297
1631118295968,46531,248070,209271
1631118295978,46529,248090,209269
1631118295988,46530,248080,209279
1631118295998,46524,248083,209257
1631118296008,46521,248084,209288
1631118296018,46517,248062,209270
1631118296028,46533,248061,209271
1631118296038,46530,248056,209271
1631118296048,46509,248058,209275
1631118296058,46517,248061,209265
1631118296068,46516,248030,209257
1631118296078,46517,248018,209258
1631118296088,46517,248003,209242
1631118296098,46513,247997,209251
1631118296108,46512,248008,209244
1631118296118,46516,247976,209258
1631118296128,46516,247976,209230
1631118296138,46515,247971,209233
1631118296148,46506,247997,209224
1631118296158,46516,248007,209232
1631118296168,46512,247975,209198
1631118296178,46510,247976,209213
1631118296188,46510,248003,209218
1631118296198,46511,247968,209217
1631118296208,46516,247978,209214
1631118296218,46515,248000,209223
1631118296228,46516,247983,209214
1631118296238,46510,247979,209203
1631118296248,46512,247961,209196
1631118296258,46514,247996,209217
1631118296268,46508,248022,209188
1631118296278,46523,247970,209190
1631118296288,46519,248003,209198
1631118296298,46523,247991,209205
1631118296308,46523,247991,209221
1631118296318,46524,247965,209215
1631118296328,46534,247965,209217
1631118296338,46533,247973,209204
1631118296348,46537,247988,209203
1631118296358,46543,248001,209207
1631118296368,46546,247969,209191
1631118296378,46532,248008,209179
1631118296388,46555,247997,209198
1631118296398,46551,247977,209186
1631118296408,46552,247953,209185
1631118296418,46556,247959,209166
1631118296428,46559,248016,209181
1631118296438,46551,247964,209178
1631118296448,46558,248010,209194
1631118296458,46563,248030,209179
1631118296468,46564,247994,209182
1631118296478,46562,248018,209168
1631118296488,46566,247998,209188
1631118296498,46569,248007,209165
1631118296508,46572,248016,209157
1631118296518,46576,248033,209185
1631118296528,46587,248073,209145
1631118296538,46590,248039,209170
1631118296548,46590,248031,209181
1631118296558,46595,248054,209194
1631118296568,46596,248037,209180
1631118296578,46610,248060,209232
1631118296588,46617,248081,209224
1631118296598,46628,248061,209241
1631118296608,46633,248103,209273
1631118296618,46647,248094,209269
1631118296628,46634,248130,209278
1631118296638,46624,248072,209296
1631118296648,46629,248115,209293
1631118296658,46614,248086,209304
1631118296668,46611,248099,209296
1631118296678,46611,248049,209277
1631118296688,46604,248050,209279
1631118296698,46585,248079,209283
1631118296708,46586,248043,209261
1631118296718,46596,248074,209293
1631118296728,46592,248024,209275
1631118296738,46571,248042,209281
1631118296748,46568,248022,209253
1631118296758,46571,247981,209254
1631118296768,46571,248005,209259
1631118296778,46563,247953,209280
1631118296788,46560,247986,209254
1631118296798,46554,247951,209247
1631118296808,46547,247952,209249
1631118296818,46534,247966,209232
1631118296828,46535,247969,209219
1631118296838,46529,247989,209210
1631118296848,46534,247982,209209
1631118296858,46538,247928,209211
1631118296868,46538,247911,209185
1631118296878,46540,247938,209204
1631118296888,46522,247936,209210
1631118296898,46538,247922,209188
1631118296908,46528,247923,209197
1631118296918,46523,247938,209198
1631118296928,46528,247920,209201
1631118296938,46515,247923,209186
1631118296948,46522,247910,209183
1631118296958,46522,247924,209188
1631118296968,46524,247899,209190
1631118296978,46521,247915,209166
1631118296988,46528,247893,209167
1631118296998,46531,247909,209177
1631118297008,46528,247883,209157
1631118297018,46537,247921,209176
1631118297028,46530,247916,209141
1631118297038,46530,247913,209165
1631118297048,46531,247928,209155
1631118297058,46536,247896,209159
1631118297068,46521,247890,209142
1631118297078,46523,247883,209160
1631118297088,46529,247872,209144
1631118297098,46531,247882,209151
1631118297108,46533,247890,209136
1631118297118,46535,247885,209119
1631118297128,46534,247895,209126
1631118297138,46535,247913,209120
1631118297148,46535,247872,209110
1631118297158,46540,247903,209116
1631118297168,46552,247912,209135
1631118297178,46540,247875,209135
1631118297188,46551,247894,209120
1631118297198,46556,247887,209118
1631118297208,46551,247879,209118
1631118297218,46561,247885,209143
1631118297228,46566,247904,209118
1631118297238,46563,247897,209133
1631118297248,46573,247922,209117
1631118297258,46570,247903,209110
1631118297268,46566,247905,209114
1631118297278,46580,247886,209115
1631118297288,46574,247911,209122
1631118297298,46591,247905,209119
1631118297308,46585,247934,209112
1631118297318,46584,247942,209115
1631118297328,46585,247916,209129
1631118297338,46591,247944,209116
1631118297348,46596,247940,209108
1631118297358,46596,247985,209117
1631118297368,46584,247984,209128
1631118297378,46604,247945,209105
1631118297388,46601,247939,209128
1631118297398,46605,247975,209114
1631118297408,46613,247948,209114
1631118297418,46611,247930,209120
1631118297428,46615,247994,209129
1631118297438,46615,247956,209114
1631118297448,46629,247978,209136
1631118297458,46634,248031,209164
1631118297468,46642,248052,209171
1631118297478,46660,248059,209201
1631118297488,46668,248089,209242
1631118297498,46676,248083,209268
1631118297508,46678,248091,209239
1631118297518,46673,248095,209248
1631118297528,46669,248066,209240
1631118297538,46662,248034,209237
1631118297548,46646,248075,209244
1631118297558,46635,248057,209231
1631118297568,46633,248085,209225
1631118297578,46632,248090,209212
1631118297588,46626,248060,209239
1631118297598,46623,248070,209220
1631118297608,46612,248061,209222
1631118297618,46611,248048,209211
1631118297628,46608,248029,209206
1631118297638,46602,248050,209215
1631118297648,46602,248045,209208
1631118297658,46590,248076,209203
1631118297668,46606,248034,209180
1631118297678,46595,248058,209189
1631118297688,46579,248030,209171
1631118297698,46594,248064,209174
1631118297708,46587,248099,209199
1631118297718,46582,248046,209190
1631118297728,46592,248048,209206
1631118297738,46592,248095,209207
1631118297748,46580,248067,209184
1631118297758,46585,248073,209212
1631118297768,46589,248090,209202
1631118297778,46576,248094,209179
1631118297788,46586,248100,209180
1631118297798,46581,248107,209203
1631118297808,46582,248091,209171
1631118297818,46585,248044,209184
1631118297828,46588,248057,209206
1631118297838,46586,248064,209171
1631118297848,46569,248057,209200
1631118297858,46593,248066,209192
1631118297868,46593,248068,209177
1631118297878,46583,248077,209178
1631118297888,46584,248076,209143
1631118297898,46588,248072,209167
1631118297908,46595,248058,209179
1631118297918,46591,248051,209149
1631118297928,46593,248074,209170
1631118297938,46590,248046,209158
1631118297948,46587,248054,209158
1631118297958,46586,248069,209140
1631118297968,46591,248087,209156
1631118297978,46597,248075,209165
1631118297988,46597,248108,209177
1631118297998,46599,248066,209154
1631118298008,46605,248082,209149
1631118298018,46612,248075,209169
1631118298028,46601,248069,209150
1631118298038,46608,248062,209152
1631118298048,46602,248092,209160
1631118298058,46612,248104,209136
1631118298068,46606,248085,209124
1631118298078,46613,248080,209103
1631118298088,46619,248095,209109
1631118298098,46618,248117,209117
1631118298108,46622,248097,209108
1631118298118,46619,248091,209127
1631118298128,46628,248076,209103
1631118298138,46624,248082,209114
1631118298148,46645,248068,209113
1631118298158,46636,248088,209090
1631118298168,46636,248076,209100
1631118298178,46635,248091,209077
1631118298188,46632,248093,209090
1631118298198,46638,248121,209104
1631118298208,46632,248068,209074
1631118298218,46644,248103,209110
1631118298228,46656,248090,209095
1631118298238,46653,248126,209098
1631118298248,46657,248134,209099
1631118298258,46665,248122,209103
1631118298268,46675,248120,209094
1631118298278,46671,248158,209121
1631118298288,46680,248136,209102
1631118298298,46681,248178,209105
1631118298308,46710,248173,209155
1631118298318,46706,248184,209174
1631118298328,46725,248222,209184
1631118298338,46725,248230,209216
1631118298348,46735,248243,209249
1631118298358,46730,248247,209208
1631118298368,46727,248254,209215
1631118298378,46723,248240,209239
1631118298388,46717,248256,209244
1631118298398,46718,248212,209233
1631118298408,46713,248225,209253
1631118298418,46709,248191,209214
1631118298428,46707,248206,209239
1631118298438,46710,248226,209198
1631118298448,46707,248204,209247
1631118298458,46710,248218,209241
1631118298468,46707,248211,209235
1631118298478,46704,248205,209233
1631118298488,46705,248227,209227
1631118298498,46696,248246,209222
1631118298508,46715,248185,209215
1631118298518,46697,248190,209213
1631118298528,46701,248203,209199
1631118298538,46697,248205,209214
1631118298548,46707,248179,209227
1631118298558,46713,248186,209208
1631118298568,46713,248215,209224
1631118298578,46720,248224,209234
1631118298588,46714,248233,209227
1631118298598,46721,248224,209235
1631118298608,46721,248207,209237
1631118298618,46722,248203,209279
1631118298628,46724,248215,209245
1631118298638,46728,248234,209224
1631118298648,46730,248229,209202
1631118298658,46731,248214,209258
1631118298668,46741,248205,209245
1631118298678,46726,248203,209239
1631118298688,46732,248226,209234
1631118298698,46723,248185,209238
1631118298708,46728,248251,209224
1631118298718,46732,248248,209227
1631118298728,46732,248219,209222
1631118298738,46731,248211,209235
1631118298748,46730,248211,209236
1631118298758,46743,248225,209241
1631118298768,46739,248245,209244
1631118298778,46738,248241,209250
1631118298788,46742,248239,209228
1631118298798,46735,248276,209253
1631118298808,46741,248238,209244
1631118298818,46752,248235,209248
1631118298828,46751,248204,209253
1631118298838,46771,248250,209249
1631118298848,46753,248238,209257
1631118298858,46754,248252,209229
1631118298868,46753,248276,209230
1631118298878,46764,248253,209225
1631118298888,46767,248267,209241
1631118298898,46769,248275,209214
1631118298908,46765,248237,209247
1631118298918,46770,248284,209202
1631118298928,46773,248244,209232
1631118298938,46772,248304,209217
1631118298948,46778,248262,209257
1631118298958,46784,248298,209239
1631118298968,46793,248319,209219
1631118298978,46795,248303,209230
1631118298988,46787,248316,209228
1631118298998,46801,248325,209246
1631118299008,46789,248302,209240
1631118299018,46799,248343,209219
1631118299028,46811,248291,209245
1631118299038,46811,248288,209218
1631118299048,46810,248309,209255
1631118299058,46817,248287,209247
1631118299068,46813,248322,209259
1631118299078,46819,248303,209244
1631118299088,46820,248320,209239
1631118299098,46824,248366,209250
1631118299108,46825,248338,209254
1631118299118,46836,248362,209251
1631118299128,46838,248362,209250
1631118299138,46849,248413,209280
1631118299148,46854,248406,209306
1631118299158,46884,248467,209357
1631118299168,46889,248457,209374
1631118299178,46889,248476,209397
1631118299188,46890,248462,209401
1631118299198,46888,248505,209390
1631118299208,46876,248481,209391
1631118299218,46876,248460,209402
1631118299228,46869,248474,209388
1631118299238,46866,248445,209381
1631118299248,46852,248463,209409
1631118299258,46848,248467,209405
1631118299268,46843,248453,209392
1631118299278,46841,248432,209391
1631118299288,46849,248437,209383
1631118299298,46827,248472,209408
1631118299308,46844,248409,209402
1631118299318,46836,248420,209396
1631118299328,46821,248425,209382
1631118299338,46816,248428,209402
1631118299348,46820,248410,209385
1631118299358,46816,248429,209366
1631118299368,46821,248392,209351
1631118299378,46818,248443,209349
1631118299388,46818,248416,209351
1631118299398,46814,248397,209342
1631118299408,46814,248414,209358
1631118299418,46815,248432,209341
1631118299428,46812,248415,209356
1631118299438,46811,248443,209358
1631118299448,46824,248397,209358
1631118299458,46809,248398,209365
1631118299468,46818,248406,209359
1631118299478,46825,248398,209360
1631118299488,46812,248380,209351
1631118299498,46804,248383,209342
1631118299508,46809,248347,209361
1631118299518,46801,248378,209334
1631118299528,46805,248374,209320
1631118299538,46807,248391,209354
1631118299548,46802,248353,209331
1631118299558,46807,248389,209315
1631118299568,46798,248382,209338
1631118299578,46800,248355,209329
1631118299588,46800,248371,209311
1631118299598,46803,248397,209323
1631118299608,46805,248399,209322
1631118299618,46799,248376,209318
1631118299628,46806,248399,209332
1631118299638,46802,248360,209316
1631118299648,46794,248395,209325
1631118299658,46809,248370,209320
1631118299668,46812,248335,209301
1631118299678,46811,248380,209312
1631118299688,46815,248347,209319
1631118299698,46823,248364,209325
1631118299708,46819,248368,209317
1631118299718,46823,248391,209300
1631118299728,46824,248358,209314
1631118299738,46823,248406,209309
1631118299748,46830,248398,209311
1631118299758,46824,248388,209292
1631118299768,46826,248404,209319
1631118299778,46837,248345,209288
1631118299788,46837,248410,209332
1631118299798,46832,248379,209301
1631118299808,46848,248401,209283
1631118299818,46833,248421,209305
1631118299828,46840,248378,209308
1631118299838,46843,248401,209311
1631118299848,46845,248403,209329
1631118299858,46845,248403,209308
1631118299868,46845,248385,209326
1631118299878,46846,248431,209290
1631118299888,46845,248373,209283
1631118299898,46848,248453,209290
1631118299908,46854,248422,209299
1631118299918,46860,248429,209308
1631118299928,46864,248430,209315
1631118299938,46860,248430,209295
1631118299948,46855,248432,209311
1631118299958,46864,248428,209309
1631118299968,46875,248488,209319
1631118299978,46889,248457,209356
1631118299988,46895,248504,209343
1631118299998,46900,248515,209390
1631118300008,46911,248519,209437
1631118300018,46916,248581,209463
1631118300028,46906,248577,209438
1631118300038,46905,248583,209460
1631118300048,46891,248546,209447
1631118300058,46891,248557,209471
1631118300068,46881,248530,209430
1631118300078,46876,248530,209455
1631118300088,46860,248538,209426
1631118300098,46850,248509,209472
1631118300108,46852,248501,209440
1631118300118,46848,248526,209439
1631118300128,46843,248486,209420
1631118300138,46829,248479,209425
1631118300148,46824,248478,209437
1631118300158,46816,248494,209422
1631118300168,46810,248480,209400
1631118300178,46815,248464,209430
1631118300188,46806,248454,209418
1631118300198,46802,248437,209411
1631118300208,46792,248457,209427
1631118300218,46787,248430,209381
1631118300228,46787,248478,209425
1631118300238,46781,248457,209418
1631118300248,46775,248404,209384
1631118300258,46785,248441,209401
1631118300268,46781,248428,209405
1631118300278,46758,248447,209382
1631118300288,46780,248406,209406
1631118300298,46769,248403,209396
1631118300308,46762,248380,209391
1631118300318,46758,248414,209408
1631118300328,46755,248397,209422
1631118300338,46754,248393,209416
1631118300348,46749,248421,209399
1631118300358,46749,248387,209385
1631118300368,46752,248375,209406
1631118300378,46742,248388,209395
1631118300388,46740,248408,209379
1631118300398,46737,248396,209358
1631118300408,46740,248358,209359
1631118300418,46739,248347,209368
1631118300428,46732,248329,209360
1631118300438,46744,248340,209378
1631118300448,46737,248353,209372
1631118300458,46722,248376,209332
1631118300468,46729,248355,209332
1631118300478,46732,248372,209366
1631118300488,46727,248349,209322
1631118300498,46735,248349,209339
1631118300508,46733,248361,209342
1631118300518,46731,248330,209345
1631118300528,46729,248379,209328
1631118300538,46733,248369,209316
1631118300548,46724,248348,209344
1631118300558,46737,248333,209365
1631118300568,46729,248386,209335
1631118300578,46731,248313,209327
1631118300588,46720,248362,209304
1631118300598,46736,248340,209336
1631118300608,46740,248365,209323
1631118300618,46734,248396,209307
1631118300628,46740,248349,209333
1631118300638,46734,248359,209335
1631118300648,46738,248354,209303
1631118300658,46735,248348,209290
1631118300668,46735,248334,209308
1631118300678,46729,248344,209314
1631118300688,46728,248373,209290
1631118300698,46730,248335,209290
1631118300708,46730,248319,209285
1631118300718,46722,248328,209285
1631118300728,46724,248353,209247
1631118300738,46729,248346,209245
1631118300748,46727,248388,209262
1631118300758,46738,248331,209290
1631118300768,46725,248370,209273
1631118300778,46742,248393,209268
1631118300788,46736,248338,209255
1631118300798,46736,248337,209283
1631118300808,46734,248369,209282
1631118300818,46751,248385,209277
1631118300828,46760,248395,209307
1631118300838,46761,248424,209352
1631118300848,46780,248440,209358
1631118300858,46778,248458,209378
1631118300868,46774,248438,209400
1631118300878,46770,248468,209406
1631118300888,46772,248413,209431
1631118300898,46769,248466,209410
1631118300908,46750,248443,209393
1631118300918,46749,248417,209398
1631118300928,46732,248411,209396
1631118300938,46732,248393,209382
1631118300948,46714,248395,209390
1631118300958,46702,248405,209393
1631118300968,46693,248365,209394
1631118300978,46706,248415,209376
1631118300988,46698,248388,209386
1631118300998,46694,248358,209405
1631118301008,46684,248341,209384
1631118301018,46678,248362,209359
1631118301028,46664,248338,209365
1631118301038,46665,248335,209368
1631118301048,46657,248361,209352
1631118301058,46669,248297,209365
1631118301068,46662,248286,209354
1631118301078,46648,248304,209331
1631118301088,46642,248279,209352
1631118301098,46637,248330,209347
1631118301108,46636,248309,209346
1631118301118,46637,248310,209363
1631118301128,46635,248288,209328
1631118301138,46632,248282,209316
1631118301148,46631,248307,209347
1631118301158,46624,248268,209351
1631118301168,46624,248276,209340
1631118301178,46629,248270,209324
1631118301188,46624,248285,209327
1631118301198,46616,248268,209313
1631118301208,46615,248283,209322
1631118301218,46616,248234,209300
1631118301228,46617,248237,209334
1631118301238,46618,248264,209297
1631118301248,46616,248260,209320
1631118301258,46618,248237,209313
1631118301268,46621,248264,209316
1631118301278,46615,248254,209300
1631118301288,46612,248238,209303
1631118301298,46613,248218,209299
1631118301308,46616,248245,209278
1631118301318,46623,248261,209290
1631118301328,46621,248242,209276
1631118301338,46617,248244,209297
1631118301348,46623,248270,209299
1631118301358,46616,248256,209300
1631118301368,46619,248262,209291
1631118301378,46622,248223,209294
1631118301388,46623,248240,209261
1631118301398,46625,248213,209295
1631118301408,46630,248265,209282
1631118301418,46639,248258,209302
1631118301428,46638,248272,209276
1631118301438,46639,248262,209295
1631118301448,46632,248300,209293
1631118301458,46642,248269,209295
1631118301468,46642,248261,209306
1631118301478,46645,248261,209285
1631118301488,46651,248279,209293
1631118301498,46648,248315,209296
1631118301508,46656,248292,209295
1631118301518,46656,248296,209299
1631118301528,46652,248257,209299
1631118301538,46655,248267,209288
1631118301548,46664,248297,209299
1631118301558,46671,248278,209307
1631118301568,46666,248297,209272
1631118301578,46668,248311,209281
1631118301588,46677,248306,209296
1631118301598,46667,248324,209286
1631118301608,46668,248303,209292
1631118301618,46668,248307,209281
1631118301628,46682,248330,209285
1631118301638,46681,248307,209281
1631118301648,46695,248297,209289
1631118301658,46693,248326,209298
1631118301668,46695,248337,209305
1631118301678,46707,248350,209316
1631118301688,46706,248363,209357
1631118301698,46719,248393,209366
1631118301708,46731,248454,209396
1631118301718,46751,248414,209425
1631118301728,46746,248451,209429
1631118301738,46735,248443,209456
1631118301748,46735,248431,209444
1631118301758,46719,248388,209446
1631118301768,46713,248369,209443
1631118301778,46707,248404,209418
1631118301788,46704,248372,209433
1631118301798,46702,248401,209443
1631118301808,46691,248380,209401
1631118301818,46686,248380,209418
1631118301828,46684,248374,209405
1631118301838,46682,248403,209398
1631118301848,46680,248358,209418
1631118301858,46679,248378,209389
1631118301868,46663,248393,209424
1631118301878,46672,248357,209411
1631118301888,46664,248341,209401
1631118301898,46673,248358,209405
1631118301908,46658,248372,209425
1631118301918,46659,248353,209394
1631118301928,46650,248343,209394
1631118301938,46656,248357,209386
1631118301948,46658,248332,209408
1631118301958,46659,248337,209388
1631118301968,46650,248324,209427
1631118301978,46658,248336,209401
1631118301988,46655,248331,209377
1631118301998,46653,248351,209400
1631118302008,46650,248374,209403
1631118302018,46660,248346,209380
1631118302028,46647,248332,209402
1631118302038,46669,248367,209392
1631118302048,46659,248317,209391
1631118302058,46645,248309,209398
1631118302068,46649,248324,209383
1631118302078,46647,248364,209413
1631118302088,46652,248315,209383
1631118302098,46646,248317,209390
1631118302108,46651,248336,209387
1631118302118,46658,248349,209379
1631118302128,46660,248317,209383
1631118302138,46660,248328,209393
1631118302148,46661,248329,209416
1631118302158,46667,248350,209378
1631118302168,46661,248314,209394
1631118302178,46654,248335,209387
1631118302188,46659,248311,209388
1631118302198,46662,248330,209381
1631118302208,46673,248325,209374
1631118302218,46680,248327,209398
1631118302228,46673,248362,209375
1631118302238,46664,248355,209387
1631118302248,46673,248360,209399
1631118302258,46679,248321,209365
1631118302268,46684,248328,209378
1631118302278,46688,248363,209396
1631118302288,46696,248335,209369
1631118302298,46692,248359,209368
1631118302308,46702,248308,209367
1631118302318,46692,248345,209383
1631118302328,46696,248376,209372
1631118302338,46696,248332,209390
1631118302348,46697,248337,209373
1631118302358,46705,248366,209355
1631118302368,46714,248359,209372
1631118302378,46710,248380,209366
1631118302388,46711,248359,209378
1631118302398,46723,248375,209391
1631118302408,46715,248349,209409
1631118302418,46720,248393,209373
1631118302428,46724,248382,209381
1631118302438,46728,248379,209384
1631118302448,46726,248377,209370
1631118302458,46728,248355,209346
1631118302468,46723,248369,209374
1631118302478,46730,248389,209373
1631118302488,46739,248420,209380
1631118302498,46743,248392,209383
1631118302508,46739,248390,209368
1631118302518,46750,248403,209372
1631118302528,46758,248441,209382
1631118302538,46778,248446,209416
1631118302548,46778,248464,209430
1631118302558,46788,248481,209463
1631118302568,46786,248519,209477
1631118302578,46794,248542,209505
1631118302588,46786,248534,209496
1631118302598,46777,248522,209519
1631118302608,46788,248516,209496
1631118302618,46783,248488,209489
1631118302628,46774,248509,209481
1631118302638,46772,248494,209462
1631118302648,46760,248473,209498
1631118302658,46759,248484,209477
1631118302668,46760,248482,209478
1631118302678,46746,248511,209482
1631118302688,46751,248470,209489
1631118302698,46755,248449,209484
1631118302708,46747,248446,209481
1631118302718,46747,248463,209493
1631118302728,46746,248425,209478
1631118302738,46749,248468,209480
1631118302748,46738,248462,209480
1631118302758,46751,248491,209487
1631118302768,46740,248471,209471
1631118302778,46750,248445,209466
1631118302788,46745,248487,209441
1631118302798,46750,248472,209486
1631118302808,46745,248490,209464
1631118302818,46753,248459,209463
1631118302828,46742,248498,209489
1631118302838,46747,248482,209488
1631118302848,46752,248490,209479
1631118302858,46743,248443,209474
1631118302868,46748,248504,209455
1631118302878,46753,248473,209479
1631118302888,46756,248450,209464
1631118302898,46749,248469,209470
1631118302908,46751,248463,209478
1631118302918,46748,248446,209482
1631118302928,46757,248458,209473
1631118302938,46756,248445,209454
1631118302948,46752,248461,209458
1631118302958,46753,248467,209452
1631118302968,46747,248449,209448
1631118302978,46749,248461,209459
1631118302988,46756,248485,209450
1631118302998,46762,248491,209458
1631118303008,46758,248459,209458
1631118303018,46761,248489,209470
1631118303028,46765,248457,209460
1631118303038,46773,248429,209456
1631118303048,46772,248509,209479
1631118303058,46777,248453,209492
1631118303068,46771,248550,209474
1631118303078,46773,248518,209456
1631118303088,46773,248515,209487
1631118303098,46781,248533,209444
1631118303108,46784,248520,209448
1631118303118,46789,248501,209452
1631118303128,46785,248530,209440
1631118303138,46788,248492,209452
1631118303148,46798,248512,209450
1631118303158,46797,248483,209471
1631118303168,46805,248487,209443
1631118303178,46805,248521,209441
1631118303188,46817,248515,209448
1631118303198,46799,248551,209445
1631118303208,46801,248545,209454
1631118303218,46820,248565,209465
1631118303228,46809,248522,209446
1631118303238,46816,248536,209446
1631118303248,46819,248565,209448
1631118303258,46827,248560,209449
1631118303268,46820,248570,209426
1631118303278,46826,248527,209439
1631118303288,46827,248551,209423
1631118303298,46827,248548,209426
1631118303308,46835,248529,209447
1631118303318,46839,248514,209442
1631118303328,46843,248581,209437
1631118303338,46851,248534,209445
1631118303348,46847,248572,209453
1631118303358,46857,248603,209444
1631118303368,46866,248612,209482
1631118303378,46891,248582,209507
1631118303388,46893,248633,209529
1631118303398,46894,248654,209541
1631118303408,46897,248708,209545
1631118303418,46896,248692,209540
1631118303428,46895,248703,209588
1631118303438,46884,248647,209563
1631118303448,46878,248622,209566
1631118303458,46869,248636,209571
1631118303468,46861,248641,209553
1631118303478,46861,248637,209559
1631118303488,46856,248625,209545
1631118303498,46861,248648,209554
1631118303508,46861,248593,209534
1631118303518,46854,248644,209554
1631118303528,46857,248640,209560
1631118303538,46858,248654,209566
1631118303548,46846,248592,209508
1631118303558,46843,248637,209538
1631118303568,46853,248612,209538
1631118303578,46845,248598,209543
1631118303588,46840,248637,209523
1631118303598,46836,248616,209535
1631118303608,46836,248581,209536
1631118303618,46837,248618,209526
1631118303628,46840,248608,209551
1631118303638,46846,248629,209547
1631118303648,46843,248651,209560
1631118303658,46841,248636,209527
1631118303668,46847,248617,209535
1631118303678,46837,248629,209540
1631118303688,46841,248625,209553
1631118303698,46844,248622,209548
1631118303708,46845,248610,209531
1631118303718,46829,248620,209538
1631118303728,46836,248609,209531
1631118303738,46835,248629,209530
1631118303748,46836,248618,209528
1631118303758,46835,248618,209510
1631118303768,46840,248631,209522
1631118303778,46833,248643,209521
1631118303788,46837,248601,209514
1631118303798,46832,248568,209498
1631118303808,46832,248650,209532
1631118303818,46831,248611,209493
1631118303828,46841,248624,209520
1631118303838,46841,248668,209507
1631118303848,46835,248601,209514
1631118303858,46833,248629,209528
1631118303868,46832,248629,209523
1631118303878,46840,248642,209486
1631118303888,46838,248631,209500
1631118303898,46840,248636,209474
1631118303908,46848,248585,209490
1631118303918,46848,248626,209481
1631118303928,46850,248647,209470
1631118303938,46850,248628,209482
1631118303948,46848,248641,209486
1631118303958,46846,248639,209483
1631118303968,46854,248643,209489
1631118303978,46855,248633,209488
1631118303988,46866,248624,209466
1631118303998,46857,248671,209485
1631118304008,46873,248655,209488
1631118304018,46869,248671,209479
1631118304028,46875,248695,209491
1631118304038,46867,248665,209492
1631118304048,46864,248661,209488
1631118304058,46872,248706,209506
1631118304068,46866,248668,209494
1631118304078,46871,248680,209486
1631118304088,46882,248676,209499
1631118304098,46885,248685,209465
1631118304108,46874,248666,209470
1631118304118,46888,248649,209442
1631118304128,46876,248714,209473
1631118304138,46880,248664,209472
1631118304148,46894,248740,209484
1631118304158,46889,248713,209487
1631118304168,46901,248708,209472
1631118304178,46892,248682,209473
1631118304188,46896,248717,209520
1631118304198,46915,248743,209550
1631118304208,46933,248803,209560
1631118304218,46943,248811,209590
1631118304228,46934,248824,209621
1631118304238,46937,248845,209617
1631118304248,46930,248811,209600
1631118304258,46927,248769,209613
1631118304268,46916,248809,209616
1631118304278,46902,248767,209622
1631118304288,46897,248798,209602
1631118304298,46888,248794,209585
1631118304308,46896,248784,209564
1631118304318,46873,248733,209609
1631118304328,46877,248750,209585
1631118304338,46879,248751,209599
1631118304348,46873,248791,209600
1631118304358,46862,248744,209589
1631118304368,46852,248760,209577
1631118304378,46846,248740,209561
1631118304388,46844,248734,209551
1631118304398,46845,248731,209554
1631118304408,46832,248698,209575
1631118304418,46829,248718,209549
1631118304428,46821,248725,209541
1631118304438,46815,248745,209526
1631118304448,46817,248700,209536
1631118304458,46813,248718,209520
1631118304468,46800,248693,209520
1631118304478,46816,248711,209552
1631118304488,46809,248716,209516
1631118304498,46803,248693,209514
1631118304508,46799,248702,209510
1631118304518,46799,248689,209526
1631118304528,46787,248677,209503
1631118304538,46796,248719,209533
1631118304548,46784,248690,209517
1631118304558,46792,248698,209504
1631118304568,46784,248696,209503
1631118304578,46777,248694,209508
1631118304588,46779,248691,209508
1631118304598,46778,248661,209524
1631118304608,46779,248712,209481
1631118304618,46777,248660,209507
1631118304628,46772,248670,209454
1631118304638,46774,248689,209500
1631118304648,46781,248659,209471
1631118304658,46763,248645,209482
1631118304668,46765,248675,209474
1631118304678,46766,248672,209461
1631118304688,46768,248667,209472
1631118304698,46761,248639,209438
1631118304708,46762,248677,209463
1631118304718,46768,248670,209460
1631118304728,46769,248680,209433
1631118304738,46764,248704,209478
1631118304748,46758,248701,209445
1631118304758,46763,248669,209443
1631118304768,46760,248659,209436
1631118304778,46763,248674,209428
1631118304788,46763,248705,209441
1631118304798,46773,248662,209426
1631118304808,46765,248661,209429
1631118304818,46769,248677,209424
1631118304828,46768,248690,209432
1631118304838,46767,248675,209411
1631118304848,46759,248675,209427
1631118304858,46765,248666,209425
1631118304868,46770,248697,209439
1631118304878,46772,248675,209420
1631118304888,46773,248689,209421
1631118304898,46772,248667,209428
1631118304908,46775,248663,209414
1631118304918,46778,248712,209391
1631118304928,46778,248722,209424
1631118304938,46773,248716,209402
1631118304948,46779,248689,209404
1631118304958,46767,248704,209371
1631118304968,46775,248714,209402
1631118304978,46766,248699,209395
1631118304988,46775,248702,209384
1631118304998,46786,248720,209394
1631118305008,46787,248700,209392
1631118305018,46781,248724,209404
1631118305028,46801,248790,209414
1631118305038,46799,248797,209458
1631118305048,46817,248825,209485
1631118305058,46826,248816,209505
1631118305068,46827,248812,209546
1631118305078,46821,248847,209565
1631118305088,46815,248817,209549
1631118305098,46812,248873,209542
1631118305108,46800,248820,209548
1631118305118,46788,248788,209553
1631118305128,46777,248819,209525
1631118305138,46778,248776,209518
1631118305148,46761,248750,209545
1631118305158,46765,248796,209529
1631118305168,46753,248759,209518
1631118305178,46750,248765,209535
1631118305188,46736,248789,209521
1631118305198,46737,248743,209527
1631118305208,46716,248727,209512
1631118305218,46714,248726,209522
1631118305228,46704,248706,209539
1631118305238,46703,248730,209488
1631118305248,46697,248739,209511
1631118305258,46689,248696,209495
1631118305268,46680,248682,209472
1631118305278,46673,248694,209487
1631118305288,46665,248663,209485
1631118305298,46658,248682,209458
1631118305308,46647,248661,209468
1631118305318,46645,248624,209470
1631118305328,46654,248661,209467
1631118305338,46641,248645,209444
1631118305348,46640,248642,209451
1631118305358,46644,248608,209453
1631118305368,46647,248660,209442
1631118305378,46635,248638,209468
1631118305388,46633,248605,209477
1631118305398,46628,248603,209456
1631118305408,46626,248613,209441
1631118305418,46625,248628,209426
1631118305428,46622,248624,209443
1631118305438,46623,248597,209449
1631118305448,46636,248619,209423
1631118305458,46631,248602,209439
1631118305468,46622,248562,209435
1631118305478,46612,248608,209421
1631118305488,46618,248608,209408
1631118305498,46609,248618,209393
1631118305508,46612,248539,209429
1631118305518,46607,248576,209417
1631118305528,46615,248552,209403
1631118305538,46609,248552,209407
1631118305548,46605,248589,209395
1631118305558,46603,248577,209398
1631118305568,46602,248560,209390
1631118305578,46602,248562,209369
1631118305588,46608,248550,209405
1631118305598,46603,248543,209390
1631118305608,46597,248550,209376
1631118305618,46606,248594,209388
1631118305628,46611,248568,209381
1631118305638,46604,248527,209374
1631118305648,46613,248536,209371
1631118305658,46608,248560,209381
1631118305668,46612,248577,209371
1631118305678,46605,248557,209365
1631118305688,46611,248565,209360
1631118305698,46612,248536,209375
1631118305708,46614,248570,209388
1631118305718,46615,248562,209355
1631118305728,46610,248591,209366
1631118305738,46613,248580,209360
1631118305748,46622,248571,209336
1631118305758,46615,248564,209338
1631118305768,46607,248557,209363
1631118305778,46617,248539,209324
1631118305788,46626,248595,209371
1631118305798,46617,248552,209357
1631118305808,46615,248555,209372
1631118305818,46619,248591,209358
1631118305828,46631,248557,209344
1631118305838,46630,248564,209383
1631118305848,46631,248576,209354
1631118305858,46627,248624,209349
1631118305868,46635,248640,209360
1631118305878,46648,248631,209393
1631118305888,46655,248653,209394
1631118305898,46662,248629,209444
1631118305908,46675,248677,209457
1631118305918,46678,248649,209468
1631118305928,46664,248680,209474
1631118305938,46685,248718,209499
1631118305948,46665,248738,209507
1631118305958,46666,248689,209492
1631118305968,46651,248651,209489
1631118305978,46642,248679,209478
1631118305988,46632,248594,209487
1631118305998,46626,248637,209483
1631118306008,46628,248617,209474
1631118306018,46614,248604,209471
1631118306028,46601,248632,209488
1631118306038,46603,248595,209494
1631118306048,46597,248638,209479
1631118306058,46584,248602,209466
1631118306068,46587,248566,209472
1631118306078,46580,248619,209442
1631118306088,46572,248549,209459
1631118306098,46574,248568,209457
1631118306108,46567,248565,209449
1631118306118,46560,248562,209431
1631118306128,46552,248514,209431
1631118306138,46559,248553,209450
1631118306148,46552,248519,209417
1631118306158,46552,248567,209421
1631118306168,46542,248538,209431
1631118306178,46543,248549,209407
1631118306188,46548,248552,209452
1631118306198,46542,248506,209407
1631118306208,46533,248533,209433
1631118306218,46532,248501,209434
1631118306228,46527,248519,209415
1631118306238,46526,248499,209382
1631118306248,46527,248498,209398
1631118306258,46532,248483,209427
1631118306268,46530,248491,209431
1631118306278,46541,248500,209364
