timestamp,green,ir,red
1631118271005,74056,258221,298622
1631118271015,74054,258178,298586
1631118271025,74061,258198,298544
1631118271035,74046,258171,298577
1631118271045,74032,258146,298551
1631118271055,74044,258158,298568
1631118271065,74049,258163,298544
1631118271075,74024,258172,298551
1631118271085,74026,258149,298539
1631118271095,74015,258142,298581
1631118271105,74008,258171,298598
1631118271115,74015,258141,298580
1631118271125,74004,258151,298625
1631118271135,74010,258170,298588
1631118271145,73999,258144,298571
1631118271155,73981,258148,298580
1631118271165,73996,258145,298586
1631118271175,73991,258132,298592
1631118271185,73974,258148,298578
1631118271195,73998,258156,298610
1631118271205,73987,258139,298555
1631118271215,73995,258196,298630
1631118271225,73983,258136,298588
1631118271235,73975,258199,298631
1631118271245,73987,258166,298585
1631118271255,73985,258148,298601
1631118271265,73995,258197,298573
1631118271275,73984,258139,298608
1631118271285,73980,258153,298581
1631118271295,73983,258188,298616
1631118271305,73985,258168,298596
1631118271315,73973,258169,298589
1631118271325,73961,258138,298604
1631118271335,73966,258152,298605
1631118271345,73965,258155,298583
1631118271355,73982,258190,298580
1631118271365,73960,258150,298589
1631118271375,73971,258196,298606
1631118271385,73973,258135,298590
1631118271395,73983,258184,298590
1631118271405,73964,258184,298587
1631118271415,73974,258198,298616
1631118271425,73966,258164,298584
1631118271435,73974,258149,298590
1631118271445,73958,258169,298629
1631118271455,73964,258184,298590
1631118271465,73961,258186,298575
1631118271475,73947,258170,298594
1631118271485,73965,258171,298563
1631118271495,73949,258182,298645
1631118271505,73969,258209,298616
1631118271515,73966,258161,298599
1631118271525,73965,258207,298595
1631118271535,73951,258160,298571
1631118271545,73956,258212,298582
1631118271555,73956,258216,298594
1631118271565,73959,258200,298566
1631118271575,73957,258180,298580
1631118271585,73965,258200,298616
1631118271595,73960,258260,298572
1631118271605,73965,258223,298582
1631118271615,73957,258242,298591
1631118271625,73964,258266,298581
1631118271635,73966,258263,298617
1631118271645,73977,258240,298635
1631118271655,73973,258223,298607
1631118271665,73977,258249,298603
1631118271675,73981,258268,298627
1631118271685,73973,258275,298622
1631118271695,73975,258244,298636
1631118271705,73980,258264,298616
1631118271715,73972,258261,298596
1631118271725,73977,258250,298596
1631118271735,73972,258252,298579
1631118271745,73967,258211,298543
1631118271755,73950,258204,298536
1631118271765,73938,258187,298512
1631118271775,73927,258166,298507
1631118271785,73940,258178,298523
1631118271795,73915,258174,298503
1631118271805,73906,258170,298487
1631118271815,73911,258152,298502
1631118271825,73902,258172,298515
1631118271835,73907,258181,298501
1631118271845,73895,258193,298502
1631118271855,73899,258186,298524
1631118271865,73888,258147,298502
1631118271875,73881,258178,298505
1631118271885,73870,258148,298508
1631118271895,73871,258171,298526
1631118271905,73886,258148,298493
1631118271915,73855,258173,298506
1631118271925,73868,258193,298482
1631118271935,73849,258178,298494
1631118271945,73854,258149,298445
1631118271955,73850,258151,298513
1631118271965,73833,258173,298424
1631118271975,73835,258189,298437
1631118271985,73820,258130,298427
1631118271995,73826,258175,298408
1631118272005,73822,258133,298408
1631118272015,73807,258114,298345
1631118272025,73813,258106,298394
1631118272035,73805,258148,298417
1631118272045,73791,258142,298379
1631118272055,73794,258107,298383
1631118272065,73794,258136,298376
1631118272075,73788,258113,298370
1631118272085,73780,258133,298377
1631118272095,73770,258136,298410
1631118272105,73792,258118,298380
1631118272115,73784,258112,298410
1631118272125,73766,258145,298398
1631118272135,73770,258128,298393
1631118272145,73797,258142,298414
1631118272155,73779,258122,298392
1631118272165,73784,258113,298403
1631118272175,73776,258131,298405
1631118272185,73769,258126,298408
1631118272195,73780,258108,298439
1631118272205,73793,258118,298405
1631118272215,73779,258144,298409
1631118272225,73781,258144,298456
1631118272235,73792,258151,298455
1631118272245,73791,258166,298472
1631118272255,73799,258139,298473
1631118272265,73789,258195,298484
1631118272275,73801,258179,298496
1631118272285,73798,258210,298506
1631118272295,73817,258174,298500
1631118272305,73806,258204,298518
1631118272315,73820,258207,298519
1631118272325,73822,258199,298520
1631118272335,73829,258218,298555
1631118272345,73803,258212,298490
1631118272355,73805,258191,298528
1631118272365,73809,258233,298544
1631118272375,73813,258201,298534
1631118272385,73808,258229,298523
1631118272395,73827,258225,298543
1631118272405,73823,258224,298544
1631118272415,73828,258223,298542
1631118272425,73830,258259,298570
1631118272435,73830,258217,298547
1631118272445,73825,258243,298561
1631118272455,73832,258269,298523
1631118272465,73838,258281,298571
1631118272475,73822,258258,298532
1631118272485,73831,258272,298526
1631118272495,73816,258238,298498
1631118272505,73816,258217,298460
1631118272515,73816,258192,298466
1631118272525,73801,258163,298435
1631118272535,73797,258178,298441
1631118272545,73783,258161,298423
1631118272555,73787,258155,298420
1631118272565,73782,258123,298408
1631118272575,73772,258154,298420
1631118272585,73759,258127,298383
1631118272595,73752,258118,298449
1631118272605,73752,258130,298409
1631118272615,73759,258145,298414
1631118272625,73732,258132,298430
1631118272635,73732,258157,298407
1631118272645,73733,258130,298425
1631118272655,73715,258089,298419
1631118272665,73708,258103,298413
1631118272675,73701,258093,298411
1631118272685,73687,258101,298399
1631118272695,73694,258084,298410
1631118272705,73694,258109,298405
1631118272715,73693,258096,298383
1631118272725,73690,258063,298399
1631118272735,73670,258072,298379
1631118272745,73658,258082,298377
1631118272755,73663,258050,298377
1631118272765,73643,258050,298361
1631118272775,73623,258030,298325
1631118272785,73629,258018,298298
1631118272795,73624,258024,298334
1631118272805,73623,258021,298295
1631118272815,73601,257997,298294
1631118272825,73609,258006,298274
1631118272835,73604,257956,298219
1631118272845,73585,257954,298249
1631118272855,73579,257972,298207
1631118272865,73569,257945,298199
1631118272875,73580,257945,298213
1631118272885,73576,257944,298182
1631118272895,73544,257906,298187
1631118272905,73562,257907,298197
1631118272915,73554,257931,298160
1631118272925,73541,257899,298168
1631118272935,73536,257883,298140
1631118272945,73544,257891,298122
1631118272955,73538,257897,298135
1631118272965,73537,257900,298152
1631118272975,73546,257925,298143
1631118272985,73549,257952,298186
1631118272995,73541,257870,298175
1631118273005,73558,257939,298180
1631118273015,73539,257890,298205
1631118273025,73551,257960,298197
1631118273035,73532,257913,298211
1631118273045,73553,257938,298202
1631118273055,73544,257935,298211
1631118273065,73556,257938,298248
1631118273075,73560,257987,298247
1631118273085,73555,257998,298248
1631118273095,73539,257962,298252
1631118273105,73534,257972,298257
1631118273115,73546,257975,298210
1631118273125,73534,257956,298257
1631118273135,73533,257945,298191
1631118273145,73543,257967,298230
1631118273155,73530,257957,298232
1631118273165,73529,257965,298179
1631118273175,73527,257937,298192
1631118273185,73529,257918,298161
1631118273195,73534,257943,298194
1631118273205,73530,257966,298165
1631118273215,73516,257942,298165
1631118273225,73532,257932,298134
1631118273235,73534,257922,298174
1631118273245,73528,257934,298156
1631118273255,73527,257962,298162
1631118273265,73517,257945,298129
1631118273275,73532,257899,298112
1631118273285,73520,257909,298135
1631118273295,73526,257907,298148
1631118273305,73504,257889,298082
1631118273315,73519,257921,298090
1631118273325,73495,257873,298113
1631118273335,73490,257856,298104
1631118273345,73483,257889,298100
1631118273355,73471,257893,298144
1631118273365,73484,257884,298132
1631118273375,73455,257902,298127
1631118273385,73469,257908,298170
1631118273395,73467,257911,298174
1631118273405,73441,257912,298152
1631118273415,73469,257904,298182
1631118273425,73445,257937,298180
1631118273435,73440,257888,298169
1631118273445,73441,257914,298191
1631118273455,73425,257857,298159
1631118273465,73417,257878,298161
1631118273475,73410,257824,298142
1631118273485,73378,257816,298125
1631118273495,73383,257831,298073
1631118273505,73373,257838,298083
1631118273515,73374,257791,298088
1631118273525,73357,257795,298091
1631118273535,73362,257786,298043
1631118273545,73372,257790,298075
1631118273555,73355,257773,298095
1631118273565,73362,257743,298088
1631118273575,73339,257764,298037
1631118273585,73334,257725,298051
1631118273595,73331,257711,298092
1631118273605,73343,257669,298030
1631118273615,73324,257639,298069
1631118273625,73329,257674,298061
1631118273635,73330,257641,298103
1631118273645,73320,257633,298108
1631118273655,73324,257645,298093
1631118273665,73316,257678,298105
1631118273675,73324,257619,298124
1631118273685,73327,257619,298091
1631118273695,73342,257664,298132
1631118273705,73323,257647,298174
1631118273715,73354,257683,298212
1631118273725,73342,257658,298173
1631118273735,73345,257688,298279
1631118273745,73357,257775,298299
1631118273755,73379,257775,298357
1631118273765,73369,257802,298430
1631118273775,73407,257861,298449
1631118273785,73421,257844,298518
1631118273795,73441,257902,298579
1631118273805,73434,257939,298635
1631118273815,73444,257991,298683
1631118273825,73462,258007,298745
1631118273835,73462,257980,298788
1631118273845,73485,258053,298822
1631118273855,73489,258050,298861
1631118273865,73484,258108,298890
1631118273875,73504,258093,298899
1631118273885,73485,258103,298949
1631118273895,73482,258148,298917
1631118273905,73485,258142,298950
1631118273915,73494,258142,298940
1631118273925,73488,258137,298953
1631118273935,73492,258132,298969
1631118273945,73491,258109,298952
1631118273955,73498,258100,298937
1631118273965,73487,258125,298938
1631118273975,73475,258127,298898
1631118273985,73473,258088,298888
1631118273995,73468,258096,298883
1631118274005,73457,258079,298867
1631118274015,73465,258086,298847
1631118274025,73474,258047,298828
1631118274035,73463,258043,298816
1631118274045,73470,258038,298808
1631118274055,73473,258047,298816
1631118274065,73447,258027,298763
1631118274075,73439,257995,298749
1631118274085,73448,257968,298758
1631118274095,73444,257977,298752
1631118274105,73428,257975,298737
1631118274115,73419,257993,298766
1631118274125,73429,257968,298784
1631118274135,73403,257972,298826
1631118274145,73399,257984,298804
1631118274155,73407,257996,298887
1631118274165,73409,258036,298878
1631118274175,73411,258033,298864
1631118274185,73416,258028,298938
1631118274195,73415,258080,298958
1631118274205,73418,258071,298943
1631118274215,73395,258063,298995
1631118274225,73413,258085,299014
1631118274235,73409,258092,299006
1631118274245,73404,258091,298994
1631118274255,73411,258114,299054
1631118274265,73421,258112,299066
1631118274275,73422,258154,299103
1631118274285,73423,258153,299114
1631118274295,73418,258178,299092
1631118274305,73422,258177,299103
1631118274315,73410,258164,299103
1631118274325,73415,258150,299127
1631118274335,73421,258165,299081
1631118274345,73418,258158,299082
1631118274355,73404,258191,299104
1631118274365,73410,258156,299094
1631118274375,73406,258161,299091
1631118274385,73400,258160,299106
1631118274395,73408,258177,299126
1631118274405,73415,258158,299119
1631118274415,73419,258176,299090
1631118274425,73417,258184,299101
1631118274435,73419,258145,299097
1631118274445,73418,258149,299121
1631118274455,73424,258177,299105
1631118274465,73425,258174,299102
1631118274475,73424,258216,299160
1631118274485,73437,258232,299228
1631118274495,73457,258297,299246
1631118274505,73459,258319,299290
1631118274515,73488,258291,299330
1631118274525,73498,258327,299337
1631118274535,73482,258356,299356
1631118274545,73480,258381,299382
1631118274555,73486,258383,299426
1631118274565,73503,258418,299437
1631118274575,73496,258427,299434
1631118274585,73514,258469,299492
1631118274595,73517,258465,299503
1631118274605,73532,258497,299504
1631118274615,73527,258477,299508
1631118274625,73521,258487,299515
1631118274635,73521,258475,299549
1631118274645,73529,258486,299509
1631118274655,73512,258475,299529
1631118274665,73532,258471,299512
1631118274675,73540,258463,299499
1631118274685,73515,258471,299485
1631118274695,73534,258456,299461
1631118274705,73534,258484,299472
1631118274715,73527,258437,299481
1631118274725,73535,258451,299475
1631118274735,73530,258449,299434
1631118274745,73538,258475,299429
1631118274755,73523,258463,299413
1631118274765,73540,258427,299399
1631118274775,73533,258452,299402
1631118274785,73539,258428,299432
1631118274795,73537,258485,299462
1631118274805,73552,258526,299492
1631118274815,73566,258494,299500
1631118274825,73561,258539,299510
1631118274835,73565,258569,299538
1631118274845,73577,258567,299550
1631118274855,73593,258573,299586
1631118274865,73581,258567,299605
1631118274875,73590,258645,299669
1631118274885,73588,258640,299709
1631118274895,73602,258669,299720
1631118274905,73602,258716,299779
1631118274915,73620,258728,299811
1631118274925,73612,258741,299842
1631118274935,73631,258773,299855
1631118274945,73630,258799,299892
1631118274955,73623,258808,299894
1631118274965,73621,258781,299898
1631118274975,73628,258784,299893
1631118274985,73604,258774,299881
1631118274995,73616,258747,299837
1631118275005,73615,258780,299783
1631118275015,73610,258747,299824
1631118275025,73593,258708,299772
1631118275035,73590,258660,299732
1631118275045,73573,258588,299709
1631118275055,73572,258579,299590
1631118275065,73542,258531,299535
1631118275075,73543,258499,299509
1631118275085,73527,258476,299437
1631118275095,73510,258421,299434
1631118275105,73495,258420,299386
1631118275115,73496,258418,299378
1631118275125,73485,258398,299377
1631118275135,73480,258403,299380
1631118275145,73495,258328,299327
1631118275155,73483,258344,299341
1631118275165,73480,258326,299271
1631118275175,73480,258331,299284
1631118275185,73466,258304,299238
1631118275195,73479,258318,299251
1631118275205,73469,258323,299244
1631118275215,73488,258319,299241
1631118275225,73478,258294,299269
1631118275235,73484,258335,299256
1631118275245,73484,258355,299280
1631118275255,73476,258365,299255
1631118275265,73466,258335,299231
1631118275275,73473,258354,299193
1631118275285,73469,258322,299184
1631118275295,73464,258359,299189
1631118275305,73475,258364,299159
1631118275315,73459,258327,299143
1631118275325,73480,258322,299117
1631118275335,73486,258312,299145
1631118275345,73469,258342,299132
1631118275355,73469,258282,299097
1631118275365,73477,258310,299063
1631118275375,73480,258245,299009
1631118275385,73467,258225,298980
1631118275395,73472,258200,298968
1631118275405,73471,258225,298951
1631118275415,73474,258186,298945
1631118275425,73463,258206,298914
1631118275435,73467,258191,298910
1631118275445,73476,258176,298903
1631118275455,73462,258206,298912
1631118275465,73474,258209,298915
1631118275475,73490,258232,298954
1631118275485,73509,258224,298948
1631118275495,73502,258234,298942
1631118275505,73504,258220,298975
1631118275515,73510,258232,299020
1631118275525,73523,258262,299013
1631118275535,73532,258287,299048
1631118275545,73514,258282,298997
1631118275555,73532,258259,298981
1631118275565,73532,258265,298965
1631118275575,73520,258259,298958
1631118275585,73518,258255,298936
1631118275595,73515,258222,298897
1631118275605,73492,258220,298880
1631118275615,73472,258190,298833
1631118275625,73463,258141,298789
1631118275635,73444,258174,298701
1631118275645,73435,258143,298668
1631118275655,73408,258152,298597
1631118275665,73388,258055,298498
1631118275675,73353,258041,298486
1631118275685,73338,258035,298424
1631118275695,73303,257954,298336
1631118275705,73290,257939,298281
1631118275715,73263,257873,298168
1631118275725,73246,257822,298155
1631118275735,73223,257734,298081
1631118275745,73196,257729,298034
1631118275755,73189,257690,298008
1631118275765,73173,257687,297998
1631118275775,73179,257682,298009
1631118275785,73180,257635,298001
1631118275795,73164,257627,298021
1631118275805,73169,257603,298003
1631118275815,73177,257581,297961
1631118275825,73146,257596,297934
1631118275835,73161,257590,297951
1631118275845,73168,257569,297973
1631118275855,73154,257583,297946
1631118275865,73169,257584,297970
1631118275875,73154,257593,298005
1631118275885,73163,257568,297977
1631118275895,73167,257585,297972
1631118275905,73158,257575,298013
1631118275915,73169,257642,298034
1631118275925,73178,257652,298039
1631118275935,73203,257678,298088
1631118275945,73213,257675,298116
1631118275955,73212,257693,298148
1631118275965,73229,257746,298150
1631118275975,73225,257738,298177
1631118275985,73258,257757,298229
1631118275995,73255,257751,298236
1631118276005,73272,257792,298259
1631118276015,73286,257816,298275
1631118276025,73290,257785,298295
1631118276035,73297,257839,298293
1631118276045,73299,257841,298314
1631118276055,73304,257860,298365
1631118276065,73311,257903,298351
1631118276075,73305,257867,298374
1631118276085,73314,257903,298375
1631118276095,73321,257875,298400
1631118276105,73306,257897,298356
1631118276115,73322,257880,298317
1631118276125,73306,257838,298316
1631118276135,73293,257858,298247
1631118276145,73291,257835,298257
1631118276155,73287,257843,298225
1631118276165,73273,257801,298133
1631118276175,73251,257749,298073
1631118276185,73252,257742,298053
1631118276195,73246,257715,298007
1631118276205,73232,257689,297926
1631118276215,73212,257665,297878
1631118276225,73188,257620,297778
1631118276235,73189,257569,297700
1631118276245,73177,257540,297670
1631118276255,73165,257502,297575
1631118276265,73143,257445,297543
1631118276275,73147,257432,297484
1631118276285,73148,257375,297407
1631118276295,73138,257359,297400
1631118276305,73142,257346,297349
1631118276315,73130,257357,297327
1631118276325,73118,257325,297276
1631118276335,73116,257286,297273
1631118276345,73128,257262,297227
1631118276355,73114,257263,297220
1631118276365,73113,257233,297229
1631118276375,73092,257246,297232
1631118276385,73108,257258,297274
1631118276395,73112,257271,297284
1631118276405,73114,257278,297294
1631118276415,73118,257323,297365
1631118276425,73122,257304,297389
1631118276435,73135,257375,297419
1631118276445,73136,257393,297458
1631118276455,73146,257355,297508
1631118276465,73153,257413,297578
1631118276475,73165,257448,297602
1631118276485,73169,257478,297626
1631118276495,73183,257494,297673
1631118276505,73181,257494,297706
1631118276515,73180,257487,297694
1631118276525,73179,257476,297725
1631118276535,73183,257502,297719
1631118276545,73185,257474,297747
1631118276555,73170,257496,297710
1631118276565,73164,257446,297710
1631118276575,73154,257485,297708
1631118276585,73146,257428,297715
1631118276595,73144,257447,297654
1631118276605,73150,257402,297643
1631118276615,73133,257331,297598
1631118276625,73142,257327,297554
1631118276635,73136,257334,297492
1631118276645,73112,257277,297441
1631118276655,73105,257234,297396
1631118276665,73104,257175,297357
1631118276675,73087,257156,297308
1631118276685,73087,257135,297264
1631118276695,73073,257105,297171
1631118276705,73072,257107,297199
1631118276715,73055,257066,297143
1631118276725,73045,257051,297110
1631118276735,73040,257032,297093
1631118276745,73027,257072,297043
1631118276755,73019,257032,296992
1631118276765,73027,257028,296963
1631118276775,73019,257014,296945
1631118276785,73015,257040,296914
1631118276795,73019,257041,296912
1631118276805,73013,257071,296908
1631118276815,73004,257069,296909
1631118276825,73017,257093,296914
1631118276835,73006,257115,296891
1631118276845,73010,257090,296847
1631118276855,73000,257034,296829
1631118276865,72990,257038,296791
1631118276875,73002,256991,296766
1631118276885,72983,256960,296685
1631118276895,72967,256917,296603
1631118276905,72959,256795,296531
1631118276915,72965,256736,296455
1631118276925,72974,256696,296383
1631118276935,72969,256637,296358
1631118276945,72963,256552,296344
1631118276955,72976,256535,296294
1631118276965,72982,256512,296305
1631118276975,72964,256483,296250
1631118276985,72970,256489,296276
1631118276995,73001,256476,296239
1631118277005,72986,256440,296269
1631118277015,72983,256457,296273
1631118277025,73009,256478,296311
1631118277035,73010,256501,296346
1631118277045,73018,256522,296388
1631118277055,73024,256565,296405
1631118277065,73040,256601,296450
1631118277075,73045,256564,296472
1631118277085,73061,256581,296513
1631118277095,73081,256589,296480
1631118277105,73070,256589,296523
1631118277115,73083,256607,296530
1631118277125,73072,256624,296545
1631118277135,73085,256618,296564
1631118277145,73081,256611,296606
1631118277155,73096,256656,296640
1631118277165,73099,256650,296665
1631118277175,73104,256685,296713
1631118277185,73123,256689,296759
1631118277195,73119,256730,296788
1631118277205,73133,256718,296819
1631118277215,73125,256733,296824
1631118277225,73136,256787,296869
1631118277235,73134,256798,296857
1631118277245,73135,256792,296934
1631118277255,73152,256833,296899
1631118277265,73148,256841,296924
1631118277275,73166,256850,296936
1631118277285,73154,256882,296967
1631118277295,73170,256842,296951
1631118277305,73151,256899,296945
1631118277315,73165,256878,296929
1631118277325,73180,256871,296928
1631118277335,73175,256835,296932
1631118277345,73165,256881,296900
1631118277355,73168,256885,296921
1631118277365,73173,256930,296935
1631118277375,73170,256910,296934
1631118277385,73175,256917,296945
1631118277395,73191,256920,296959
1631118277405,73194,256924,296941
1631118277415,73197,256947,296912
1631118277425,73196,256936,296979
1631118277435,73224,256955,296953
1631118277445,73213,256969,296982
1631118277455,73240,256984,297024
1631118277465,73219,257005,297004
1631118277475,73232,257010,297057
1631118277485,73262,257047,297068
1631118277495,73259,257061,297067
1631118277505,73271,257075,297097
1631118277515,73291,257070,297084
1631118277525,73284,257145,297150
1631118277535,73302,257138,297171
1631118277545,73308,257158,297211
1631118277555,73328,257227,297199
1631118277565,73331,257211,297298
1631118277575,73341,257257,297279
1631118277585,73362,257260,297307
1631118277595,73364,257295,297391
1631118277605,73379,257310,297374
1631118277615,73400,257348,297414
1631118277625,73409,257332,297441
1631118277635,73428,257422,297446
1631118277645,73431,257414,297526
1631118277655,73437,257406,297526
1631118277665,73443,257479,297542
1631118277675,73474,257492,297559
1631118277685,73468,257506,297563
1631118277695,73467,257519,297589
1631118277705,73470,257501,297617
1631118277715,73482,257500,297637
1631118277725,73486,257562,297650
1631118277735,73501,257557,297647
1631118277745,73494,257566,297631
1631118277755,73511,257554,297642
1631118277765,73503,257539,297638
1631118277775,73513,257569,297594
1631118277785,73502,257568,297622
1631118277795,73524,257568,297602
1631118277805,73519,257591,297609
1631118277815,73511,257516,297563
1631118277825,73511,257550,297581
1631118277835,73516,257522,297532
1631118277845,73512,257508,297548
1631118277855,73498,257508,297528
1631118277865,73505,257495,297537
1631118277875,73500,257498,297520
1631118277885,73499,257497,297523
1631118277895,73510,257478,297546
1631118277905,73515,257509,297550
1631118277915,73511,257510,297542
1631118277925,73529,257519,297581
1631118277935,73535,257567,297627
1631118277945,73527,257587,297635
1631118277955,73522,257589,297674
1631118277965,73531,257558,297654
1631118277975,73541,257608,297690
1631118277985,73559,257641,297749
1631118277995,73546,257622,297707
1631118278005,73563,257644,297744
1631118278015,73569,257613,297795
1631118278025,73575,257666,297824
1631118278035,73574,257658,297827
1631118278045,73576,257678,297830
1631118278055,73577,257700,297834
1631118278065,73580,257678,297817
1631118278075,73592,257669,297827
1631118278085,73582,257663,297811
1631118278095,73589,257643,297809
1631118278105,73571,257654,297791
1631118278115,73589,257683,297815
1631118278125,73585,257681,297786
1631118278135,73585,257665,297795
1631118278145,73589,257658,297792
1631118278155,73580,257655,297760
1631118278165,73587,257588,297741
1631118278175,73578,257602,297721
1631118278185,73585,257595,297723
1631118278195,73573,257571,297727
1631118278205,73579,257567,297678
1631118278215,73569,257565,297697
1631118278225,73579,257566,297660
1631118278235,73585,257579,297702
1631118278245,73578,257572,297730
1631118278255,73579,257574,297661
1631118278265,73578,257574,297694
1631118278275,73575,257578,297672
1631118278285,73582,257564,297647
1631118278295,73587,257563,297667
1631118278305,73598,257578,297698
1631118278315,73601,257589,297684
1631118278325,73598,257591,297691
1631118278335,73595,257630,297726
1631118278345,73609,257590,297723
1631118278355,73617,257633,297776
1631118278365,73617,257621,297824
1631118278375,73628,257632,297788
1631118278385,73640,257649,297812
1631118278395,73649,257717,297843
1631118278405,73638,257690,297861
1631118278415,73656,257703,297846
1631118278425,73664,257717,297853
1631118278435,73675,257763,297897
1631118278445,73673,257753,297909
1631118278455,73681,257739,297925
1631118278465,73671,257759,297905
1631118278475,73692,257767,297938
1631118278485,73688,257752,297912
1631118278495,73696,257771,297919
1631118278505,73686,257746,297925
1631118278515,73692,257748,297933
1631118278525,73692,257735,297899
1631118278535,73700,257724,297907
1631118278545,73700,257709,297880
1631118278555,73687,257710,297877
1631118278565,73694,257702,297836
1631118278575,73710,257681,297803
1631118278585,73680,257656,297762
1631118278595,73677,257625,297716
1631118278605,73688,257621,297676
1631118278615,73673,257593,297657
1631118278625,73664,257588,297674
1631118278635,73657,257550,297646
1631118278645,73659,257541,297645
1631118278655,73646,257535,297621
1631118278665,73638,257545,297627
1631118278675,73647,257553,297646
1631118278685,73644,257574,297646
1631118278695,73649,257543,297663
1631118278705,73658,257544,297661
1631118278715,73675,257558,297656
1631118278725,73658,257600,297699
1631118278735,73660,257580,297680
1631118278745,73655,257558,297701
1631118278755,73645,257566,297694
1631118278765,73647,257594,297710
1631118278775,73648,257563,297747
1631118278785,73665,257547,297704
1631118278795,73656,257585,297749
1631118278805,73668,257590,297741
1631118278815,73644,257568,297787
1631118278825,73662,257586,297762
1631118278835,73656,257625,297787
1631118278845,73657,257619,297777
1631118278855,73661,257625,297772
1631118278865,73667,257600,297766
1631118278875,73669,257619,297781
1631118278885,73660,257582,297748
1631118278895,73654,257568,297740
1631118278905,73651,257574,297727
1631118278915,73649,257559,297718
1631118278925,73646,257551,297758
1631118278935,73661,257520,297703
1631118278945,73653,257555,297698
1631118278955,73655,257499,297698
1631118278965,73658,257513,297680
1631118278975,73652,257511,297653
1631118278985,73656,257515,297662
1631118278995,73632,257488,297658
1631118279005,73651,257505,297673
1631118279015,73639,257497,297643
1631118279025,73641,257475,297630
1631118279035,73638,257479,297635
1631118279045,73659,257508,297635
1631118279055,73638,257505,297651
1631118279065,73654,257493,297633
1631118279075,73654,257461,297611
1631118279085,73641,257492,297630
1631118279095,73646,257511,297609
1631118279105,73657,257476,297599
1631118279115,73650,257491,297583
1631118279125,73654,257471,297560
1631118279135,73650,257483,297562
1631118279145,73629,257472,297567
1631118279155,73637,257505,297543
1631118279165,73635,257488,297517
1631118279175,73641,257482,297548
1631118279185,73642,257458,297515
1631118279195,73650,257490,297507
1631118279205,73640,257480,297485
1631118279215,73652,257471,297486
1631118279225,73643,257518,297499
1631118279235,73647,257490,297484
1631118279245,73631,257464,297473
1631118279255,73636,257461,297451
1631118279265,73645,257504,297412
1631118279275,73641,257438,297403
1631118279285,73631,257417,297369
1631118279295,73626,257440,297364
1631118279305,73629,257455,297328
1631118279315,73617,257429,297346
1631118279325,73617,257440,297292
1631118279335,73615,257443,297302
1631118279345,73607,257405,297248
1631118279355,73619,257416,297265
1631118279365,73623,257378,297226
1631118279375,73604,257400,297174
1631118279385,73613,257342,297189
1631118279395,73587,257353,297160
1631118279405,73591,257337,297202
1631118279415,73596,257348,297173
1631118279425,73612,257339,297169
1631118279435,73599,257346,297158
1631118279445,73589,257327,297171
1631118279455,73582,257319,297163
1631118279465,73591,257318,297167
1631118279475,73582,257288,297153
1631118279485,73581,257312,297166
1631118279495,73559,257347,297152
1631118279505,73569,257323,297137
1631118279515,73557,257290,297130
1631118279525,73554,257275,297123
1631118279535,73548,257299,297111
1631118279545,73552,257258,297081
1631118279555,73553,257261,297087
1631118279565,73551,257282,297079
1631118279575,73547,257256,297103
1631118279585,73548,257278,297087
1631118279595,73552,257287,297104
1631118279605,73530,257251,297058
1631118279615,73549,257265,297090
1631118279625,73552,257224,297063
1631118279635,73542,257261,297067
1631118279645,73549,257272,297058
1631118279655,73545,257238,297057
1631118279665,73539,257266,297038
1631118279675,73547,257226,297058
1631118279685,73535,257253,297081
1631118279695,73555,257225,297038
1631118279705,73545,257232,297015
1631118279715,73548,257213,297013
1631118279725,73538,257191,297027
1631118279735,73547,257244,297045
1631118279745,73544,257210,297010
1631118279755,73547,257212,297027
1631118279765,73545,257281,296986
1631118279775,73549,257241,297010
1631118279785,73543,257231,297009
1631118279795,73549,257193,297009
1631118279805,73565,257235,297025
1631118279815,73564,257195,297069
1631118279825,73553,257248,297056
1631118279835,73565,257237,297063
1631118279845,73551,257241,297037
1631118279855,73575,257225,297041
1631118279865,73567,257235,297067
1631118279875,73586,257240,297096
1631118279885,73568,257269,297069
1631118279895,73561,257221,297059
1631118279905,73572,257250,297042
1631118279915,73582,257306,297064
1631118279925,73581,257217,297031
1631118279935,73574,257244,297024
1631118279945,73583,257235,297042
1631118279955,73579,257282,297051
1631118279965,73581,257224,297011
1631118279975,73583,257250,297042
1631118279985,73591,257256,297016
1631118279995,73586,257229,297004
1631118280005,73591,257226,297004
1631118280015,73598,257234,297018
1631118280025,73595,257225,297010
1631118280035,73593,257218,297002
1631118280045,73592,257232,296992
1631118280055,73600,257238,297006
1631118280065,73595,257226,297000
1631118280075,73596,257215,296967
1631118280085,73593,257252,297013
1631118280095,73597,257227,296954
1631118280105,73607,257272,296991
1631118280115,73600,257237,297008
1631118280125,73594,257266,297002
1631118280135,73598,257244,296995
1631118280145,73608,257262,296995
1631118280155,73603,257249,296965
1631118280165,73606,257266,296947
1631118280175,73587,257221,296953
1631118280185,73615,257180,296922
1631118280195,73595,257204,296905
1631118280205,73591,257195,296880
1631118280215,73600,257181,296885
1631118280225,73582,257150,296869
1631118280235,73586,257174,296895
1631118280245,73578,257167,296908
1631118280255,73579,257115,296931
1631118280265,73574,257138,296908
1631118280275,73568,257165,296908
1631118280285,73568,257168,296905
1631118280295,73565,257165,296892
1631118280305,73557,257118,296897
1631118280315,73556,257166,296926
1631118280325,73561,257140,296926
1631118280335,73568,257146,296904
1631118280345,73554,257120,296897
1631118280355,73560,257147,296856
1631118280365,73551,257116,296882
1631118280375,73548,257135,296886
1631118280385,73563,257108,296900
1631118280395,73548,257107,296889
1631118280405,73554,257107,296858
1631118280415,73558,257108,296891
1631118280425,73553,257117,296896
1631118280435,73550,257095,296883
1631118280445,73535,257104,296865
1631118280455,73548,257158,296892
1631118280465,73543,257103,296850
1631118280475,73529,257099,296878
1631118280485,73551,257117,296870
1631118280495,73542,257100,296868
1631118280505,73542,257079,296855
1631118280515,73534,257056,296833
1631118280525,73536,257067,296851
1631118280535,73522,257075,296837
1631118280545,73527,257066,296847
1631118280555,73537,257098,296834
1631118280565,73538,257053,296847
1631118280575,73536,257075,296829
1631118280585,73535,257083,296833
1631118280595,73559,257064,296841
1631118280605,73548,257066,296866
1631118280615,73544,257104,296874
1631118280625,73537,257086,296864
1631118280635,73541,257089,296868
1631118280645,73558,257092,296909
1631118280655,73571,257085,296910
1631118280665,73567,257085,296930
1631118280675,73558,257114,296937
1631118280685,73570,257092,296936
1631118280695,73572,257088,296957
1631118280705,73571,257127,296990
1631118280715,73581,257117,296985
1631118280725,73581,257099,297013
1631118280735,73602,257174,297019
1631118280745,73589,257104,297053
1631118280755,73602,257167,297054
1631118280765,73598,257152,297089
1631118280775,73606,257145,297068
1631118280785,73614,257173,297056
1631118280795,73622,257161,297130
1631118280805,73627,257167,297113
1631118280815,73630,257155,297141
1631118280825,73629,257221,297142
1631118280835,73625,257179,297167
1631118280845,73632,257160,297169
1631118280855,73620,257175,297172
1631118280865,73641,257211,297159
1631118280875,73636,257213,297180
1631118280885,73649,257180,297207
1631118280895,73653,257211,297176
1631118280905,73651,257235,297163
1631118280915,73647,257241,297188
1631118280925,73652,257195,297176
1631118280935,73653,257230,297164
1631118280945,73640,257218,297153
1631118280955,73646,257224,297164
1631118280965,73648,257198,297140
1631118280975,73648,257240,297164
1631118280985,73664,257228,297149
1631118280995,73656,257237,297123
1631118281005,73661,257215,297139
1631118281015,73654,257234,297125
1631118281025,73660,257234,297125
1631118281035,73648,257163,297123
1631118281045,73654,257186,297075
1631118281055,73644,257181,297069
1631118281065,73645,257181,297038
1631118281075,73644,257165,297092
1631118281085,73642,257166,297087
1631118281095,73633,257143,297090
1631118281105,73633,257131,297100
1631118281115,73626,257161,297117
1631118281125,73629,257155,297126
1631118281135,73644,257171,297132
1631118281145,73633,257169,297139
1631118281155,73631,257202,297142
1631118281165,73635,257182,297169
1631118281175,73634,257207,297166
1631118281185,73624,257201,297173
1631118281195,73618,257183,297186
1631118281205,73628,257176,297197
1631118281215,73615,257178,297184
1631118281225,73633,257179,297192
1631118281235,73623,257193,297209
1631118281245,73622,257194,297205
1631118281255,73625,257189,297223
1631118281265,73620,257226,297194
1631118281275,73616,257170,297206
1631118281285,73635,257180,297210
1631118281295,73626,257190,297261
1631118281305,73630,257178,297217
1631118281315,73634,257153,297184
1631118281325,73624,257177,297218
1631118281335,73629,257178,297206
1631118281345,73615,257176,297196
1631118281355,73610,257157,297191
1631118281365,73604,257188,297173
1631118281375,73618,257138,297192
1631118281385,73622,257192,297202
1631118281395,73612,257176,297191
1631118281405,73615,257198,297205
1631118281415,73607,257174,297224
1631118281425,73616,257175,297193
1631118281435,73634,257210,297216
1631118281445,73632,257178,297186
1631118281455,73616,257181,297240
1631118281465,73624,257229,297224
1631118281475,73611,257207,297195
1631118281485,73624,257231,297218
1631118281495,73613,257168,297207
1631118281505,73611,257197,297225
1631118281515,73620,257182,297203
1631118281525,73619,257185,297175
1631118281535,73625,257194,297227
1631118281545,73607,257196,297175
1631118281555,73620,257196,297204
1631118281565,73608,257181,297180
1631118281575,73591,257159,297207
1631118281585,73610,257218,297167
1631118281595,73611,257208,297142
1631118281605,73611,257200,297166
1631118281615,73616,257156,297186
1631118281625,73623,257190,297207
1631118281635,73622,257207,297215
1631118281645,73627,257188,297199
1631118281655,73623,257200,297181
1631118281665,73618,257211,297224
1631118281675,73638,257232,297246
1631118281685,73636,257232,297272
1631118281695,73656,257265,297297
1631118281705,73638,257221,297300
1631118281715,73663,257252,297268
1631118281725,73668,257253,297306
1631118281735,73659,257253,297293
1631118281745,73672,257267,297326
1631118281755,73673,257292,297338
1631118281765,73674,257300,297344
1631118281775,73653,257267,297369
1631118281785,73683,257299,297369
1631118281795,73661,257283,297380
1631118281805,73687,257308,297384
1631118281815,73695,257334,297376
1631118281825,73693,257321,297407
1631118281835,73706,257309,297370
1631118281845,73673,257329,297389
1631118281855,73674,257315,297378
1631118281865,73693,257329,297378
1631118281875,73682,257318,297349
1631118281885,73687,257309,297313
1631118281895,73688,257325,297333
1631118281905,73676,257309,297340
1631118281915,73683,257285,297312
1631118281925,73685,257322,297296
1631118281935,73686,257275,297356
1631118281945,73697,257289,297321
1631118281955,73670,257281,297339
1631118281965,73672,257281,297333
1631118281975,73673,257292,297359
1631118281985,73664,257276,297354
1631118281995,73668,257293,297380
1631118282005,73679,257296,297381
1631118282015,73676,257339,297386
1631118282025,73666,257310,297361
1631118282035,73656,257286,297369
1631118282045,73661,257294,297360
1631118282055,73651,257271,297336
1631118282065,73640,257256,297353
1631118282075,73638,257285,297310
1631118282085,73629,257248,297334
1631118282095,73638,257269,297313
1631118282105,73644,257271,297303
1631118282115,73626,257253,297318
1631118282125,73635,257263,297299
1631118282135,73622,257250,297308
1631118282145,73624,257230,297275
1631118282155,73617,257307,297260
1631118282165,73630,257263,297260
1631118282175,73625,257255,297254
1631118282185,73622,257240,297237
1631118282195,73620,257217,297267
1631118282205,73613,257230,297257
1631118282215,73602,257195,297248
1631118282225,73587,257214,297230
1631118282235,73591,257188,297222
1631118282245,73588,257196,297236
1631118282255,73583,257209,297196
1631118282265,73591,257217,297204
1631118282275,73585,257219,297172
1631118282285,73588,257216,297183
1631118282295,73587,257203,297160
1631118282305,73566,257184,297167
1631118282315,73573,257223,297182
1631118282325,73576,257177,297128
1631118282335,73586,257187,297149
1631118282345,73584,257207,297134
1631118282355,73581,257189,297121
1631118282365,73576,257215,297132
1631118282375,73577,257202,297139
1631118282385,73584,257190,297148
1631118282395,73581,257219,297128
1631118282405,73573,257208,297148
1631118282415,73575,257173,297100
1631118282425,73577,257173,297145
1631118282435,73595,257196,297147
1631118282445,73592,257174,297157
1631118282455,73580,257209,297176
1631118282465,73576,257186,297135
1631118282475,73578,257182,297169
1631118282485,73584,257191,297167
1631118282495,73600,257213,297230
1631118282505,73586,257213,297173
1631118282515,73609,257247,297189
1631118282525,73625,257265,297226
1631118282535,73626,257260,297238
1631118282545,73616,257230,297275
1631118282555,73615,257293,297322
1631118282565,73628,257310,297321
1631118282575,73640,257305,297338
1631118282585,73631,257293,297363
1631118282595,73633,257297,297350
1631118282605,73651,257307,297374
1631118282615,73671,257368,297402
1631118282625,73664,257300,297369
1631118282635,73669,257337,297385
1631118282645,73676,257355,297417
1631118282655,73659,257324,297431
1631118282665,73685,257370,297428
1631118282675,73677,257353,297440
1631118282685,73682,257375,297401
1631118282695,73672,257349,297422
1631118282705,73676,257360,297461
1631118282715,73668,257379,297423
1631118282725,73670,257342,297385
1631118282735,73672,257368,297390
1631118282745,73691,257346,297393
1631118282755,73672,257307,297365
1631118282765,73681,257337,297388
1631118282775,73669,257303,297390
1631118282785,73678,257321,297382
1631118282795,73665,257297,297384
1631118282805,73654,257309,297426
1631118282815,73659,257310,297408
1631118282825,73657,257318,297445
1631118282835,73644,257316,297441
1631118282845,73652,257332,297414
1631118282855,73649,257272,297449
1631118282865,73660,257319,297445
1631118282875,73638,257291,297458
1631118282885,73637,257320,297478
1631118282895,73639,257307,297427
1631118282905,73644,257276,297450
1631118282915,73632,257314,297472
1631118282925,73647,257337,297484
1631118282935,73655,257316,297514
1631118282945,73658,257340,297520
1631118282955,73643,257323,297515
1631118282965,73633,257345,297501
1631118282975,73641,257324,297562
1631118282985,73638,257326,297516
1631118282995,73654,257351,297521
1631118283005,73644,257365,297517
1631118283015,73636,257350,297552
1631118283025,73641,257323,297574
1631118283035,73627,257359,297561
1631118283045,73630,257355,297558
1631118283055,73633,257340,297521
1631118283065,73646,257332,297552
1631118283075,73641,257315,297539
1631118283085,73629,257338,297553
1631118283095,73633,257344,297556
1631118283105,73639,257329,297539
1631118283115,73626,257306,297550
1631118283125,73620,257339,297531
1631118283135,73619,257342,297541
1631118283145,73616,257336,297527
1631118283155,73626,257335,297535
1631118283165,73626,257332,297538
1631118283175,73638,257320,297567
1631118283185,73629,257313,297537
1631118283195,73639,257332,297556
1631118283205,73642,257350,297548
1631118283215,73632,257348,297549
1631118283225,73626,257336,297588
1631118283235,73640,257376,297584
1631118283245,73638,257355,297589
1631118283255,73638,257399,297576
1631118283265,73650,257386,297591
1631118283275,73633,257351,297588
1631118283285,73633,257371,297574
1631118283295,73628,257412,297623
1631118283305,73650,257356,297583
1631118283315,73633,257368,297586
1631118283325,73645,257389,297560
1631118283335,73651,257360,297554
1631118283345,73642,257345,297584
1631118283355,73636,257367,297577
1631118283365,73630,257388,297585
1631118283375,73636,257389,297555
1631118283385,73635,257406,297589
1631118283395,73649,257404,297557
1631118283405,73646,257397,297572
1631118283415,73640,257409,297556
1631118283425,73653,257383,297529
1631118283435,73650,257382,297544
1631118283445,73634,257374,297520
1631118283455,73646,257343,297506
1631118283465,73637,257362,297513
1631118283475,73617,257377,297497
1631118283485,73627,257380,297493
1631118283495,73644,257386,297508
1631118283505,73644,257376,297533
1631118283515,73647,257402,297526
1631118283525,73657,257414,297533
1631118283535,73663,257377,297526
1631118283545,73649,257415,297530
1631118283555,73658,257391,297519
1631118283565,73675,257417,297530
1631118283575,73661,257432,297495
1631118283585,73658,257408,297515
1631118283595,73664,257429,297493
1631118283605,73654,257383,297486
1631118283615,73656,257372,297498
1631118283625,73649,257377,297480
1631118283635,73647,257385,297453
1631118283645,73645,257361,297494
1631118283655,73640,257340,297466
1631118283665,73630,257321,297461
1631118283675,73617,257333,297455
1631118283685,73615,257347,297466
1631118283695,73607,257292,297451
1631118283705,73592,257323,297431
1631118283715,73583,257328,297414
1631118283725,73579,257285,297474
1631118283735,73590,257299,297434
1631118283745,73580,257299,297441
1631118283755,73585,257288,297441
1631118283765,73565,257275,297430
1631118283775,73559,257273,297437
1631118283785,73560,257270,297436
1631118283795,73567,257290,297459
1631118283805,73565,257309,297451
1631118283815,73565,257267,297452
1631118283825,73563,257325,297448
1631118283835,73543,257290,297478
1631118283845,73545,257271,297435
1631118283855,73541,257282,297429
1631118283865,73549,257255,297445
1631118283875,73534,257269,297444
1631118283885,73541,257274,297436
1631118283895,73534,257261,297478
1631118283905,73532,257263,297435
1631118283915,73536,257310,297473
1631118283925,73538,257296,297501
1631118283935,73533,257255,297448
1631118283945,73523,257256,297453
1631118283955,73521,257268,297454
1631118283965,73511,257254,297437
1631118283975,73526,257274,297448
1631118283985,73532,257327,297462
1631118283995,73524,257272,297449
1631118284005,73508,257266,297471
1631118284015,73517,257237,297484
1631118284025,73514,257307,297488
1631118284035,73513,257262,297484
1631118284045,73520,257274,297489
1631118284055,73526,257290,297448
1631118284065,73510,257284,297481
1631118284075,73519,257278,297497
1631118284085,73522,257266,297484
1631118284095,73516,257313,297466
1631118284105,73505,257279,297474
1631118284115,73510,257265,297453
1631118284125,73516,257274,297442
1631118284135,73516,257297,297447
1631118284145,73519,257275,297446
1631118284155,73501,257275,297460
1631118284165,73506,257267,297448
1631118284175,73509,257294,297434
1631118284185,73512,257281,297437
1631118284195,73525,257284,297464
1631118284205,73514,257291,297427
1631118284215,73511,257301,297430
1631118284225,73513,257302,297428
1631118284235,73526,257298,297449
1631118284245,73522,257310,297471
1631118284255,73508,257302,297468
1631118284265,73515,257325,297493
1631118284275,73532,257340,297484
1631118284285,73534,257322,297489
1631118284295,73521,257302,297493
1631118284305,73528,257303,297510
1631118284315,73538,257308,297515
1631118284325,73531,257318,297504
1631118284335,73533,257333,297500
1631118284345,73525,257380,297526
1631118284355,73522,257346,297528
1631118284365,73526,257339,297528
1631118284375,73539,257324,297525
1631118284385,73527,257359,297530
1631118284395,73534,257394,297526
1631118284405,73559,257367,297528
1631118284415,73540,257352,297538
1631118284425,73546,257372,297543
1631118284435,73545,257372,297544
1631118284445,73539,257383,297532
1631118284455,73540,257355,297526
1631118284465,73542,257377,297526
1631118284475,73540,257335,297489
1631118284485,73530,257345,297460
1631118284495,73513,257320,297403
1631118284505,73507,257308,297350
1631118284515,73498,257242,297377
1631118284525,73479,257232,297323
1631118284535,73484,257283,297342
1631118284545,73478,257250,297333
1631118284555,73467,257210,297319
1631118284565,73470,257184,297275
1631118284575,73458,257203,297297
1631118284585,73444,257209,297286
1631118284595,73465,257241,297318
1631118284605,73446,257211,297319
1631118284615,73449,257221,297302
1631118284625,73458,257238,297341
1631118284635,73439,257218,297334
1631118284645,73428,257218,297320
1631118284655,73440,257234,297413
1631118284665,73436,257228,297379
1631118284675,73431,257174,297414
1631118284685,73433,257262,297419
1631118284695,73453,257264,297425
1631118284705,73447,257274,297438
1631118284715,73446,257251,297438
1631118284725,73441,257226,297456
1631118284735,73421,257255,297436
1631118284745,73432,257233,297464
1631118284755,73434,257229,297460
1631118284765,73424,257216,297456
1631118284775,73429,257232,297453
1631118284785,73419,257239,297469
1631118284795,73427,257209,297449
1631118284805,73431,257202,297449
1631118284815,73437,257198,297432
1631118284825,73409,257222,297433
1631118284835,73416,257187,297447
1631118284845,73401,257226,297436
1631118284855,73422,257199,297447
1631118284865,73423,257202,297497
1631118284875,73415,257259,297451
1631118284885,73408,257233,297472
1631118284895,73416,257214,297504
1631118284905,73413,257261,297504
1631118284915,73419,257265,297496
1631118284925,73420,257190,297474
1631118284935,73424,257250,297505
1631118284945,73426,257246,297512
1631118284955,73426,257248,297522
1631118284965,73428,257227,297530
1631118284975,73420,257249,297514
1631118284985,73428,257281,297496
1631118284995,73422,257255,297514
1631118285005,73434,257228,297494
1631118285015,73433,257252,297513
1631118285025,73419,257273,297554
1631118285035,73426,257275,297521
1631118285045,73423,257260,297522
1631118285055,73430,257243,297503
1631118285065,73434,257275,297539
1631118285075,73438,257273,297530
1631118285085,73438,257265,297545
1631118285095,73429,257264,297524
1631118285105,73423,257286,297531
1631118285115,73440,257250,297536
1631118285125,73428,257266,297545
1631118285135,73436,257281,297527
1631118285145,73428,257300,297544
1631118285155,73426,257263,297561
1631118285165,73430,257292,297550
1631118285175,73447,257256,297547
1631118285185,73439,257331,297541
1631118285195,73450,257299,297581
1631118285205,73459,257312,297544
1631118285215,73451,257328,297589
1631118285225,73449,257330,297593
1631118285235,73447,257330,297580
1631118285245,73444,257306,297606
1631118285255,73447,257351,297612
1631118285265,73466,257322,297603
1631118285275,73467,257330,297610
1631118285285,73475,257332,297610
1631118285295,73477,257342,297609
1631118285305,73471,257353,297638
1631118285315,73476,257367,297613
1631118285325,73475,257339,297635
1631118285335,73476,257367,297619
1631118285345,73485,257392,297631
1631118285355,73496,257348,297614
1631118285365,73495,257344,297620
1631118285375,73479,257301,297612
1631118285385,73479,257302,297613
1631118285395,73481,257347,297611
1631118285405,73485,257333,297621
1631118285415,73483,257295,297611
1631118285425,73481,257300,297631
1631118285435,73479,257277,297607
1631118285445,73468,257280,297634
1631118285455,73463,257334,297649
1631118285465,73461,257291,297644
1631118285475,73456,257320,297642
1631118285485,73458,257303,297678
1631118285495,73452,257317,297664
1631118285505,73464,257320,297679
1631118285515,73448,257366,297707
1631118285525,73458,257292,297697
1631118285535,73446,257325,297699
1631118285545,73473,257326,297682
1631118285555,73463,257318,297694
1631118285565,73469,257333,297713
1631118285575,73470,257330,297730
1631118285585,73459,257351,297763
1631118285595,73474,257340,297771
1631118285605,73482,257323,297754
1631118285615,73461,257347,297790
1631118285625,73460,257336,297774
1631118285635,73470,257326,297775
1631118285645,73461,257346,297777
1631118285655,73461,257341,297799
1631118285665,73469,257333,297773
1631118285675,73478,257354,297795
1631118285685,73475,257329,297793
1631118285695,73470,257365,297821
1631118285705,73469,257362,297794
1631118285715,73458,257339,297806
1631118285725,73460,257371,297791
1631118285735,73460,257336,297811
1631118285745,73472,257363,297798
1631118285755,73469,257362,297826
1631118285765,73472,257355,297808
1631118285775,73479,257364,297816
1631118285785,73476,257361,297804
1631118285795,73486,257344,297836
1631118285805,73477,257351,297828
1631118285815,73484,257355,297841
1631118285825,73486,257367,297839
1631118285835,73482,257401,297836
1631118285845,73487,257406,297875
1631118285855,73488,257425,297875
1631118285865,73492,257357,297895
1631118285875,73493,257397,297881
1631118285885,73499,257420,297888
1631118285895,73500,257440,297894
1631118285905,73507,257442,297916
1631118285915,73514,257433,297910
1631118285925,73516,257433,297887
1631118285935,73519,257423,297914
1631118285945,73526,257427,297933
1631118285955,73525,257463,297957
1631118285965,73520,257459,297955
1631118285975,73531,257435,297950
1631118285985,73547,257429,297961
1631118285995,73544,257481,297980
1631118286005,73547,257482,297960
1631118286015,73558,257485,297956
1631118286025,73553,257506,297985
1631118286035,73538,257490,297990
1631118286045,73547,257477,297995
1631118286055,73552,257474,298004
1631118286065,73541,257467,298011
1631118286075,73567,257481,298024
1631118286085,73567,257484,297983
1631118286095,73558,257522,298042
1631118286105,73576,257517,298045
1631118286115,73573,257514,298027
1631118286125,73569,257519,298032
1631118286135,73573,257518,298047
1631118286145,73567,257544,297989
1631118286155,73589,257513,298059
1631118286165,73596,257532,298079
1631118286175,73598,257528,298058
1631118286185,73589,257567,298098
1631118286195,73598,257569,298060
1631118286205,73595,257568,298020
1631118286215,73605,257552,298046
1631118286225,73592,257524,298035
1631118286235,73597,257556,297996
1631118286245,73594,257510,298012
1631118286255,73597,257544,298019
1631118286265,73588,257525,297990
1631118286275,73584,257511,298012
1631118286285,73586,257535,298016
1631118286295,73576,257486,298046
1631118286305,73565,257532,298016
1631118286315,73572,257508,298049
1631118286325,73562,257483,298035
1631118286335,73576,257512,298071
1631118286345,73581,257506,298065
1631118286355,73568,257485,298088
1631118286365,73577,257514,298083
1631118286375,73571,257513,298071
1631118286385,73569,257486,298084
1631118286395,73561,257528,298056
1631118286405,73566,257538,298051
1631118286415,73572,257489,298088
1631118286425,73576,257542,298102
1631118286435,73559,257519,298068
1631118286445,73554,257502,298057
1631118286455,73558,257492,298053
1631118286465,73558,257494,298071
1631118286475,73558,257486,298077
1631118286485,73583,257546,298091
1631118286495,73584,257527,298060
1631118286505,73559,257507,298050
1631118286515,73586,257507,298063
1631118286525,73571,257517,298042
1631118286535,73570,257515,298080
1631118286545,73557,257504,298052
1631118286555,73567,257527,298079
1631118286565,73555,257500,298059
1631118286575,73557,257532,298087
1631118286585,73563,257506,298066
1631118286595,73569,257511,298057
1631118286605,73563,257501,298089
1631118286615,73552,257526,298099
1631118286625,73546,257506,298069
1631118286635,73576,257522,298053
1631118286645,73569,257538,298118
1631118286655,73575,257557,298121
1631118286665,73567,257582,298111
1631118286675,73567,257548,298091
1631118286685,73569,257547,298111
1631118286695,73564,257535,298126
1631118286705,73574,257537,298086
1631118286715,73568,257559,298090
1631118286725,73577,257574,298078
1631118286735,73587,257554,298073
1631118286745,73573,257582,298100
1631118286755,73569,257573,298080
1631118286765,73573,257545,298091
1631118286775,73569,257588,298090
1631118286785,73582,257526,298065
1631118286795,73567,257594,298036
1631118286805,73562,257529,298017
1631118286815,73566,257566,298034
1631118286825,73574,257570,298044
1631118286835,73573,257554,298063
1631118286845,73554,257555,298059
1631118286855,73557,257518,298018
1631118286865,73566,257562,298059
1631118286875,73569,257569,298050
1631118286885,73586,257574,298066
1631118286895,73573,257538,298075
1631118286905,73569,257585,298040
1631118286915,73590,257604,298063
1631118286925,73592,257583,298056
1631118286935,73579,257606,298080
1631118286945,73589,257594,298077
1631118286955,73601,257566,298060
1631118286965,73613,257585,298099
1631118286975,73611,257599,298079
1631118286985,73597,257569,298104
1631118286995,73581,257606,298086
1631118287005,73600,257588,298121
1631118287015,73598,257608,298106
1631118287025,73613,257596,298092
1631118287035,73629,257630,298073
1631118287045,73614,257610,298075
1631118287055,73605,257598,298033
1631118287065,73605,257571,298004
1631118287075,73604,257579,298039
1631118287085,73605,257560,298028
1631118287095,73584,257544,298006
1631118287105,73580,257576,298029
1631118287115,73599,257563,298010
1631118287125,73573,257542,298048
1631118287135,73561,257559,298033
1631118287145,73569,257573,298005
1631118287155,73573,257542,298029
1631118287165,73565,257555,298039
1631118287175,73569,257547,298074
1631118287185,73554,257535,298071
1631118287195,73565,257560,298059
1631118287205,73563,257600,298042
1631118287215,73555,257529,298058
1631118287225,73556,257556,298067
1631118287235,73561,257548,298047
1631118287245,73549,257542,298025
1631118287255,73548,257551,298064
1631118287265,73539,257542,298040
1631118287275,73545,257549,298038
1631118287285,73546,257542,298070
1631118287295,73555,257595,298062
1631118287305,73543,257569,298062
1631118287315,73553,257570,298070
1631118287325,73537,257569,298038
1631118287335,73542,257527,298047
1631118287345,73542,257569,298080
1631118287355,73550,257534,298043
1631118287365,73548,257549,298034
1631118287375,73553,257548,298081
1631118287385,73548,257544,298058
1631118287395,73531,257573,298088
1631118287405,73555,257535,298117
1631118287415,73544,257521,298030
1631118287425,73549,257574,298066
1631118287435,73540,257558,298101
1631118287445,73549,257569,298064
1631118287455,73545,257557,298076
1631118287465,73544,257535,298088
1631118287475,73554,257547,298095
1631118287485,73545,257555,298112
1631118287495,73543,257585,298101
1631118287505,73546,257604,298122
1631118287515,73564,257579,298135
1631118287525,73575,257592,298151
1631118287535,73565,257613,298141
1631118287545,73572,257599,298178
1631118287555,73554,257616,298160
1631118287565,73571,257592,298142
1631118287575,73571,257630,298139
1631118287585,73563,257610,298138
1631118287595,73560,257628,298151
1631118287605,73572,257637,298166
1631118287615,73574,257619,298135
1631118287625,73572,257614,298139
1631118287635,73586,257609,298152
1631118287645,73580,257655,298162
1631118287655,73571,257609,298141
1631118287665,73582,257626,298110
1631118287675,73586,257613,298136
1631118287685,73574,257615,298156
1631118287695,73591,257618,298153
1631118287705,73592,257640,298152
1631118287715,73595,257642,298162
1631118287725,73602,257636,298162
1631118287735,73597,257657,298171
1631118287745,73601,257654,298167
1631118287755,73601,257644,298170
1631118287765,73612,257647,298200
1631118287775,73615,257605,298198
1631118287785,73635,257674,298192
1631118287795,73611,257687,298185
1631118287805,73606,257658,298200
1631118287815,73614,257682,298197
1631118287825,73635,257679,298180
1631118287835,73618,257692,298200
1631118287845,73610,257658,298178
1631118287855,73628,257670,298187
1631118287865,73618,257628,298146
1631118287875,73604,257620,298122
1631118287885,73618,257632,298110
1631118287895,73598,257557,298078
1631118287905,73602,257556,298032
1631118287915,73591,257565,298024
1631118287925,73601,257546,298037
1631118287935,73596,257496,298001
1631118287945,73591,257511,297977
1631118287955,73584,257517,297995
1631118287965,73573,257507,298026
1631118287975,73566,257527,298025
1631118287985,73571,257524,298007
1631118287995,73569,257528,298016
1631118288005,73569,257515,298056
1631118288015,73563,257500,298035
1631118288025,73554,257499,298060
1631118288035,73546,257503,298063
1631118288045,73557,257457,298036
1631118288055,73540,257514,298060
1631118288065,73536,257510,298059
1631118288075,73542,257495,298040
1631118288085,73550,257496,298047
1631118288095,73560,257516,298049
1631118288105,73539,257478,298095
1631118288115,73548,257526,298073
1631118288125,73558,257520,298104
1631118288135,73541,257513,298082
1631118288145,73537,257543,298113
1631118288155,73543,257509,298110
1631118288165,73552,257522,298125
1631118288175,73554,257511,298104
1631118288185,73540,257532,298107
1631118288195,73550,257512,298138
1631118288205,73553,257520,298130
1631118288215,73547,257531,298121
1631118288225,73540,257487,298102
1631118288235,73539,257506,298139
1631118288245,73556,257499,298139
1631118288255,73539,257508,298120
1631118288265,73546,257498,298143
1631118288275,73552,257475,298131
1631118288285,73525,257524,298110
1631118288295,73539,257519,298142
1631118288305,73537,257519,298127
1631118288315,73529,257504,298123
1631118288325,73542,257526,298096
1631118288335,73554,257537,298157
1631118288345,73546,257496,298138
1631118288355,73542,257496,298155
1631118288365,73553,257532,298168
1631118288375,73571,257526,298176
1631118288385,73560,257515,298184
1631118288395,73556,257519,298189
1631118288405,73562,257603,298198
1631118288415,73562,257535,298207
1631118288425,73575,257528,298182
1631118288435,73565,257530,298174
1631118288445,73572,257531,298195
1631118288455,73572,257558,298211
1631118288465,73568,257568,298204
1631118288475,73576,257559,298190
1631118288485,73582,257574,298197
1631118288495,73581,257538,298187
1631118288505,73571,257568,298175
1631118288515,73581,257553,298202
1631118288525,73584,257574,298206
1631118288535,73574,257581,298214
1631118288545,73571,257590,298195
1631118288555,73571,257575,298221
1631118288565,73577,257578,298182
1631118288575,73578,257621,298214
1631118288585,73601,257577,298243
1631118288595,73586,257597,298242
1631118288605,73593,257602,298243
1631118288615,73608,257608,298259
1631118288625,73607,257621,298228
1631118288635,73595,257630,298247
1631118288645,73602,257631,298236
1631118288655,73603,257598,298231
1631118288665,73611,257607,298258
1631118288675,73623,257620,298220
1631118288685,73602,257628,298262
1631118288695,73598,257644,298224
1631118288705,73611,257633,298243
1631118288715,73606,257623,298255
1631118288725,73611,257639,298229
1631118288735,73613,257631,298209
1631118288745,73600,257602,298140
1631118288755,73603,257597,298202
1631118288765,73611,257616,298157
1631118288775,73603,257569,298149
1631118288785,73596,257578,298158
1631118288795,73577,257577,298158
1631118288805,73573,257562,298157
1631118288815,73586,257553,298149
1631118288825,73579,257535,298167
1631118288835,73556,257552,298162
1631118288845,73566,257529,298141
1631118288855,73550,257548,298171
1631118288865,73553,257532,298157
1631118288875,73542,257551,298165
1631118288885,73539,257542,298160
1631118288895,73543,257514,298174
1631118288905,73531,257549,298124
1631118288915,73536,257535,298137
1631118288925,73536,257551,298146
1631118288935,73544,257528,298156
1631118288945,73536,257499,298178
1631118288955,73525,257529,298151
1631118288965,73528,257528,298181
1631118288975,73534,257574,298182
1631118288985,73522,257529,298178
1631118288995,73535,257549,298172
1631118289005,73541,257529,298167
1631118289015,73530,257531,298164
1631118289025,73522,257488,298159
1631118289035,73522,257541,298150
1631118289045,73516,257509,298172
1631118289055,73525,257534,298154
1631118289065,73515,257520,298173
1631118289075,73519,257516,298170
1631118289085,73511,257503,298183
1631118289095,73516,257522,298156
1631118289105,73512,257542,298172
1631118289115,73511,257508,298147
1631118289125,73511,257524,298203
1631118289135,73527,257521,298165
1631118289145,73512,257560,298149
1631118289155,73509,257514,298176
1631118289165,73530,257516,298174
1631118289175,73529,257520,298222
1631118289185,73527,257538,298190
1631118289195,73528,257505,298194
1631118289205,73520,257553,298194
1631118289215,73524,257540,298200
1631118289225,73517,257578,298196
1631118289235,73530,257545,298211
1631118289245,73531,257551,298194
1631118289255,73523,257521,298197
1631118289265,73523,257583,298201
1631118289275,73526,257552,298182
1631118289285,73528,257556,298215
1631118289295,73547,257546,298203
1631118289305,73543,257505,298216
1631118289315,73529,257594,298194
1631118289325,73537,257527,298204
1631118289335,73527,257544,298180
1631118289345,73535,257555,298202
1631118289355,73533,257528,298212
1631118289365,73534,257596,298197
1631118289375,73544,257565,298231
1631118289385,73527,257580,298209
1631118289395,73551,257546,298227
1631118289405,73551,257544,298223
1631118289415,73551,257584,298249
1631118289425,73555,257582,298231
1631118289435,73544,257574,298248
1631118289445,73553,257599,298260
1631118289455,73555,257581,298233
1631118289465,73565,257598,298224
1631118289475,73559,257571,298228
1631118289485,73559,257614,298232
1631118289495,73561,257587,298235
1631118289505,73559,257632,298267
1631118289515,73561,257594,298231
1631118289525,73559,257605,298241
1631118289535,73564,257635,298229
1631118289545,73578,257615,298252
1631118289555,73566,257576,298220
1631118289565,73583,257601,298193
1631118289575,73559,257591,298169
1631118289585,73584,257614,298207
1631118289595,73553,257545,298146
1631118289605,73549,257570,298160
1631118289615,73561,257557,298161
1631118289625,73533,257581,298145
1631118289635,73543,257514,298163
1631118289645,73539,257551,298146
1631118289655,73530,257524,298151
1631118289665,73543,257528,298139
1631118289675,73539,257545,298155
1631118289685,73530,257529,298156
1631118289695,73518,257573,298186
1631118289705,73530,257542,298151
1631118289715,73524,257524,298173
1631118289725,73522,257559,298169
1631118289735,73526,257483,298163
1631118289745,73519,257515,298153
1631118289755,73513,257541,298140
1631118289765,73507,257562,298202
1631118289775,73499,257483,298146
1631118289785,73515,257499,298159
1631118289795,73524,257523,298165
1631118289805,73514,257515,298170
1631118289815,73502,257544,298151
1631118289825,73511,257487,298152
1631118289835,73499,257507,298175
1631118289845,73491,257485,298163
1631118289855,73503,257508,298163
1631118289865,73502,257507,298151
1631118289875,73505,257515,298144
1631118289885,73497,257510,298134
1631118289895,73498,257500,298139
1631118289905,73494,257466,298119
1631118289915,73501,257507,298131
1631118289925,73490,257477,298128
1631118289935,73488,257472,298129
1631118289945,73496,257469,298119
1631118289955,73478,257488,298157
1631118289965,73498,257482,298119
1631118289975,73486,257498,298125
1631118289985,73499,257484,298117
1631118289995,73501,257485,298110
1631118290005,73486,257469,298142
1631118290015,73494,257445,298123
1631118290025,73513,257487,298149
1631118290035,73501,257487,298101
1631118290045,73501,257492,298150
1631118290055,73504,257515,298141
1631118290065,73501,257466,298168
1631118290075,73499,257479,298142
1631118290085,73510,257505,298151
1631118290095,73502,257506,298105
1631118290105,73502,257473,298148
1631118290115,73515,257486,298128
1631118290125,73518,257524,298154
1631118290135,73493,257514,298139
1631118290145,73515,257489,298140
1631118290155,73512,257519,298112
1631118290165,73518,257500,298139
1631118290175,73507,257518,298139
1631118290185,73535,257504,298118
1631118290195,73514,257524,298144
1631118290205,73533,257507,298142
1631118290215,73529,257500,298123
1631118290225,73535,257498,298119
1631118290235,73521,257527,298133
1631118290245,73518,257510,298182
1631118290255,73529,257516,298148
1631118290265,73529,257535,298128
1631118290275,73527,257531,298156
1631118290285,73541,257506,298153
1631118290295,73556,257553,298144
1631118290305,73543,257557,298156
1631118290315,73538,257530,298158
1631118290325,73530,257537,298190
1631118290335,73534,257563,298150
1631118290345,73540,257556,298111
1631118290355,73552,257558,298134
1631118290365,73537,257565,298090
1631118290375,73558,257542,298167
1631118290385,73549,257536,298132
1631118290395,73549,257540,298120
1631118290405,73542,257544,298079
1631118290415,73544,257544,298090
1631118290425,73540,257510,298046
1631118290435,73550,257502,298050
1631118290445,73539,257514,298055
1631118290455,73533,257501,298037
1631118290465,73536,257498,298032
1631118290475,73521,257526,298079
1631118290485,73524,257475,298045
1631118290495,73505,257499,298069
1631118290505,73512,257478,298101
1631118290515,73519,257518,298089
1631118290525,73515,257490,298092
1631118290535,73519,257481,298079
1631118290545,73529,257495,298094
1631118290555,73539,257520,298118
1631118290565,73518,257505,298095
1631118290575,73516,257487,298100
1631118290585,73517,257485,298124
1631118290595,73525,257486,298071
1631118290605,73528,257485,298133
1631118290615,73512,257513,298105
1631118290625,73507,257496,298098
1631118290635,73524,257492,298104
1631118290645,73508,257477,298074
1631118290655,73517,257498,298068
1631118290665,73520,257509,298080
1631118290675,73506,257480,298087
1631118290685,73517,257502,298086
1631118290695,73524,257511,298075
1631118290705,73505,257497,298065
1631118290715,73519,257500,298056
1631118290725,73507,257499,298081
1631118290735,73511,257465,298113
1631118290745,73510,257483,298075
1631118290755,73517,257533,298093
1631118290765,73529,257517,298100
1631118290775,73531,257468,298112
1631118290785,73530,257489,298091
1631118290795,73527,257512,298121
1631118290805,73539,257486,298103
1631118290815,73522,257510,298093
1631118290825,73520,257504,298132
1631118290835,73528,257509,298154
1631118290845,73523,257513,298088
1631118290855,73528,257532,298125
1631118290865,73533,257566,298133
1631118290875,73538,257517,298118
1631118290885,73533,257501,298104
1631118290895,73538,257519,298121
1631118290905,73545,257511,298124
1631118290915,73548,257515,298137
1631118290925,73547,257542,298113
1631118290935,73544,257487,298068
1631118290945,73526,257510,298059
1631118290955,73542,257512,298041
1631118290965,73534,257498,298077
1631118290975,73530,257513,298030
1631118290985,73526,257469,297996
1631118290995,73516,257514,297955
1631118291005,73526,257490,297953
1631118291015,73524,257469,297910
1631118291025,73513,257486,297905
1631118291035,73511,257457,297880
1631118291045,73519,257443,297854
1631118291055,73515,257468,297912
1631118291065,73500,257459,297862
1631118291075,73507,257431,297850
1631118291085,73506,257453,297866
1631118291095,73500,257458,297820
1631118291105,73513,257447,297792
1631118291115,73506,257432,297794
1631118291125,73515,257434,297795
1631118291135,73492,257436,297802
1631118291145,73498,257433,297763
1631118291155,73508,257453,297775
1631118291165,73499,257454,297720
1631118291175,73500,257410,297748
1631118291185,73503,257404,297710
1631118291195,73524,257444,297713
1631118291205,73517,257445,297721
1631118291215,73499,257453,297738
1631118291225,73498,257406,297714
1631118291235,73496,257410,297667
1631118291245,73512,257356,297664
1631118291255,73500,257405,297627
1631118291265,73506,257358,297587
1631118291275,73498,257383,297616
1631118291285,73483,257367,297612
1631118291295,73482,257348,297638
1631118291305,73461,257367,297617
1631118291315,73478,257383,297604
1631118291325,73473,257366,297632
1631118291335,73468,257338,297639
1631118291345,73484,257371,297649
1631118291355,73480,257337,297624
1631118291365,73481,257352,297639
1631118291375,73463,257320,297652
1631118291385,73461,257330,297623
1631118291395,73471,257345,297620
1631118291405,73479,257325,297629
1631118291415,73480,257327,297639
1631118291425,73482,257350,297622
1631118291435,73483,257352,297605
1631118291445,73475,257331,297641
1631118291455,73479,257348,297645
1631118291465,73493,257339,297633
1631118291475,73487,257343,297638
1631118291485,73473,257313,297649
1631118291495,73468,257304,297656
1631118291505,73454,257329,297627
1631118291515,73467,257354,297598
1631118291525,73466,257347,297614
1631118291535,73475,257312,297584
1631118291545,73459,257321,297589
1631118291555,73473,257320,297628
1631118291565,73469,257284,297604
1631118291575,73465,257308,297575
1631118291585,73466,257321,297586
1631118291595,73473,257347,297591
1631118291605,73467,257310,297589
1631118291615,73459,257304,297574
1631118291625,73452,257283,297575
1631118291635,73450,257297,297592
1631118291645,73450,257255,297587
1631118291655,73462,257284,297569
1631118291665,73477,257299,297583
1631118291675,73470,257311,297540
1631118291685,73455,257321,297570
1631118291695,73469,257302,297555
1631118291705,73461,257329,297570
1631118291715,73477,257314,297553
1631118291725,73476,257301,297600
1631118291735,73488,257356,297607
1631118291745,73487,257327,297610
1631118291755,73485,257351,297617
1631118291765,73496,257333,297613
1631118291775,73496,257308,297574
1631118291785,73476,257318,297588
1631118291795,73485,257342,297614
1631118291805,73496,257370,297616
1631118291815,73502,257380,297602
1631118291825,73496,257354,297581
1631118291835,73501,257307,297605
1631118291845,73497,257360,297595
1631118291855,73511,257305,297633
1631118291865,73492,257325,297553
1631118291875,73494,257336,297590
1631118291885,73485,257325,297587
1631118291895,73506,257315,297553
1631118291905,73500,257338,297560
1631118291915,73504,257315,297545
1631118291925,73496,257324,297563
1631118291935,73508,257344,297548
1631118291945,73499,257333,297566
1631118291955,73499,257329,297541
1631118291965,73513,257369,297559
1631118291975,73514,257328,297563
1631118291985,73528,257370,297540
1631118291995,73521,257378,297549
1631118292005,73534,257320,297581
1631118292015,73539,257352,297552
1631118292025,73534,257354,297579
1631118292035,73545,257379,297576
1631118292045,73533,257378,297566
1631118292055,73524,257369,297554
1631118292065,73537,257402,297561
1631118292075,73535,257365,297567
1631118292085,73533,257349,297501
1631118292095,73537,257336,297521
1631118292105,73530,257297,297487
1631118292115,73522,257307,297517
1631118292125,73517,257288,297486
1631118292135,73528,257290,297441
1631118292145,73518,257315,297494
1631118292155,73511,257295,297477
1631118292165,73512,257290,297485
1631118292175,73507,257306,297512
1631118292185,73502,257283,297470
1631118292195,73501,257285,297468
1631118292205,73505,257272,297482
1631118292215,73503,257274,297458
1631118292225,73493,257261,297462
1631118292235,73498,257241,297448
1631118292245,73488,257247,297448
1631118292255,73496,257212,297443
1631118292265,73479,257257,297437
1631118292275,73485,257252,297461
1631118292285,73483,257241,297483
1631118292295,73498,257264,297481
1631118292305,73477,257251,297486
1631118292315,73488,257272,297473
1631118292325,73489,257262,297450
1631118292335,73499,257248,297477
1631118292345,73476,257210,297486
1631118292355,73499,257249,297493
1631118292365,73491,257277,297470
1631118292375,73489,257236,297452
1631118292385,73501,257222,297450
1631118292395,73502,257222,297440
1631118292405,73494,257218,297467
1631118292415,73491,257232,297466
1631118292425,73485,257212,297472
1631118292435,73493,257224,297465
1631118292445,73489,257238,297471
1631118292455,73502,257201,297445
1631118292465,73502,257216,297480
1631118292475,73484,257211,297502
1631118292485,73501,257228,297472
1631118292495,73513,257229,297490
1631118292505,73503,257224,297490
1631118292515,73493,257244,297475
1631118292525,73503,257211,297476
1631118292535,73512,257178,297500
1631118292545,73514,257224,297523
1631118292555,73517,257215,297542
1631118292565,73536,257259,297504
1631118292575,73533,257230,297528
1631118292585,73509,257225,297491
1631118292595,73527,257249,297507
1631118292605,73528,257251,297512
1631118292615,73527,257277,297500
1631118292625,73530,257262,297461
1631118292635,73536,257247,297471
1631118292645,73525,257256,297496
1631118292655,73543,257231,297519
1631118292665,73545,257243,297535
1631118292675,73534,257247,297526
1631118292685,73539,257232,297509
1631118292695,73535,257281,297557
1631118292705,73548,257260,297532
1631118292715,73559,257285,297527
1631118292725,73555,257236,297509
1631118292735,73552,257277,297562
1631118292745,73556,257264,297553
1631118292755,73567,257266,297556
1631118292765,73561,257300,297549
1631118292775,73564,257303,297539
1631118292785,73556,257295,297619
1631118292795,73578,257271,297562
1631118292805,73583,257313,297551
1631118292815,73587,257302,297571
1631118292825,73600,257300,297553
1631118292835,73579,257330,297580
1631118292845,73586,257305,297575
1631118292855,73588,257315,297576
1631118292865,73598,257309,297584
1631118292875,73594,257310,297552
1631118292885,73611,257332,297557
1631118292895,73613,257329,297548
1631118292905,73617,257314,297564
1631118292915,73608,257313,297526
1631118292925,73597,257294,297520
1631118292935,73596,257296,297516
1631118292945,73596,257259,297495
1631118292955,73597,257274,297493
1631118292965,73601,257263,297490
1631118292975,73599,257235,297490
1631118292985,73593,257281,297479
1631118292995,73591,257238,297482
1631118293005,73612,257236,297490
1631118293015,73597,257249,297513
1631118293025,73587,257244,297498
1631118293035,73593,257255,297504
1631118293045,73584,257259,297509
1631118293055,73600,257264,297518
1631118293065,73604,257246,297537
1631118293075,73589,257228,297529
1631118293085,73578,257258,297509
1631118293095,73579,257248,297556
1631118293105,73581,257225,297526
1631118293115,73592,257230,297528
1631118293125,73598,257219,297532
1631118293135,73571,257234,297547
1631118293145,73587,257263,297554
1631118293155,73599,257217,297538
1631118293165,73589,257245,297542
1631118293175,73583,257241,297535
1631118293185,73597,257250,297577
1631118293195,73596,257267,297542
1631118293205,73593,257272,297563
1631118293215,73597,257262,297525
1631118293225,73592,257243,297532
1631118293235,73595,257231,297536
1631118293245,73592,257251,297573
1631118293255,73587,257245,297572
1631118293265,73612,257241,297563
1631118293275,73587,257250,297574
1631118293285,73600,257249,297568
1631118293295,73591,257224,297593
1631118293305,73593,257225,297612
1631118293315,73592,257239,297556
1631118293325,73588,257243,297587
1631118293335,73596,257259,297539
1631118293345,73604,257243,297567
1631118293355,73605,257249,297601
1631118293365,73603,257216,297534
1631118293375,73609,257205,297571
1631118293385,73600,257246,297530
1631118293395,73580,257234,297557
1631118293405,73610,257264,297537
1631118293415,73611,257239,297550
1631118293425,73614,257248,297542
1631118293435,73611,257258,297567
1631118293445,73620,257263,297569
1631118293455,73615,257271,297586
1631118293465,73621,257255,297543
1631118293475,73614,257250,297546
1631118293485,73611,257248,297559
1631118293495,73617,257261,297581
1631118293505,73627,257262,297565
1631118293515,73634,257259,297571
1631118293525,73642,257253,297585
1631118293535,73623,257268,297616
1631118293545,73644,257254,297614
1631118293555,73629,257305,297601
1631118293565,73639,257280,297597
1631118293575,73635,257267,297585
1631118293585,73634,257268,297607
1631118293595,73649,257280,297619
1631118293605,73646,257286,297583
1631118293615,73657,257290,297618
1631118293625,73657,257315,297583
1631118293635,73651,257271,297614
1631118293645,73652,257276,297601
1631118293655,73658,257287,297617
1631118293665,73659,257302,297614
1631118293675,73670,257313,297635
1631118293685,73663,257269,297599
1631118293695,73649,257328,297640
1631118293705,73676,257340,297624
1631118293715,73669,257327,297610
1631118293725,73665,257309,297617
1631118293735,73669,257316,297599
1631118293745,73671,257311,297596
1631118293755,73688,257306,297606
1631118293765,73665,257310,297597
1631118293775,73690,257277,297559
1631118293785,73682,257331,297577
1631118293795,73687,257275,297532
1631118293805,73663,257289,297593
1631118293815,73673,257259,297546
1631118293825,73652,257293,297550
1631118293835,73666,257277,297585
1631118293845,73667,257253,297553
1631118293855,73675,257263,297588
1631118293865,73663,257252,297577
1631118293875,73669,257286,297597
1631118293885,73655,257236,297592
1631118293895,73655,257266,297606
1631118293905,73657,257247,297580
1631118293915,73658,257277,297554
1631118293925,73652,257267,297559
1631118293935,73646,257260,297547
1631118293945,73662,257247,297565
1631118293955,73662,257250,297544
1631118293965,73653,257247,297588
1631118293975,73641,257241,297567
1631118293985,73649,257266,297588
1631118293995,73642,257226,297612
1631118294005,73656,257245,297606
1631118294015,73663,257221,297601
1631118294025,73639,257235,297570
1631118294035,73655,257235,297601
1631118294045,73640,257273,297585
1631118294055,73641,257239,297581
1631118294065,73643,257232,297567
1631118294075,73662,257223,297578
1631118294085,73656,257214,297549
1631118294095,73651,257235,297568
1631118294105,73644,257226,297568
1631118294115,73641,257269,297551
1631118294125,73641,257221,297581
1631118294135,73640,257251,297580
1631118294145,73649,257247,297568
1631118294155,73654,257225,297568
1631118294165,73654,257256,297575
1631118294175,73657,257239,297579
1631118294185,73648,257236,297579
1631118294195,73661,257207,297582
1631118294205,73660,257235,297602
1631118294215,73639,257249,297588
1631118294225,73650,257249,297592
1631118294235,73665,257260,297561
1631118294245,73660,257261,297591
1631118294255,73665,257266,297581
1631118294265,73667,257254,297582
1631118294275,73644,257248,297588
1631118294285,73649,257216,297539
1631118294295,73655,257280,297574
1631118294305,73651,257249,297564
1631118294315,73664,257263,297581
1631118294325,73670,257240,297527
1631118294335,73661,257254,297517
1631118294345,73656,257235,297534
1631118294355,73662,257292,297569
1631118294365,73675,257249,297543
1631118294375,73669,257225,297536
1631118294385,73669,257254,297556
1631118294395,73666,257268,297545
1631118294405,73684,257213,297549
1631118294415,73678,257248,297591
1631118294425,73674,257283,297573
1631118294435,73687,257246,297597
1631118294445,73686,257284,297590
1631118294455,73677,257276,297572
1631118294465,73687,257259,297606
1631118294475,73687,257267,297588
1631118294485,73710,257285,297619
1631118294495,73694,257281,297643
1631118294505,73681,257309,297608
1631118294515,73701,257281,297577
1631118294525,73703,257315,297593
1631118294535,73702,257276,297597
1631118294545,73696,257297,297586
1631118294555,73700,257325,297555
1631118294565,73704,257295,297596
1631118294575,73685,257288,297583
1631118294585,73712,257265,297546
1631118294595,73689,257257,297532
1631118294605,73690,257209,297524
1631118294615,73695,257229,297477
1631118294625,73688,257248,297475
1631118294635,73669,257251,297490
1631118294645,73678,257222,297476
1631118294655,73681,257207,297451
1631118294665,73662,257218,297468
1631118294675,73689,257179,297473
1631118294685,73683,257204,297500
1631118294695,73669,257225,297475
1631118294705,73661,257233,297501
1631118294715,73657,257204,297516
1631118294725,73662,257244,297514
1631118294735,73679,257205,297539
1631118294745,73671,257198,297511
1631118294755,73668,257211,297503
1631118294765,73660,257206,297507
1631118294775,73653,257217,297515
1631118294785,73651,257221,297549
1631118294795,73650,257226,297533
1631118294805,73665,257241,297527
1631118294815,73661,257204,297535
1631118294825,73647,257249,297553
1631118294835,73660,257208,297558
1631118294845,73647,257235,297553
1631118294855,73653,257207,297534
1631118294865,73647,257211,297561
1631118294875,73639,257235,297523
1631118294885,73659,257254,297560
1631118294895,73648,257207,297560
1631118294905,73650,257185,297533
1631118294915,73659,257215,297519
1631118294925,73649,257160,297538
1631118294935,73634,257182,297524
1631118294945,73623,257194,297501
1631118294955,73626,257188,297506
1631118294965,73636,257156,297521
1631118294975,73634,257176,297531
1631118294985,73623,257194,297558
1631118294995,73636,257212,297548
1631118295005,73643,257201,297563
1631118295015,73635,257184,297585
1631118295025,73634,257205,297549
1631118295035,73641,257220,297533
1631118295045,73650,257187,297545
1631118295055,73634,257195,297543
1631118295065,73648,257231,297572
1631118295075,73631,257233,297579
1631118295085,73649,257211,297589
1631118295095,73641,257251,297584
1631118295105,73637,257236,297583
1631118295115,73651,257176,297565
1631118295125,73656,257252,297593
1631118295135,73642,257237,297570
1631118295145,73662,257247,297600
1631118295155,73644,257236,297585
1631118295165,73642,257252,297582
1631118295175,73648,257259,297566
1631118295185,73636,257232,297583
1631118295195,73638,257259,297563
1631118295205,73656,257247,297574
1631118295215,73648,257257,297558
1631118295225,73659,257247,297581
1631118295235,73662,257224,297577
1631118295245,73670,257239,297579
1631118295255,73648,257268,297560
1631118295265,73649,257235,297591
1631118295275,73649,257208,297543
1631118295285,73667,257289,297609
1631118295295,73670,257272,297576
1631118295305,73675,257273,297602
1631118295315,73677,257323,297615
1631118295325,73683,257291,297598
1631118295335,73669,257302,297610
1631118295345,73676,257304,297648
1631118295355,73681,257314,297648
1631118295365,73695,257334,297680
1631118295375,73687,257303,297661
1631118295385,73699,257288,297695
1631118295395,73711,257326,297663
1631118295405,73715,257351,297677
1631118295415,73707,257350,297713
1631118295425,73729,257369,297737
1631118295435,73710,257362,297735
1631118295445,73715,257364,297706
1631118295455,73727,257353,297693
1631118295465,73727,257333,297702
1631118295475,73728,257301,297713
1631118295485,73722,257315,297724
1631118295495,73721,257330,297718
1631118295505,73710,257298,297725
1631118295515,73701,257296,297753
1631118295525,73697,257323,297757
1631118295535,73707,257288,297773
1631118295545,73696,257302,297767
1631118295555,73707,257307,297788
1631118295565,73702,257327,297754
1631118295575,73688,257301,297803
1631118295585,73688,257271,297798
1631118295595,73684,257296,297782
1631118295605,73689,257297,297783
1631118295615,73681,257287,297776
1631118295625,73679,257297,297773
1631118295635,73679,257272,297772
1631118295645,73670,257263,297789
1631118295655,73664,257280,297738
1631118295665,73650,257261,297757
1631118295675,73654,257255,297748
1631118295685,73655,257260,297776
1631118295695,73662,257323,297764
1631118295705,73647,257285,297729
1631118295715,73655,257242,297736
1631118295725,73637,257295,297735
1631118295735,73645,257272,297738
1631118295745,73629,257268,297700
1631118295755,73628,257251,297721
1631118295765,73624,257226,297718
1631118295775,73620,257220,297716
1631118295785,73625,257252,297731
1631118295795,73618,257219,297725
1631118295805,73626,257257,297721
1631118295815,73623,257242,297707
1631118295825,73619,257226,297707
1631118295835,73613,257246,297670
1631118295845,73605,257254,297722
1631118295855,73614,257244,297735
1631118295865,73605,257255,297731
1631118295875,73617,257228,297667
1631118295885,73596,257218,297730
1631118295895,73602,257207,297728
1631118295905,73609,257254,297709
1631118295915,73597,257237,297703
1631118295925,73597,257214,297725
1631118295935,73606,257282,297707
1631118295945,73601,257302,297735
1631118295955,73619,257264,297725
1631118295965,73616,257316,297722
1631118295975,73613,257279,297712
1631118295985,73611,257252,297724
1631118295995,73617,257282,297711
1631118296005,73598,257282,297732
1631118296015,73619,257313,297735
1631118296025,73627,257282,297734
1631118296035,73611,257264,297739
1631118296045,73611,257285,297716
1631118296055,73614,257259,297728
1631118296065,73601,257246,297714
1631118296075,73596,257279,297723
1631118296085,73608,257268,297705
1631118296095,73617,257303,297743
1631118296105,73609,257309,297734
1631118296115,73615,257289,297727
1631118296125,73624,257290,297771
1631118296135,73599,257301,297691
1631118296145,73618,257303,297761
1631118296155,73627,257276,297758
1631118296165,73627,257298,297742
1631118296175,73630,257302,297750
1631118296185,73638,257282,297754
1631118296195,73644,257306,297753
1631118296205,73638,257305,297748
1631118296215,73622,257293,297740
1631118296225,73644,257318,297777
1631118296235,73630,257314,297763
1631118296245,73637,257311,297791
1631118296255,73633,257350,297779
1631118296265,73636,257299,297769
1631118296275,73652,257325,297777
1631118296285,73637,257332,297767
1631118296295,73648,257366,297785
1631118296305,73649,257308,297788
1631118296315,73638,257360,297775
1631118296325,73638,257320,297749
1631118296335,73628,257292,297713
1631118296345,73634,257303,297715
1631118296355,73626,257299,297712
1631118296365,73634,257269,297729
1631118296375,73609,257287,297704
1631118296385,73608,257254,297725
1631118296395,73620,257264,297696
1631118296405,73597,257273,297706
1631118296415,73594,257258,297688
1631118296425,73610,257266,297726
1631118296435,73579,257253,297711
1631118296445,73584,257265,297703
1631118296455,73588,257268,297735
1631118296465,73571,257238,297703
1631118296475,73564,257239,297725
1631118296485,73563,257214,297710
1631118296495,73572,257245,297698
1631118296505,73574,257266,297704
1631118296515,73564,257237,297713
1631118296525,73576,257231,297705
1631118296535,73573,257233,297705
1631118296545,73557,257270,297777
1631118296555,73556,257236,297744
1631118296565,73554,257279,297774
1631118296575,73549,257241,297762
1631118296585,73570,257272,297803
1631118296595,73562,257269,297791
1631118296605,73575,257253,297838
1631118296615,73560,257272,297843
1631118296625,73563,257225,297849
1631118296635,73571,257273,297824
1631118296645,73561,257258,297833
1631118296655,73566,257280,297814
1631118296665,73560,257243,297800
1631118296675,73551,257257,297825
1631118296685,73562,257251,297860
1631118296695,73558,257247,297857
1631118296705,73565,257261,297845
1631118296715,73546,257259,297808
1631118296725,73553,257285,297838
1631118296735,73553,257279,297852
1631118296745,73562,257271,297885
1631118296755,73569,257290,297887
1631118296765,73563,257259,297950
1631118296775,73566,257290,297938
1631118296785,73573,257302,297930
1631118296795,73572,257324,297954
1631118296805,73578,257309,297937
1631118296815,73577,257323,297946
1631118296825,73584,257332,297923
1631118296835,73564,257314,297960
1631118296845,73564,257297,297941
1631118296855,73586,257320,297954
1631118296865,73588,257342,297961
1631118296875,73572,257342,297966
1631118296885,73572,257298,297971
1631118296895,73586,257334,297981
1631118296905,73589,257346,297979
1631118296915,73590,257333,297968
1631118296925,73593,257357,297990
1631118296935,73586,257330,297955
1631118296945,73583,257325,297954
1631118296955,73583,257336,297974
1631118296965,73583,257349,298005
1631118296975,73584,257354,297983
1631118296985,73582,257375,298002
1631118296995,73589,257374,298004
1631118297005,73597,257368,298004
1631118297015,73593,257411,298063
1631118297025,73608,257405,298042
1631118297035,73612,257419,298027
1631118297045,73614,257387,298089
1631118297055,73621,257425,298077
1631118297065,73630,257377,298041
1631118297075,73627,257404,298084
1631118297085,73623,257397,298102
1631118297095,73628,257408,298076
1631118297105,73625,257405,298050
1631118297115,73630,257419,298061
1631118297125,73618,257383,298017
1631118297135,73617,257432,298057
1631118297145,73630,257384,298046
1631118297155,73619,257418,298007
1631118297165,73634,257420,298014
1631118297175,73621,257398,297986
1631118297185,73630,257388,297997
1631118297195,73608,257355,297974
1631118297205,73615,257371,297949
1631118297215,73607,257385,297975
1631118297225,73605,257367,297921
1631118297235,73617,257371,297972
1631118297245,73620,257368,297951
1631118297255,73608,257334,298035
1631118297265,73604,257336,297983
1631118297275,73603,257387,298015
1631118297285,73600,257340,298027
1631118297295,73589,257361,298053
1631118297305,73579,257366,298035
1631118297315,73595,257366,298031
1631118297325,73605,257323,298082
1631118297335,73602,257363,298073
1631118297345,73605,257390,298046
1631118297355,73602,257373,298056
1631118297365,73595,257351,298033
1631118297375,73591,257371,298047
1631118297385,73590,257346,298034
1631118297395,73591,257370,298014
1631118297405,73578,257406,298052
1631118297415,73590,257351,298038
1631118297425,73579,257350,298054
1631118297435,73583,257361,298026
1631118297445,73559,257391,298062
1631118297455,73572,257368,298087
1631118297465,73581,257331,298055
1631118297475,73579,257364,298045
1631118297485,73580,257348,298062
1631118297495,73571,257364,298086
1631118297505,73579,257366,298059
1631118297515,73565,257353,298087
1631118297525,73577,257364,298060
1631118297535,73568,257386,298076
1631118297545,73584,257353,298077
1631118297555,73571,257340,298070
1631118297565,73588,257315,298123
1631118297575,73571,257370,298058
1631118297585,73570,257354,298114
1631118297595,73574,257342,298097
1631118297605,73567,257366,298093
1631118297615,73570,257387,298118
1631118297625,73571,257365,298114
1631118297635,73588,257356,298115
1631118297645,73580,257351,298128
1631118297655,73569,257411,298121
1631118297665,73567,257401,298134
1631118297675,73580,257409,298137
1631118297685,73579,257364,298167
1631118297695,73587,257405,298170
1631118297705,73584,257390,298143
1631118297715,73588,257406,298150
1631118297725,73587,257406,298172
1631118297735,73588,257414,298164
1631118297745,73596,257379,298157
1631118297755,73601,257399,298175
1631118297765,73590,257436,298164
1631118297775,73592,257411,298173
1631118297785,73597,257423,298183
1631118297795,73614,257437,298166
1631118297805,73620,257444,298185
1631118297815,73613,257450,298167
1631118297825,73617,257444,298147
1631118297835,73613,257435,298166
1631118297845,73619,257408,298218
1631118297855,73615,257436,298205
1631118297865,73614,257452,298161
1631118297875,73606,257449,298209
1631118297885,73610,257443,298202
1631118297895,73631,257496,298246
1631118297905,73631,257435,298220
1631118297915,73641,257458,298219
1631118297925,73643,257468,298227
1631118297935,73632,257483,298255
1631118297945,73641,257504,298195
1631118297955,73636,257461,298215
1631118297965,73653,257500,298238
1631118297975,73660,257492,298230
1631118297985,73644,257497,298274
1631118297995,73645,257503,298229
1631118298005,73651,257500,298221
1631118298015,73652,257498,298249
1631118298025,73653,257520,298192
1631118298035,73642,257510,298206
1631118298045,73645,257489,298190
1631118298055,73654,257440,298161
1631118298065,73633,257465,298102
1631118298075,73636,257459,298104
1631118298085,73643,257426,298112
1631118298095,73628,257441,298114
1631118298105,73618,257415,298096
1631118298115,73605,257445,298098
1631118298125,73618,257411,298082
1631118298135,73616,257445,298095
1631118298145,73609,257432,298098
1631118298155,73616,257414,298093
1631118298165,73609,257415,298124
1631118298175,73600,257443,298112
1631118298185,73595,257426,298131
1631118298195,73615,257450,298104
1631118298205,73612,257463,298165
1631118298215,73613,257443,298121
1631118298225,73601,257463,298165
1631118298235,73616,257479,298145
1631118298245,73601,257463,298165
1631118298255,73612,257453,298176
1631118298265,73616,257457,298190
1631118298275,73610,257453,298170
1631118298285,73611,257483,298192
1631118298295,73625,257482,298175
1631118298305,73628,257485,298207
1631118298315,73629,257504,298192
1631118298325,73616,257449,298215
1631118298335,73618,257469,298216
1631118298345,73635,257482,298223
1631118298355,73619,257511,298211
1631118298365,73621,257496,298224
1631118298375,73628,257494,298227
1631118298385,73622,257489,298194
1631118298395,73632,257473,298204
1631118298405,73625,257508,298250
1631118298415,73626,257515,298258
1631118298425,73620,257485,298245
1631118298435,73619,257536,298226
1631118298445,73625,257502,298250
1631118298455,73631,257517,298225
1631118298465,73638,257515,298259
1631118298475,73637,257484,298235
1631118298485,73636,257477,298267
1631118298495,73632,257548,298288
1631118298505,73626,257484,298262
1631118298515,73632,257555,298259
1631118298525,73642,257540,298233
1631118298535,73643,257501,298271
1631118298545,73631,257530,298250
1631118298555,73641,257543,298246
1631118298565,73648,257503,298226
1631118298575,73640,257484,298266
1631118298585,73638,257530,298260
1631118298595,73646,257518,298264
1631118298605,73658,257540,298247
1631118298615,73670,257588,298251
1631118298625,73665,257572,298271
1631118298635,73653,257533,298273
1631118298645,73678,257572,298280
1631118298655,73679,257618,298281
1631118298665,73671,257557,298319
1631118298675,73683,257598,298307
1631118298685,73673,257600,298326
1631118298695,73675,257576,298303
1631118298705,73698,257602,298341
1631118298715,73697,257649,298337
1631118298725,73682,257637,298345
1631118298735,73686,257595,298335
1631118298745,73695,257631,298351
1631118298755,73708,257614,298333
1631118298765,73708,257643,298370
1631118298775,73692,257657,298339
1631118298785,73714,257649,298358
1631118298795,73709,257626,298348
1631118298805,73695,257668,298334
1631118298815,73719,257618,298358
1631118298825,73702,257635,298329
1631118298835,73711,257642,298333
1631118298845,73704,257654,298318
1631118298855,73707,257607,298293
1631118298865,73705,257601,298277
1631118298875,73712,257596,298210
1631118298885,73703,257616,298222
1631118298895,73695,257596,298212
1631118298905,73698,257635,298220
1631118298915,73694,257631,298198
1631118298925,73688,257574,298193
1631118298935,73696,257613,298225
1631118298945,73699,257570,298228
1631118298955,73682,257587,298246
1631118298965,73683,257618,298246
1631118298975,73687,257592,298242
1631118298985,73674,257588,298274
1631118298995,73668,257632,298276
1631118299005,73689,257609,298308
1631118299015,73695,257630,298291
1631118299025,73691,257579,298309
1631118299035,73683,257578,298333
1631118299045,73691,257612,298315
1631118299055,73683,257619,298287
1631118299065,73683,257600,298289
1631118299075,73677,257623,298338
1631118299085,73682,257612,298337
1631118299095,73700,257637,298308
1631118299105,73676,257645,298335
1631118299115,73670,257601,298311
1631118299125,73683,257605,298310
1631118299135,73679,257622,298301
1631118299145,73681,257628,298320
1631118299155,73677,257588,298313
1631118299165,73661,257591,298305
1631118299175,73673,257610,298304
1631118299185,73669,257605,298313
1631118299195,73682,257589,298291
1631118299205,73673,257570,298307
1631118299215,73660,257568,298304
1631118299225,73666,257563,298302
1631118299235,73669,257555,298295
1631118299245,73652,257576,298297
1631118299255,73670,257577,298277
1631118299265,73668,257584,298267
1631118299275,73675,257568,298295
1631118299285,73665,257574,298295
1631118299295,73686,257604,298295
1631118299305,73674,257618,298312
1631118299315,73677,257575,298320
1631118299325,73687,257595,298301
1631118299335,73681,257633,298287
1631118299345,73683,257629,298289
1631118299355,73684,257627,298307
1631118299365,73675,257587,298306
1631118299375,73689,257637,298313
1631118299385,73686,257623,298305
1631118299395,73696,257596,298306
1631118299405,73699,257608,298260
1631118299415,73702,257621,298287
1631118299425,73691,257605,298304
1631118299435,73700,257606,298303
1631118299445,73712,257629,298327
1631118299455,73701,257644,298304
1631118299465,73694,257629,298312
1631118299475,73708,257644,298339
1631118299485,73709,257639,298332
1631118299495,73714,257607,298370
1631118299505,73713,257654,298341
1631118299515,73720,257635,298359
1631118299525,73739,257667,298361
1631118299535,73715,257655,298343
1631118299545,73734,257665,298353
1631118299555,73735,257664,298388
1631118299565,73731,257675,298396
1631118299575,73744,257640,298410
1631118299585,73742,257659,298376
1631118299595,73755,257697,298410
1631118299605,73753,257681,298386
1631118299615,73738,257699,298411
1631118299625,73752,257715,298390
1631118299635,73769,257678,298414
1631118299645,73766,257704,298441
1631118299655,73754,257675,298415
1631118299665,73771,257754,298393
1631118299675,73772,257701,298419
1631118299685,73774,257728,298415
1631118299695,73785,257717,298398
1631118299705,73765,257711,298366
1631118299715,73768,257662,298337
1631118299725,73761,257681,298376
1631118299735,73765,257656,298333
1631118299745,73767,257681,298313
1631118299755,73767,257652,298310
1631118299765,73745,257628,298344
1631118299775,73762,257661,298320
1631118299785,73759,257677,298324
1631118299795,73759,257613,298311
1631118299805,73755,257624,298348
1631118299815,73734,257642,298323
1631118299825,73745,257623,298328
1631118299835,73740,257671,298351
1631118299845,73738,257626,298358
1631118299855,73739,257678,298359
1631118299865,73736,257608,298363
1631118299875,73727,257669,298378
1631118299885,73745,257656,298378
1631118299895,73737,257636,298379
1631118299905,73740,257683,298364
1631118299915,73722,257636,298381
1631118299925,73739,257650,298399
1631118299935,73740,257615,298397
1631118299945,73731,257594,298395
1631118299955,73722,257626,298422
1631118299965,73727,257644,298433
1631118299975,73729,257702,298433
1631118299985,73739,257650,298410
1631118299995,73733,257670,298438
1631118300005,73743,257676,298430
1631118300015,73734,257639,298437
1631118300025,73738,257627,298424
1631118300035,73722,257643,298435
1631118300045,73710,257664,298430
1631118300055,73717,257625,298378
1631118300065,73717,257655,298413
1631118300075,73741,257663,298431
1631118300085,73715,257616,298392
1631118300095,73710,257617,298408
1631118300105,73719,257656,298391
1631118300115,73718,257602,298405
1631118300125,73707,257593,298383
1631118300135,73726,257603,298393
1631118300145,73732,257595,298480
1631118300155,73716,257630,298438
1631118300165,73729,257656,298427
1631118300175,73731,257627,298451
1631118300185,73738,257661,298453
1631118300195,73737,257638,298437
1631118300205,73740,257658,298454
1631118300215,73746,257639,298453
1631118300225,73753,257712,298454
1631118300235,73733,257664,298457
1631118300245,73745,257663,298486
1631118300255,73748,257680,298480
1631118300265,73780,257695,298461
1631118300275,73751,257683,298465
1631118300285,73748,257656,298481
1631118300295,73746,257655,298462
1631118300305,73762,257657,298454
1631118300315,73756,257674,298467
1631118300325,73759,257651,298475
1631118300335,73756,257650,298487
1631118300345,73768,257666,298498
1631118300355,73773,257661,298449
1631118300365,73776,257694,298476
1631118300375,73761,257686,298469
1631118300385,73775,257712,298490
1631118300395,73778,257687,298438
1631118300405,73768,257702,298486
1631118300415,73769,257725,298492
1631118300425,73790,257748,298448
1631118300435,73772,257695,298484
1631118300445,73787,257727,298475
1631118300455,73787,257715,298483
1631118300465,73800,257684,298465
1631118300475,73792,257709,298499
1631118300485,73811,257744,298500
1631118300495,73785,257758,298532
1631118300505,73815,257718,298496
1631118300515,73796,257745,298483
1631118300525,73810,257741,298509
1631118300535,73794,257760,298513
1631118300545,73785,257746,298487
1631118300555,73809,257730,298480
1631118300565,73826,257690,298473
1631118300575,73805,257725,298480
1631118300585,73810,257735,298456
1631118300595,73799,257674,298432
1631118300605,73800,257686,298418
1631118300615,73798,257653,298433
1631118300625,73784,257660,298417
1631118300635,73781,257672,298420
1631118300645,73770,257662,298379
1631118300655,73755,257650,298395
1631118300665,73756,257651,298396
1631118300675,73761,257634,298399
1631118300685,73750,257647,298348
1631118300695,73745,257648,298341
1631118300705,73750,257647,298350
1631118300715,73750,257616,298357
1631118300725,73763,257621,298347
1631118300735,73761,257612,298384
1631118300745,73762,257650,298365
1631118300755,73733,257617,298404
1631118300765,73742,257642,298413
1631118300775,73750,257630,298423
1631118300785,73748,257641,298441
1631118300795,73757,257645,298449
1631118300805,73746,257640,298428
1631118300815,73764,257677,298461
1631118300825,73750,257654,298434
1631118300835,73762,257657,298455
1631118300845,73748,257662,298447
1631118300855,73753,257644,298436
1631118300865,73750,257641,298475
1631118300875,73767,257633,298466
1631118300885,73759,257648,298424
1631118300895,73764,257618,298495
1631118300905,73763,257661,298488
1631118300915,73757,257611,298459
1631118300925,73747,257636,298493
1631118300935,73752,257634,298437
1631118300945,73747,257644,298460
1631118300955,73762,257640,298483
1631118300965,73761,257660,298475
1631118300975,73773,257639,298457
1631118300985,73746,257671,298478
1631118300995,73765,257668,298496
1631118301005,73771,257611,298513
1631118301015,73764,257640,298501
1631118301025,73768,257657,298486
1631118301035,73781,257644,298527
1631118301045,73758,257645,298510
1631118301055,73789,257685,298506
1631118301065,73776,257695,298544
1631118301075,73784,257687,298538
1631118301085,73773,257698,298525
1631118301095,73785,257657,298544
1631118301105,73780,257657,298498
1631118301115,73775,257705,298525
1631118301125,73786,257701,298549
1631118301135,73799,257689,298511
1631118301145,73796,257658,298550
1631118301155,73802,257709,298526
1631118301165,73805,257678,298550
1631118301175,73789,257713,298543
1631118301185,73802,257696,298527
1631118301195,73800,257686,298543
1631118301205,73810,257731,298560
1631118301215,73798,257711,298563
1631118301225,73823,257751,298554
1631118301235,73807,257747,298586
1631118301245,73810,257729,298534
1631118301255,73810,257784,298577
1631118301265,73816,257736,298595
1631118301275,73823,257757,298604
1631118301285,73832,257751,298605
1631118301295,73838,257765,298620
1631118301305,73843,257767,298608
1631118301315,73835,257781,298621
1631118301325,73833,257769,298632
1631118301335,73838,257770,298627
1631118301345,73841,257770,298622
1631118301355,73848,257770,298627
1631118301365,73849,257779,298620
1631118301375,73842,257787,298603
1631118301385,73850,257755,298587
1631118301395,73860,257785,298591
1631118301405,73845,257765,298576
1631118301415,73846,257763,298587
1631118301425,73847,257762,298538
1631118301435,73853,257733,298547
1631118301445,73840,257741,298525
1631118301455,73844,257723,298510
1631118301465,73841,257733,298516
1631118301475,73834,257703,298532
1631118301485,73826,257735,298560
1631118301495,73820,257728,298508
1631118301505,73817,257679,298547
1631118301515,73817,257732,298547
1631118301525,73809,257704,298524
1631118301535,73814,257713,298563
1631118301545,73809,257742,298524
1631118301555,73829,257670,298566
1631118301565,73797,257680,298563
1631118301575,73796,257724,298601
1631118301585,73794,257664,298567
1631118301595,73796,257690,298531
1631118301605,73813,257702,298529
1631118301615,73808,257675,298538
1631118301625,73807,257687,298521
1631118301635,73799,257659,298562
1631118301645,73806,257695,298602
1631118301655,73794,257672,298528
1631118301665,73793,257712,298553
1631118301675,73805,257700,298558
1631118301685,73792,257709,298547
1631118301695,73800,257638,298551
1631118301705,73777,257688,298542
1631118301715,73791,257651,298547
1631118301725,73786,257661,298537
1631118301735,73777,257695,298507
1631118301745,73800,257697,298520
1631118301755,73785,257700,298533
1631118301765,73789,257668,298532
1631118301775,73792,257695,298540
1631118301785,73789,257699,298524
1631118301795,73790,257673,298516
1631118301805,73797,257681,298513
1631118301815,73790,257649,298508
1631118301825,73788,257677,298526
1631118301835,73791,257674,298528
1631118301845,73812,257672,298560
1631118301855,73808,257684,298551
1631118301865,73809,257673,298556
1631118301875,73785,257676,298580
1631118301885,73803,257740,298591
1631118301895,73804,257678,298578
1631118301905,73801,257730,298575
1631118301915,73820,257715,298605
1631118301925,73826,257731,298589
1631118301935,73821,257734,298560
1631118301945,73808,257695,298555
1631118301955,73818,257732,298586
1631118301965,73817,257696,298555
1631118301975,73813,257697,298558
1631118301985,73800,257696,298537
1631118301995,73803,257695,298540
1631118302005,73814,257696,298548
1631118302015,73808,257670,298541
1631118302025,73807,257672,298550
1631118302035,73816,257706,298509
1631118302045,73802,257657,298518
1631118302055,73801,257712,298492
1631118302065,73808,257664,298506
1631118302075,73816,257697,298500
1631118302085,73810,257670,298516
1631118302095,73827,257721,298528
1631118302105,73814,257692,298525
1631118302115,73836,257684,298535
1631118302125,73819,257710,298535
1631118302135,73844,257728,298582
1631118302145,73844,257757,298566
1631118302155,73833,257773,298582
1631118302165,73850,257745,298567
1631118302175,73840,257741,298584
1631118302185,73859,257766,298602
1631118302195,73868,257768,298582
1631118302205,73869,257796,298563
1631118302215,73857,257735,298546
1631118302225,73853,257760,298532
1631118302235,73861,257722,298525
1631118302245,73857,257729,298505
1631118302255,73847,257741,298475
1631118302265,73847,257748,298447
1631118302275,73847,257716,298421
1631118302285,73840,257697,298431
1631118302295,73848,257697,298438
1631118302305,73826,257705,298438
1631118302315,73821,257684,298425
1631118302325,73825,257677,298424
1631118302335,73830,257699,298438
1631118302345,73847,257691,298428
1631118302355,73842,257673,298416
1631118302365,73836,257732,298494
1631118302375,73834,257689,298479
1631118302385,73835,257689,298490
1631118302395,73839,257686,298481
1631118302405,73831,257662,298469
1631118302415,73852,257728,298479
1631118302425,73833,257724,298495
1631118302435,73842,257704,298494
1631118302445,73841,257710,298503
1631118302455,73847,257730,298507
1631118302465,73844,257716,298493
1631118302475,73857,257675,298545
1631118302485,73862,257723,298536
1631118302495,73845,257711,298532
1631118302505,73853,257735,298474
1631118302515,73846,257749,298526
1631118302525,73842,257762,298532
1631118302535,73842,257744,298527
1631118302545,73829,257704,298523
1631118302555,73822,257690,298516
1631118302565,73830,257735,298496
1631118302575,73842,257700,298483
1631118302585,73848,257725,298498
1631118302595,73839,257710,298515
1631118302605,73841,257711,298487
1631118302615,73834,257698,298536
1631118302625,73841,257689,298505
1631118302635,73844,257702,298482
1631118302645,73844,257719,298481
1631118302655,73848,257697,298495
1631118302665,73848,257731,298484
1631118302675,73854,257734,298492
1631118302685,73860,257738,298502
1631118302695,73843,257724,298505
1631118302705,73843,257727,298499
1631118302715,73849,257711,298504
1631118302725,73843,257684,298504
1631118302735,73847,257728,298527
1631118302745,73856,257705,298521
1631118302755,73857,257755,298532
1631118302765,73869,257772,298521
1631118302775,73870,257776,298552
1631118302785,73870,257741,298545
1631118302795,73860,257768,298542
1631118302805,73860,257755,298569
1631118302815,73887,257761,298549
1631118302825,73887,257780,298537
1631118302835,73879,257751,298590
1631118302845,73881,257746,298520
1631118302855,73874,257788,298563
1631118302865,73879,257794,298570
1631118302875,73878,257774,298543
1631118302885,73891,257781,298562
1631118302895,73893,257782,298564
1631118302905,73894,257792,298577
1631118302915,73887,257785,298522
1631118302925,73874,257767,298533
1631118302935,73886,257780,298511
1631118302945,73894,257769,298494
1631118302955,73885,257743,298505
1631118302965,73878,257779,298501
1631118302975,73884,257756,298497
1631118302985,73885,257789,298500
1631118302995,73896,257783,298517
1631118303005,73895,257783,298500
1631118303015,73898,257797,298504
1631118303025,73920,257771,298495
1631118303035,73894,257789,298476
1631118303045,73905,257821,298510
1631118303055,73905,257792,298498
1631118303065,73916,257821,298550
1631118303075,73908,257809,298511
1631118303085,73918,257781,298527
1631118303095,73928,257790,298521
1631118303105,73915,257795,298455
1631118303115,73912,257838,298475
1631118303125,73914,257790,298509
1631118303135,73922,257765,298469
1631118303145,73911,257762,298442
1631118303155,73927,257714,298460
1631118303165,73908,257781,298476
1631118303175,73910,257755,298482
1631118303185,73889,257742,298462
1631118303195,73881,257762,298487
1631118303205,73890,257761,298439
1631118303215,73890,257794,298494
1631118303225,73892,257772,298511
1631118303235,73910,257773,298480
1631118303245,73899,257776,298511
1631118303255,73894,257776,298505
1631118303265,73911,257724,298500
1631118303275,73902,257776,298477
1631118303285,73892,257759,298483
1631118303295,73902,257778,298506
1631118303305,73904,257760,298477
1631118303315,73902,257783,298474
1631118303325,73890,257791,298426
1631118303335,73898,257776,298431
1631118303345,73897,257727,298437
1631118303355,73882,257763,298417
1631118303365,73877,257737,298425
1631118303375,73891,257740,298384
1631118303385,73888,257752,298379
1631118303395,73892,257731,298379
1631118303405,73877,257716,298375
1631118303415,73876,257755,298394
1631118303425,73883,257743,298421
1631118303435,73878,257743,298439
1631118303445,73875,257723,298427
1631118303455,73892,257723,298438
1631118303465,73899,257736,298458
1631118303475,73904,257735,298454
1631118303485,73896,257762,298435
1631118303495,73896,257698,298436
1631118303505,73892,257742,298432
1631118303515,73883,257711,298398
1631118303525,73889,257722,298428
1631118303535,73897,257717,298424
1631118303545,73904,257720,298418
1631118303555,73903,257768,298414
1631118303565,73904,257764,298424
1631118303575,73903,257786,298441
1631118303585,73906,257757,298458
1631118303595,73920,257750,298449
1631118303605,73908,257734,298457
1631118303615,73923,257810,298437
1631118303625,73925,257744,298446
1631118303635,73932,257766,298448
1631118303645,73931,257784,298475
1631118303655,73933,257799,298487
1631118303665,73924,257782,298471
1631118303675,73919,257779,298444
1631118303685,73936,257805,298502
1631118303695,73916,257777,298468
1631118303705,73931,257790,298491
1631118303715,73935,257780,298496
1631118303725,73942,257810,298510
1631118303735,73949,257790,298510
1631118303745,73950,257850,298529
1631118303755,73953,257854,298514
1631118303765,73943,257852,298527
1631118303775,73971,257814,298500
1631118303785,73956,257822,298497
1631118303795,73943,257853,298514
1631118303805,73978,257839,298510
1631118303815,73954,257811,298500
1631118303825,73963,257820,298492
1631118303835,73967,257851,298514
1631118303845,73969,257837,298557
1631118303855,73968,257840,298504
1631118303865,73970,257862,298542
1631118303875,73973,257851,298532
1631118303885,73980,257873,298529
1631118303895,73984,257872,298519
1631118303905,73976,257852,298522
1631118303915,73968,257834,298524
1631118303925,73972,257883,298486
1631118303935,73988,257841,298480
1631118303945,73979,257832,298463
1631118303955,73966,257803,298438
1631118303965,73972,257787,298447
1631118303975,73953,257761,298441
1631118303985,73972,257830,298486
1631118303995,73942,257797,298466
1631118304005,73950,257808,298462
1631118304015,73942,257764,298441
1631118304025,73948,257789,298471
1631118304035,73954,257760,298464
1631118304045,73952,257761,298472
1631118304055,73946,257782,298463
1631118304065,73934,257781,298459
1631118304075,73950,257788,298440
1631118304085,73933,257787,298456
1631118304095,73936,257755,298444
1631118304105,73947,257782,298454
1631118304115,73936,257771,298415
1631118304125,73941,257797,298449
1631118304135,73937,257765,298439
1631118304145,73940,257757,298462
1631118304155,73929,257811,298507
1631118304165,73940,257761,298469
1631118304175,73953,257794,298480
1631118304185,73943,257757,298476
1631118304195,73955,257835,298487
1631118304205,73948,257790,298490
1631118304215,73942,257806,298459
1631118304225,73939,257816,298464
1631118304235,73942,257765,298453
1631118304245,73932,257762,298475
1631118304255,73929,257781,298474
1631118304265,73941,257792,298467
1631118304275,73947,257775,298489
1631118304285,73946,257791,298485
1631118304295,73946,257783,298471
1631118304305,73949,257734,298501
1631118304315,73945,257795,298495
1631118304325,73938,257807,298517
1631118304335,73945,257747,298482
1631118304345,73937,257758,298470
1631118304355,73950,257754,298496
1631118304365,73947,257799,298457
1631118304375,73941,257761,298462
1631118304385,73948,257765,298495
1631118304395,73967,257776,298493
1631118304405,73943,257738,298489
1631118304415,73950,257776,298510
1631118304425,73963,257798,298453
1631118304435,73956,257789,298489
1631118304445,73962,257815,298481
1631118304455,73948,257757,298478
1631118304465,73947,257787,298453
1631118304475,73950,257798,298490
1631118304485,73949,257796,298463
1631118304495,73955,257772,298470
1631118304505,73952,257790,298478
1631118304515,73961,257795,298499
1631118304525,73971,257813,298498
1631118304535,73966,257809,298465
1631118304545,73962,257797,298468
1631118304555,73966,257834,298511
1631118304565,73966,257789,298471
1631118304575,73965,257807,298508
1631118304585,73983,257821,298484
1631118304595,73964,257841,298513
1631118304605,73978,257787,298493
1631118304615,73967,257842,298464
1631118304625,73987,257831,298460
1631118304635,73971,257809,298473
1631118304645,73976,257830,298456
1631118304655,73974,257818,298490
1631118304665,73975,257786,298497
1631118304675,73975,257813,298482
1631118304685,73994,257832,298454
1631118304695,73982,257809,298472
1631118304705,73985,257766,298486
1631118304715,73988,257826,298470
1631118304725,73981,257817,298455
1631118304735,73993,257805,298487
1631118304745,73990,257823,298460
1631118304755,73993,257784,298418
1631118304765,73969,257788,298388
1631118304775,73983,257800,298369
1631118304785,73977,257739,298353
1631118304795,73968,257790,298355
1631118304805,73958,257772,298323
1631118304815,73964,257744,298342
1631118304825,73957,257752,298354
1631118304835,73951,257737,298360
1631118304845,73950,257711,298346
1631118304855,73959,257774,298357
1631118304865,73934,257726,298340
1631118304875,73939,257704,298373
1631118304885,73937,257727,298360
1631118304895,73930,257708,298350
1631118304905,73929,257711,298352
1631118304915,73938,257725,298352
1631118304925,73933,257697,298318
1631118304935,73912,257687,298354
1631118304945,73916,257685,298320
1631118304955,73920,257689,298341
1631118304965,73906,257655,298324
1631118304975,73902,257715,298307
1631118304985,73902,257707,298348
1631118304995,73921,257667,298373
1631118305005,73902,257673,298330
1631118305015,73904,257684,298361
1631118305025,73912,257650,298356
1631118305035,73879,257657,298349
1631118305045,73892,257701,298388
1631118305055,73891,257634,298360
1631118305065,73886,257666,298337
1631118305075,73902,257656,298340
1631118305085,73893,257627,298337
1631118305095,73883,257626,298332
1631118305105,73867,257665,298329
1631118305115,73873,257645,298270
1631118305125,73881,257628,298319
1631118305135,73888,257612,298296
1631118305145,73874,257627,298313
1631118305155,73873,257633,298291
1631118305165,73888,257615,298318
1631118305175,73865,257636,298322
1631118305185,73869,257640,298345
1631118305195,73878,257623,298336
1631118305205,73866,257640,298308
1631118305215,73862,257650,298314
1631118305225,73856,257639,298310
1631118305235,73876,257638,298296
1631118305245,73864,257649,298353
1631118305255,73871,257650,298326
1631118305265,73865,257616,298312
1631118305275,73871,257640,298325
1631118305285,73861,257633,298316
1631118305295,73872,257678,298329
1631118305305,73867,257620,298325
1631118305315,73869,257644,298334
1631118305325,73875,257648,298345
1631118305335,73873,257619,298323
1631118305345,73877,257664,298344
1631118305355,73864,257642,298337
1631118305365,73866,257639,298327
1631118305375,73875,257681,298334
1631118305385,73872,257658,298323
1631118305395,73864,257627,298364
1631118305405,73871,257636,298315
1631118305415,73883,257651,298313
1631118305425,73873,257700,298319
1631118305435,73875,257673,298339
1631118305445,73880,257660,298320
1631118305455,73877,257648,298357
1631118305465,73883,257662,298327
1631118305475,73874,257641,298322
1631118305485,73881,257626,298337
1631118305495,73883,257669,298303
1631118305505,73883,257676,298335
1631118305515,73874,257699,298296
1631118305525,73877,257678,298338
1631118305535,73886,257692,298323
1631118305545,73882,257673,298377
1631118305555,73889,257686,298323
1631118305565,73887,257687,298326
1631118305575,73896,257687,298335
1631118305585,73893,257700,298325
1631118305595,73886,257667,298339
1631118305605,73887,257700,298254
1631118305615,73884,257644,298276
1631118305625,73882,257681,298283
1631118305635,73875,257605,298258
1631118305645,73864,257653,298269
1631118305655,73863,257639,298247
1631118305665,73863,257624,298244
1631118305675,73850,257615,298267
1631118305685,73845,257599,298251
1631118305695,73839,257588,298224
1631118305705,73821,257581,298220
1631118305715,73816,257585,298257
1631118305725,73811,257603,298241
1631118305735,73796,257574,298251
1631118305745,73820,257560,298213
1631118305755,73803,257562,298224
1631118305765,73821,257605,298219
1631118305775,73800,257566,298231
1631118305785,73788,257595,298218
1631118305795,73789,257571,298175
1631118305805,73784,257575,298203
1631118305815,73786,257565,298216
1631118305825,73780,257548,298242
1631118305835,73781,257559,298199
1631118305845,73782,257561,298227
1631118305855,73772,257563,298224
1631118305865,73780,257568,298219
1631118305875,73772,257544,298249
1631118305885,73773,257577,298196
1631118305895,73769,257552,298219
1631118305905,73772,257545,298229
1631118305915,73755,257584,298238
1631118305925,73754,257535,298242
1631118305935,73748,257516,298216
1631118305945,73745,257487,298197
1631118305955,73736,257543,298224
1631118305965,73734,257546,298212
1631118305975,73727,257518,298200
1631118305985,73736,257492,298204
1631118305995,73738,257534,298205
1631118306005,73719,257549,298221
1631118306015,73724,257531,298184
1631118306025,73721,257509,298204
1631118306035,73720,257509,298180
1631118306045,73729,257510,298211
1631118306055,73726,257494,298208
1631118306065,73733,257546,298222
1631118306075,73726,257542,298204
1631118306085,73732,257511,298223
1631118306095,73726,257571,298214
1631118306105,73719,257539,298212
1631118306115,73719,257513,298201
1631118306125,73731,257531,298240
1631118306135,73730,257527,298232
1631118306145,73729,257546,298242
1631118306155,73727,257554,298217
1631118306165,73733,257503,298225
1631118306175,73730,257567,298230
1631118306185,73726,257500,298238
1631118306195,73736,257547,298238
1631118306205,73728,257563,298216
1631118306215,73736,257532,298214
1631118306225,73720,257555,298230
1631118306235,73720,257558,298243
1631118306245,73718,257536,298230
1631118306255,73733,257542,298240
1631118306265,73725,257542,298249
1631118306275,73733,257574,298247
