timestamp,ecg_waveform
1629795340002,2046
1629795340006,2046
1629795340010,2046
1629795340014,2047
1629795340018,2048
1629795340022,2049
1629795340026,2050
1629795340030,2051
1629795340034,2051
1629795340038,2051
1629795340042,2051
1629795340046,2051
1629795340050,2051
1629795340054,2052
1629795340058,2053
1629795340062,2054
1629795340066,2056
1629795340070,2057
1629795340074,2059
1629795340078,2060
1629795340082,2061
1629795340086,2061
1629795340090,2061
1629795340094,2062
1629795340098,2064
1629795340102,2066
1629795340106,2068
1629795340110,2070
1629795340114,2071
1629795340118,2072
1629795340122,2074
1629795340126,2076
1629795340130,2079
1629795340134,2081
1629795340138,2084
1629795340142,2085
1629795340146,2087
1629795340150,2088
1629795340154,2089
1629795340158,2090
1629795340162,2090
1629795340166,2090
1629795340170,2089
1629795340174,2089
1629795340178,2088
1629795340182,2087
1629795340186,2086
1629795340190,2084
1629795340194,2081
1629795340198,2077
1629795340202,2072
1629795340206,2067
1629795340210,2062
1629795340214,2059
1629795340218,2056
1629795340222,2053
1629795340226,2050
1629795340230,2048
1629795340234,2046
1629795340238,2043
1629795340242,2041
1629795340246,2040
1629795340250,2039
1629795340254,2038
1629795340258,2037
1629795340262,2037
1629795340266,2036
1629795340270,2036
1629795340274,2036
1629795340278,2035
1629795340282,2036
1629795340286,2036
1629795340290,2036
1629795340294,2037
1629795340298,2038
1629795340302,2039
1629795340306,2040
1629795340310,2041
1629795340314,2042
1629795340318,2042
1629795340322,2042
1629795340326,2043
1629795340330,2043
1629795340334,2044
1629795340338,2045
1629795340342,2046
1629795340346,2046
1629795340350,2047
1629795340354,2047
1629795340358,2046
1629795340362,2046
1629795340366,2046
1629795340370,2046
1629795340374,2046
1629795340378,2047
1629795340382,2047
1629795340386,2047
1629795340390,2047
1629795340394,2047
1629795340398,2046
1629795340402,2045
1629795340406,2045
1629795340410,2045
1629795340414,2045
1629795340418,2045
1629795340422,2045
1629795340426,2045
1629795340430,2045
1629795340434,2044
1629795340438,2043
1629795340442,2043
1629795340446,2042
1629795340450,2042
1629795340454,2042
1629795340458,2042
1629795340462,2042
1629795340466,2043
1629795340470,2043
1629795340474,2043
1629795340478,2043
1629795340482,2042
1629795340486,2042
1629795340490,2042
1629795340494,2042
1629795340498,2043
1629795340502,2043
1629795340506,2042
1629795340510,2042
1629795340514,2041
1629795340518,2041
1629795340522,2042
1629795340526,2042
1629795340530,2042
1629795340534,2042
1629795340538,2041
1629795340542,2040
1629795340546,2040
1629795340550,2040
1629795340554,2041
1629795340558,2041
1629795340562,2043
1629795340566,2044
1629795340570,2047
1629795340574,2050
1629795340578,2053
1629795340582,2055
1629795340586,2055
1629795340590,2053
1629795340594,2050
1629795340598,2047
1629795340602,2045
1629795340606,2043
1629795340610,2043
1629795340614,2043
1629795340618,2043
1629795340622,2044
1629795340626,2045
1629795340630,2046
1629795340634,2046
1629795340638,2045
1629795340642,2043
1629795340646,2039
1629795340650,2035
1629795340654,2037
1629795340658,2050
1629795340662,2083
1629795340666,2134
1629795340670,2192
1629795340674,2235
1629795340678,2244
1629795340682,2213
1629795340686,2154
1629795340690,2090
1629795340694,2044
1629795340698,2023
1629795340702,2025
1629795340706,2036
1629795340710,2045
1629795340714,2048
1629795340718,2045
1629795340722,2042
1629795340726,2040
1629795340730,2039
1629795340734,2039
1629795340738,2039
1629795340742,2040
1629795340746,2040
1629795340750,2040
1629795340754,2040
1629795340758,2039
1629795340762,2039
1629795340766,2039
1629795340770,2040
1629795340774,2040
1629795340778,2041
1629795340782,2042
1629795340786,2042
1629795340790,2043
1629795340794,2042
1629795340798,2043
1629795340802,2042
1629795340806,2043
1629795340810,2043
1629795340814,2044
1629795340818,2044
1629795340822,2045
1629795340826,2046
1629795340830,2046
1629795340834,2047
1629795340838,2047
1629795340842,2048
1629795340846,2048
1629795340850,2049
1629795340854,2050
1629795340858,2052
1629795340862,2053
1629795340866,2055
1629795340870,2056
1629795340874,2057
1629795340878,2058
1629795340882,2059
1629795340886,2061
1629795340890,2063
1629795340894,2065
1629795340898,2067
1629795340902,2070
1629795340906,2072
1629795340910,2074
1629795340914,2076
1629795340918,2077
1629795340922,2078
1629795340926,2079
1629795340930,2080
1629795340934,2081
1629795340938,2082
1629795340942,2082
1629795340946,2082
1629795340950,2081
1629795340954,2079
1629795340958,2076
1629795340962,2073
1629795340966,2069
1629795340970,2065
1629795340974,2061
1629795340978,2057
1629795340982,2053
1629795340986,2050
1629795340990,2048
1629795340994,2044
1629795340998,2041
1629795341002,2039
1629795341006,2037
1629795341010,2036
1629795341014,2035
1629795341018,2035
1629795341022,2034
1629795341026,2034
1629795341030,2033
1629795341034,2032
1629795341038,2032
1629795341042,2031
1629795341046,2031
1629795341050,2031
1629795341054,2031
1629795341058,2032
1629795341062,2033
1629795341066,2033
1629795341070,2033
1629795341074,2033
1629795341078,2033
1629795341082,2034
1629795341086,2034
1629795341090,2035
1629795341094,2036
1629795341098,2037
1629795341102,2038
1629795341106,2039
1629795341110,2040
1629795341114,2040
1629795341118,2040
1629795341122,2040
1629795341126,2040
1629795341130,2040
1629795341134,2041
1629795341138,2042
1629795341142,2043
1629795341146,2043
1629795341150,2043
1629795341154,2043
1629795341158,2042
1629795341162,2042
1629795341166,2042
1629795341170,2042
1629795341174,2042
1629795341178,2042
1629795341182,2042
1629795341186,2042
1629795341190,2042
1629795341194,2042
1629795341198,2042
1629795341202,2041
1629795341206,2041
1629795341210,2041
1629795341214,2041
1629795341218,2041
1629795341222,2042
1629795341226,2042
1629795341230,2041
1629795341234,2041
1629795341238,2041
1629795341242,2040
1629795341246,2040
1629795341250,2040
1629795341254,2041
1629795341258,2041
1629795341262,2041
1629795341266,2042
1629795341270,2042
1629795341274,2042
1629795341278,2041
1629795341282,2041
1629795341286,2041
1629795341290,2041
1629795341294,2041
1629795341298,2041
1629795341302,2040
1629795341306,2039
1629795341310,2038
1629795341314,2038
1629795341318,2038
1629795341322,2038
1629795341326,2039
1629795341330,2041
1629795341334,2043
1629795341338,2046
1629795341342,2049
1629795341346,2052
1629795341350,2054
1629795341354,2054
1629795341358,2052
1629795341362,2049
1629795341366,2048
1629795341370,2046
1629795341374,2045
1629795341378,2044
1629795341382,2044
1629795341386,2044
1629795341390,2044
1629795341394,2044
1629795341398,2044
1629795341402,2045
1629795341406,2045
1629795341410,2044
1629795341414,2042
1629795341418,2038
1629795341422,2035
1629795341426,2040
1629795341430,2060
1629795341434,2105
1629795341438,2166
1629795341442,2226
1629795341446,2261
1629795341450,2254
1629795341454,2208
1629795341458,2141
1629795341462,2081
1629795341466,2044
1629795341470,2033
1629795341474,2037
1629795341478,2044
1629795341482,2047
1629795341486,2044
1629795341490,2042
1629795341494,2041
1629795341498,2040
1629795341502,2040
1629795341506,2039
1629795341510,2039
1629795341514,2038
1629795341518,2038
1629795341522,2038
1629795341526,2038
1629795341530,2039
1629795341534,2039
1629795341538,2040
1629795341542,2040
1629795341546,2041
1629795341550,2041
1629795341554,2041
1629795341558,2041
1629795341562,2041
1629795341566,2041
1629795341570,2042
1629795341574,2042
1629795341578,2043
1629795341582,2044
1629795341586,2044
1629795341590,2045
1629795341594,2045
1629795341598,2046
1629795341602,2046
1629795341606,2047
1629795341610,2047
1629795341614,2048
1629795341618,2049
1629795341622,2051
1629795341626,2052
1629795341630,2053
1629795341634,2054
1629795341638,2055
1629795341642,2056
1629795341646,2057
1629795341650,2059
1629795341654,2061
1629795341658,2063
1629795341662,2066
1629795341666,2068
1629795341670,2070
1629795341674,2072
1629795341678,2074
1629795341682,2075
1629795341686,2077
1629795341690,2079
1629795341694,2081
1629795341698,2082
1629795341702,2083
1629795341706,2084
1629795341710,2085
1629795341714,2085
1629795341718,2084
1629795341722,2082
1629795341726,2081
1629795341730,2078
1629795341734,2075
1629795341738,2071
1629795341742,2067
1629795341746,2063
1629795341750,2059
1629795341754,2055
1629795341758,2051
1629795341762,2048
1629795341766,2046
1629795341770,2044
1629795341774,2042
1629795341778,2040
1629795341782,2039
1629795341786,2038
1629795341790,2037
1629795341794,2036
1629795341798,2036
1629795341802,2035
1629795341806,2035
1629795341810,2034
1629795341814,2034
1629795341818,2035
1629795341822,2036
1629795341826,2036
1629795341830,2037
1629795341834,2037
1629795341838,2036
1629795341842,2036
1629795341846,2036
1629795341850,2036
1629795341854,2037
1629795341858,2038
1629795341862,2039
1629795341866,2040
1629795341870,2041
1629795341874,2041
1629795341878,2042
1629795341882,2042
1629795341886,2043
1629795341890,2043
1629795341894,2044
1629795341898,2045
1629795341902,2045
1629795341906,2046
1629795341910,2046
1629795341914,2046
1629795341918,2046
1629795341922,2046
1629795341926,2046
1629795341930,2046
1629795341934,2046
1629795341938,2047
1629795341942,2047
1629795341946,2047
1629795341950,2047
1629795341954,2046
1629795341958,2046
1629795341962,2045
1629795341966,2045
1629795341970,2045
1629795341974,2045
1629795341978,2046
1629795341982,2046
1629795341986,2046
1629795341990,2046
1629795341994,2046
1629795341998,2045
1629795342002,2045
1629795342006,2044
1629795342010,2044
1629795342014,2045
1629795342018,2045
1629795342022,2046
1629795342026,2046
1629795342030,2046
1629795342034,2045
1629795342038,2045
1629795342042,2045
1629795342046,2045
1629795342050,2045
1629795342054,2045
1629795342058,2046
1629795342062,2046
1629795342066,2046
1629795342070,2046
1629795342074,2046
1629795342078,2046
1629795342082,2045
1629795342086,2045
1629795342090,2045
1629795342094,2046
1629795342098,2046
1629795342102,2047
1629795342106,2047
1629795342110,2046
1629795342114,2045
1629795342118,2043
1629795342122,2042
1629795342126,2042
1629795342130,2043
1629795342134,2045
1629795342138,2047
1629795342142,2048
1629795342146,2049
1629795342150,2052
1629795342154,2054
1629795342158,2057
1629795342162,2058
1629795342166,2058
1629795342170,2057
1629795342174,2055
1629795342178,2053
1629795342182,2051
1629795342186,2050
1629795342190,2049
1629795342194,2048
1629795342198,2048
1629795342202,2048
1629795342206,2048
1629795342210,2048
1629795342214,2049
1629795342218,2050
1629795342222,2050
1629795342226,2048
1629795342230,2046
1629795342234,2041
1629795342238,2042
1629795342242,2055
1629795342246,2092
1629795342250,2148
1629795342254,2211
1629795342258,2255
1629795342262,2262
1629795342266,2226
1629795342270,2162
1629795342274,2097
1629795342278,2052
1629795342282,2035
1629795342286,2037
1629795342290,2046
1629795342294,2051
1629795342298,2050
1629795342302,2048
1629795342306,2047
1629795342310,2045
1629795342314,2044
1629795342318,2043
1629795342322,2042
1629795342326,2042
1629795342330,2042
1629795342334,2042
1629795342338,2043
1629795342342,2043
1629795342346,2043
1629795342350,2044
1629795342354,2044
1629795342358,2043
1629795342362,2043
1629795342366,2043
1629795342370,2044
1629795342374,2044
1629795342378,2045
1629795342382,2046
1629795342386,2046
1629795342390,2046
1629795342394,2047
1629795342398,2047
1629795342402,2047
1629795342406,2047
1629795342410,2048
1629795342414,2048
1629795342418,2050
1629795342422,2051
1629795342426,2052
1629795342430,2053
1629795342434,2053
1629795342438,2054
1629795342442,2055
1629795342446,2056
1629795342450,2057
1629795342454,2059
1629795342458,2060
1629795342462,2062
1629795342466,2064
1629795342470,2066
1629795342474,2067
1629795342478,2069
1629795342482,2070
1629795342486,2071
1629795342490,2073
1629795342494,2075
1629795342498,2078
1629795342502,2080
1629795342506,2082
1629795342510,2083
1629795342514,2084
1629795342518,2084
1629795342522,2084
1629795342526,2085
1629795342530,2085
1629795342534,2084
1629795342538,2084
1629795342542,2082
1629795342546,2080
1629795342550,2076
1629795342554,2072
1629795342558,2068
1629795342562,2063
1629795342566,2059
1629795342570,2055
1629795342574,2052
1629795342578,2049
1629795342582,2048
1629795342586,2045
1629795342590,2043
1629795342594,2042
1629795342598,2040
1629795342602,2039
1629795342606,2038
1629795342610,2037
1629795342614,2037
1629795342618,2037
1629795342622,2037
1629795342626,2037
1629795342630,2037
1629795342634,2036
1629795342638,2036
1629795342642,2035
1629795342646,2036
1629795342650,2037
1629795342654,2037
1629795342658,2038
1629795342662,2039
1629795342666,2039
1629795342670,2040
1629795342674,2040
1629795342678,2041
1629795342682,2041
1629795342686,2042
1629795342690,2042
1629795342694,2043
1629795342698,2044
1629795342702,2045
1629795342706,2046
1629795342710,2046
1629795342714,2046
1629795342718,2046
1629795342722,2046
1629795342726,2046
1629795342730,2046
1629795342734,2046
1629795342738,2047
1629795342742,2047
1629795342746,2047
1629795342750,2047
1629795342754,2046
1629795342758,2046
1629795342762,2046
1629795342766,2046
1629795342770,2045
1629795342774,2045
1629795342778,2046
1629795342782,2046
1629795342786,2046
1629795342790,2046
1629795342794,2046
1629795342798,2045
1629795342802,2044
1629795342806,2044
1629795342810,2044
1629795342814,2044
1629795342818,2044
1629795342822,2044
1629795342826,2044
1629795342830,2044
1629795342834,2044
1629795342838,2044
1629795342842,2043
1629795342846,2043
1629795342850,2043
1629795342854,2044
1629795342858,2044
1629795342862,2045
1629795342866,2045
1629795342870,2045
1629795342874,2044
1629795342878,2044
1629795342882,2044
1629795342886,2044
1629795342890,2044
1629795342894,2044
1629795342898,2044
1629795342902,2044
1629795342906,2045
1629795342910,2045
1629795342914,2045
1629795342918,2045
1629795342922,2044
1629795342926,2044
1629795342930,2044
1629795342934,2045
1629795342938,2045
1629795342942,2046
1629795342946,2046
1629795342950,2046
1629795342954,2045
1629795342958,2043
1629795342962,2042
1629795342966,2042
1629795342970,2043
1629795342974,2045
1629795342978,2047
1629795342982,2048
1629795342986,2050
1629795342990,2052
1629795342994,2055
1629795342998,2057
1629795343002,2058
1629795343006,2057
1629795343010,2055
1629795343014,2052
1629795343018,2050
1629795343022,2048
1629795343026,2048
1629795343030,2048
1629795343034,2048
1629795343038,2047
1629795343042,2047
1629795343046,2047
1629795343050,2048
1629795343054,2048
1629795343058,2049
1629795343062,2048
1629795343066,2046
1629795343070,2041
1629795343074,2039
1629795343078,2046
1629795343082,2071
1629795343086,2120
1629795343090,2181
1629795343094,2235
1629795343098,2257
1629795343102,2237
1629795343106,2183
1629795343110,2116
1629795343114,2062
1629795343118,2035
1629795343122,2031
1629795343126,2040
1629795343130,2048
1629795343134,2050
1629795343138,2048
1629795343142,2047
1629795343146,2045
1629795343150,2044
1629795343154,2043
1629795343158,2043
1629795343162,2042
1629795343166,2042
1629795343170,2041
1629795343174,2041
1629795343178,2042
1629795343182,2042
1629795343186,2042
1629795343190,2043
1629795343194,2043
1629795343198,2043
1629795343202,2043
1629795343206,2043
1629795343210,2043
1629795343214,2044
1629795343218,2045
1629795343222,2046
1629795343226,2047
1629795343230,2047
1629795343234,2047
1629795343238,2047
1629795343242,2047
1629795343246,2047
1629795343250,2048
1629795343254,2048
1629795343258,2049
1629795343262,2051
1629795343266,2052
1629795343270,2052
1629795343274,2053
1629795343278,2054
1629795343282,2055
1629795343286,2056
1629795343290,2057
1629795343294,2059
1629795343298,2061
1629795343302,2063
1629795343306,2065
1629795343310,2066
1629795343314,2068
1629795343318,2070
1629795343322,2071
1629795343326,2073
1629795343330,2075
1629795343334,2076
1629795343338,2078
1629795343342,2080
1629795343346,2082
1629795343350,2083
1629795343354,2083
1629795343358,2083
1629795343362,2083
1629795343366,2083
1629795343370,2083
1629795343374,2082
1629795343378,2081
1629795343382,2079
1629795343386,2077
1629795343390,2073
1629795343394,2069
1629795343398,2065
1629795343402,2061
1629795343406,2057
1629795343410,2053
1629795343414,2050
1629795343418,2048
1629795343422,2047
1629795343426,2045
1629795343430,2043
1629795343434,2041
1629795343438,2039
1629795343442,2038
1629795343446,2037
1629795343450,2037
1629795343454,2037
1629795343458,2037
1629795343462,2037
1629795343466,2038
1629795343470,2038
1629795343474,2037
1629795343478,2037
1629795343482,2036
1629795343486,2036
1629795343490,2037
1629795343494,2038
1629795343498,2039
1629795343502,2039
1629795343506,2040
1629795343510,2041
1629795343514,2041
1629795343518,2042
1629795343522,2042
1629795343526,2043
1629795343530,2043
1629795343534,2044
1629795343538,2045
1629795343542,2046
1629795343546,2047
1629795343550,2047
1629795343554,2047
1629795343558,2047
1629795343562,2047
1629795343566,2047
1629795343570,2046
1629795343574,2047
1629795343578,2047
1629795343582,2047
1629795343586,2048
1629795343590,2047
1629795343594,2047
1629795343598,2047
1629795343602,2046
1629795343606,2046
1629795343610,2046
1629795343614,2046
1629795343618,2046
1629795343622,2046
1629795343626,2046
1629795343630,2046
1629795343634,2045
1629795343638,2045
1629795343642,2044
1629795343646,2044
1629795343650,2044
1629795343654,2045
1629795343658,2045
1629795343662,2045
1629795343666,2046
1629795343670,2046
1629795343674,2045
1629795343678,2045
1629795343682,2045
1629795343686,2045
1629795343690,2044
1629795343694,2045
1629795343698,2045
1629795343702,2045
1629795343706,2046
1629795343710,2046
1629795343714,2045
1629795343718,2045
1629795343722,2045
1629795343726,2045
1629795343730,2045
1629795343734,2045
1629795343738,2046
1629795343742,2046
1629795343746,2046
1629795343750,2046
1629795343754,2046
1629795343758,2046
1629795343762,2045
1629795343766,2046
1629795343770,2046
1629795343774,2046
1629795343778,2047
1629795343782,2047
1629795343786,2047
1629795343790,2047
1629795343794,2047
1629795343798,2047
1629795343802,2046
1629795343806,2046
1629795343810,2046
1629795343814,2047
1629795343818,2047
1629795343822,2047
1629795343826,2047
1629795343830,2046
1629795343834,2045
1629795343838,2045
1629795343842,2045
1629795343846,2046
1629795343850,2047
1629795343854,2048
1629795343858,2050
1629795343862,2053
1629795343866,2056
1629795343870,2059
1629795343874,2061
1629795343878,2061
1629795343882,2059
1629795343886,2056
1629795343890,2053
1629795343894,2051
1629795343898,2050
1629795343902,2049
1629795343906,2049
1629795343910,2049
1629795343914,2048
1629795343918,2048
1629795343922,2048
1629795343926,2049
1629795343930,2049
1629795343934,2049
1629795343938,2048
1629795343942,2045
1629795343946,2041
1629795343950,2042
1629795343954,2053
1629795343958,2086
1629795343962,2140
1629795343966,2199
1629795343970,2244
1629795343974,2252
1629795343978,2220
1629795343982,2160
1629795343986,2097
1629795343990,2051
1629795343994,2034
1629795343998,2036
1629795344002,2045
1629795344006,2051
1629795344010,2051
1629795344014,2048
1629795344018,2047
1629795344022,2046
1629795344026,2045
1629795344030,2045
1629795344034,2045
1629795344038,2044
1629795344042,2043
1629795344046,2043
1629795344050,2043
1629795344054,2044
1629795344058,2044
1629795344062,2045
1629795344066,2046
1629795344070,2046
1629795344074,2046
1629795344078,2046
1629795344082,2046
1629795344086,2046
1629795344090,2046
1629795344094,2047
1629795344098,2048
1629795344102,2048
1629795344106,2049
1629795344110,2049
1629795344114,2050
1629795344118,2050
1629795344122,2050
1629795344126,2050
1629795344130,2051
1629795344134,2052
1629795344138,2054
1629795344142,2055
1629795344146,2057
1629795344150,2058
1629795344154,2058
1629795344158,2059
1629795344162,2059
1629795344166,2060
1629795344170,2062
1629795344174,2063
1629795344178,2065
1629795344182,2067
1629795344186,2069
1629795344190,2071
1629795344194,2073
1629795344198,2075
1629795344202,2076
1629795344206,2078
1629795344210,2080
1629795344214,2082
1629795344218,2083
1629795344222,2084
1629795344226,2086
1629795344230,2086
1629795344234,2086
1629795344238,2086
1629795344242,2085
1629795344246,2085
1629795344250,2083
1629795344254,2082
1629795344258,2081
1629795344262,2078
1629795344266,2075
1629795344270,2071
1629795344274,2067
1629795344278,2063
1629795344282,2059
1629795344286,2055
1629795344290,2052
1629795344294,2050
1629795344298,2048
1629795344302,2047
1629795344306,2045
1629795344310,2044
1629795344314,2042
1629795344318,2041
1629795344322,2040
1629795344326,2039
1629795344330,2038
1629795344334,2038
1629795344338,2038
1629795344342,2039
1629795344346,2039
1629795344350,2039
1629795344354,2039
1629795344358,2038
1629795344362,2038
1629795344366,2038
1629795344370,2038
1629795344374,2040
1629795344378,2041
1629795344382,2043
1629795344386,2044
1629795344390,2044
1629795344394,2045
1629795344398,2044
1629795344402,2044
1629795344406,2045
1629795344410,2046
1629795344414,2047
1629795344418,2048
1629795344422,2048
1629795344426,2048
1629795344430,2048
1629795344434,2048
1629795344438,2047
1629795344442,2047
1629795344446,2047
1629795344450,2048
1629795344454,2048
1629795344458,2048
1629795344462,2048
1629795344466,2047
1629795344470,2047
1629795344474,2048
1629795344478,2048
1629795344482,2048
1629795344486,2047
1629795344490,2047
1629795344494,2046
1629795344498,2047
1629795344502,2047
1629795344506,2048
1629795344510,2048
1629795344514,2047
1629795344518,2046
1629795344522,2045
1629795344526,2045
1629795344530,2045
1629795344534,2046
1629795344538,2046
1629795344542,2046
1629795344546,2046
1629795344550,2046
1629795344554,2046
1629795344558,2046
1629795344562,2046
1629795344566,2046
1629795344570,2046
1629795344574,2046
1629795344578,2046
1629795344582,2047
1629795344586,2047
1629795344590,2047
1629795344594,2047
1629795344598,2047
1629795344602,2046
1629795344606,2046
1629795344610,2046
1629795344614,2047
1629795344618,2047
1629795344622,2048
1629795344626,2048
1629795344630,2048
1629795344634,2048
1629795344638,2048
1629795344642,2047
1629795344646,2047
1629795344650,2047
1629795344654,2047
1629795344658,2048
1629795344662,2048
1629795344666,2048
1629795344670,2048
1629795344674,2048
1629795344678,2047
1629795344682,2047
1629795344686,2047
1629795344690,2048
1629795344694,2049
1629795344698,2051
1629795344702,2052
1629795344706,2053
1629795344710,2054
1629795344714,2057
1629795344718,2060
1629795344722,2061
1629795344726,2061
1629795344730,2058
1629795344734,2055
1629795344738,2052
1629795344742,2050
1629795344746,2050
1629795344750,2050
1629795344754,2050
1629795344758,2049
1629795344762,2049
1629795344766,2048
1629795344770,2049
1629795344774,2050
1629795344778,2051
1629795344782,2050
1629795344786,2048
1629795344790,2044
1629795344794,2043
1629795344798,2053
1629795344802,2082
1629795344806,2132
1629795344810,2188
1629795344814,2231
1629795344818,2241
1629795344822,2211
1629795344826,2151
1629795344830,2087
1629795344834,2040
1629795344838,2019
1629795344842,2023
1629795344846,2037
1629795344850,2048
1629795344854,2052
1629795344858,2051
1629795344862,2048
1629795344866,2047
1629795344870,2047
1629795344874,2047
1629795344878,2047
1629795344882,2046
1629795344886,2045
1629795344890,2044
1629795344894,2044
1629795344898,2046
1629795344902,2047
1629795344906,2048
1629795344910,2048
1629795344914,2048
1629795344918,2048
1629795344922,2048
1629795344926,2048
1629795344930,2048
1629795344934,2048
1629795344938,2049
1629795344942,2050
1629795344946,2050
1629795344950,2051
1629795344954,2052
1629795344958,2052
1629795344962,2051
1629795344966,2052
1629795344970,2053
1629795344974,2055
1629795344978,2056
1629795344982,2058
1629795344986,2059
1629795344990,2059
1629795344994,2059
1629795344998,2060
1629795345002,2061
1629795345006,2063
1629795345010,2065
1629795345014,2067
1629795345018,2068
1629795345022,2069
1629795345026,2071
1629795345030,2072
1629795345034,2074
1629795345038,2076
1629795345042,2078
1629795345046,2079
1629795345050,2080
1629795345054,2082
1629795345058,2084
1629795345062,2087
1629795345066,2088
1629795345070,2089
1629795345074,2090
1629795345078,2089
1629795345082,2089
1629795345086,2088
1629795345090,2088
1629795345094,2087
1629795345098,2086
1629795345102,2084
1629795345106,2081
1629795345110,2078
1629795345114,2074
1629795345118,2069
1629795345122,2064
1629795345126,2060
1629795345130,2057
1629795345134,2054
1629795345138,2051
1629795345142,2049
1629795345146,2048
1629795345150,2046
1629795345154,2044
1629795345158,2043
1629795345162,2041
1629795345166,2040
1629795345170,2039
1629795345174,2039
1629795345178,2039
1629795345182,2038
1629795345186,2037
1629795345190,2036
1629795345194,2036
1629795345198,2036
1629795345202,2037
1629795345206,2038
1629795345210,2039
1629795345214,2040
1629795345218,2041
1629795345222,2042
1629795345226,2043
1629795345230,2044
1629795345234,2045
1629795345238,2045
1629795345242,2045
1629795345246,2045
1629795345250,2045
1629795345254,2046
1629795345258,2047
1629795345262,2048
1629795345266,2049
1629795345270,2048
1629795345274,2048
1629795345278,2048
1629795345282,2048
1629795345286,2048
1629795345290,2048
1629795345294,2048
1629795345298,2049
1629795345302,2049
1629795345306,2049
1629795345310,2048
1629795345314,2048
1629795345318,2048
1629795345322,2048
1629795345326,2048
1629795345330,2047
1629795345334,2047
1629795345338,2046
1629795345342,2047
1629795345346,2048
1629795345350,2048
1629795345354,2048
1629795345358,2047
1629795345362,2045
1629795345366,2044
1629795345370,2045
1629795345374,2045
1629795345378,2046
1629795345382,2046
1629795345386,2046
1629795345390,2046
1629795345394,2046
1629795345398,2047
1629795345402,2047
1629795345406,2047
1629795345410,2046
1629795345414,2046
1629795345418,2046
1629795345422,2046
1629795345426,2047
1629795345430,2047
1629795345434,2047
1629795345438,2046
1629795345442,2045
1629795345446,2044
1629795345450,2044
1629795345454,2044
1629795345458,2045
1629795345462,2045
1629795345466,2046
1629795345470,2046
1629795345474,2047
1629795345478,2047
1629795345482,2048
1629795345486,2049
1629795345490,2050
1629795345494,2053
1629795345498,2057
1629795345502,2059
1629795345506,2060
1629795345510,2059
1629795345514,2055
1629795345518,2051
1629795345522,2048
1629795345526,2047
1629795345530,2047
1629795345534,2048
1629795345538,2048
1629795345542,2048
1629795345546,2048
1629795345550,2048
1629795345554,2048
1629795345558,2048
1629795345562,2048
1629795345566,2047
1629795345570,2045
1629795345574,2043
1629795345578,2048
1629795345582,2064
1629795345586,2100
1629795345590,2149
1629795345594,2197
1629795345598,2224
1629795345602,2216
1629795345606,2172
1629795345610,2108
1629795345614,2049
1629795345618,2013
1629795345622,2005
1629795345626,2017
1629795345630,2035
1629795345634,2047
1629795345638,2051
1629795345642,2050
1629795345646,2048
1629795345650,2046
1629795345654,2046
1629795345658,2047
1629795345662,2047
1629795345666,2047
1629795345670,2047
1629795345674,2047
1629795345678,2047
1629795345682,2048
1629795345686,2048
1629795345690,2048
1629795345694,2049
1629795345698,2049
1629795345702,2049
1629795345706,2049
1629795345710,2048
1629795345714,2048
1629795345718,2049
1629795345722,2050
1629795345726,2051
1629795345730,2051
1629795345734,2051
1629795345738,2052
1629795345742,2053
1629795345746,2054
1629795345750,2055
1629795345754,2056
1629795345758,2056
1629795345762,2056
1629795345766,2057
1629795345770,2059
1629795345774,2062
1629795345778,2064
1629795345782,2065
1629795345786,2065
1629795345790,2066
1629795345794,2067
1629795345798,2067
1629795345802,2068
1629795345806,2069
1629795345810,2071
1629795345814,2073
1629795345818,2076
1629795345822,2080
1629795345826,2082
1629795345830,2084
1629795345834,2085
1629795345838,2086
1629795345842,2087
1629795345846,2089
1629795345850,2090
1629795345854,2091
1629795345858,2092
1629795345862,2092
1629795345866,2093
1629795345870,2093
1629795345874,2092
1629795345878,2089
1629795345882,2086
1629795345886,2083
1629795345890,2079
1629795345894,2075
1629795345898,2071
1629795345902,2067
1629795345906,2063
1629795345910,2059
1629795345914,2056
1629795345918,2054
1629795345922,2050
1629795345926,2048
1629795345930,2045
1629795345934,2042
1629795345938,2041
1629795345942,2040
1629795345946,2041
1629795345950,2041
1629795345954,2040
1629795345958,2038
1629795345962,2037
1629795345966,2035
1629795345970,2034
1629795345974,2034
1629795345978,2035
1629795345982,2035
1629795345986,2037
1629795345990,2038
1629795345994,2039
1629795345998,2039
1629795346002,2039
1629795346006,2039
1629795346010,2040
1629795346014,2041
1629795346018,2043
1629795346022,2044
1629795346026,2045
1629795346030,2046
1629795346034,2045
1629795346038,2045
1629795346042,2044
1629795346046,2044
1629795346050,2045
1629795346054,2047
1629795346058,2048
1629795346062,2048
1629795346066,2048
1629795346070,2048
1629795346074,2047
1629795346078,2046
1629795346082,2047
1629795346086,2048
1629795346090,2048
1629795346094,2048
1629795346098,2047
1629795346102,2046
1629795346106,2046
1629795346110,2046
1629795346114,2045
1629795346118,2045
1629795346122,2044
1629795346126,2044
1629795346130,2044
1629795346134,2043
1629795346138,2044
1629795346142,2044
1629795346146,2044
1629795346150,2043
1629795346154,2043
1629795346158,2043
1629795346162,2043
1629795346166,2044
1629795346170,2044
1629795346174,2044
1629795346178,2045
1629795346182,2045
1629795346186,2045
1629795346190,2044
1629795346194,2044
1629795346198,2043
1629795346202,2043
1629795346206,2043
1629795346210,2043
1629795346214,2043
1629795346218,2043
1629795346222,2043
1629795346226,2042
1629795346230,2042
1629795346234,2041
1629795346238,2041
1629795346242,2041
1629795346246,2044
1629795346250,2047
1629795346254,2051
1629795346258,2055
1629795346262,2058
1629795346266,2057
1629795346270,2054
1629795346274,2050
1629795346278,2047
1629795346282,2045
1629795346286,2044
1629795346290,2044
1629795346294,2045
1629795346298,2045
1629795346302,2045
1629795346306,2045
1629795346310,2045
1629795346314,2046
1629795346318,2047
1629795346322,2046
1629795346326,2044
1629795346330,2040
1629795346334,2039
1629795346338,2046
1629795346342,2067
1629795346346,2107
1629795346350,2157
1629795346354,2202
1629795346358,2222
1629795346362,2206
1629795346366,2158
1629795346370,2096
1629795346374,2045
1629795346378,2016
1629795346382,2013
1629795346386,2025
1629795346390,2039
1629795346394,2047
1629795346398,2048
1629795346402,2047
1629795346406,2044
1629795346410,2043
1629795346414,2042
1629795346418,2043
1629795346422,2043
1629795346426,2043
1629795346430,2044
1629795346434,2044
1629795346438,2043
1629795346442,2043
1629795346446,2043
1629795346450,2043
1629795346454,2044
1629795346458,2045
1629795346462,2045
1629795346466,2046
1629795346470,2046
1629795346474,2046
1629795346478,2046
1629795346482,2047
1629795346486,2047
1629795346490,2048
1629795346494,2048
1629795346498,2048
1629795346502,2048
1629795346506,2049
1629795346510,2051
1629795346514,2051
1629795346518,2052
1629795346522,2052
1629795346526,2052
1629795346530,2053
1629795346534,2055
1629795346538,2057
1629795346542,2058
1629795346546,2059
1629795346550,2059
1629795346554,2060
1629795346558,2062
1629795346562,2063
1629795346566,2066
1629795346570,2067
1629795346574,2070
1629795346578,2072
1629795346582,2075
1629795346586,2078
1629795346590,2080
1629795346594,2082
1629795346598,2083
1629795346602,2083
1629795346606,2084
1629795346610,2085
1629795346614,2087
1629795346618,2089
1629795346622,2090
1629795346626,2090
1629795346630,2089
1629795346634,2087
1629795346638,2085
1629795346642,2082
1629795346646,2079
1629795346650,2075
1629795346654,2070
1629795346658,2066
1629795346662,2061
1629795346666,2057
1629795346670,2054
1629795346674,2050
1629795346678,2048
1629795346682,2045
1629795346686,2043
1629795346690,2042
1629795346694,2040
1629795346698,2039
1629795346702,2037
1629795346706,2036
1629795346710,2035
1629795346714,2035
1629795346718,2035
1629795346722,2035
1629795346726,2035
1629795346730,2035
1629795346734,2034
1629795346738,2034
1629795346742,2034
1629795346746,2034
1629795346750,2034
1629795346754,2035
1629795346758,2035
1629795346762,2035
1629795346766,2036
1629795346770,2037
1629795346774,2038
1629795346778,2039
1629795346782,2040
1629795346786,2040
1629795346790,2041
1629795346794,2041
1629795346798,2041
1629795346802,2042
1629795346806,2042
1629795346810,2043
1629795346814,2045
1629795346818,2045
1629795346822,2045
1629795346826,2045
1629795346830,2045
1629795346834,2045
1629795346838,2045
1629795346842,2045
1629795346846,2045
1629795346850,2045
1629795346854,2045
1629795346858,2045
1629795346862,2045
1629795346866,2044
1629795346870,2044
1629795346874,2044
1629795346878,2043
1629795346882,2043
1629795346886,2043
1629795346890,2043
1629795346894,2043
1629795346898,2044
1629795346902,2044
1629795346906,2044
1629795346910,2043
1629795346914,2042
1629795346918,2042
1629795346922,2041
1629795346926,2041
1629795346930,2042
1629795346934,2042
1629795346938,2042
1629795346942,2042
1629795346946,2042
1629795346950,2042
1629795346954,2042
1629795346958,2042
1629795346962,2041
1629795346966,2041
1629795346970,2041
1629795346974,2042
1629795346978,2042
1629795346982,2042
1629795346986,2042
1629795346990,2041
1629795346994,2040
1629795346998,2039
1629795347002,2039
1629795347006,2039
1629795347010,2040
1629795347014,2042
1629795347018,2044
1629795347022,2048
1629795347026,2051
1629795347030,2054
1629795347034,2054
1629795347038,2053
1629795347042,2050
1629795347046,2048
1629795347050,2046
1629795347054,2045
1629795347058,2045
1629795347062,2045
1629795347066,2045
1629795347070,2045
1629795347074,2044
1629795347078,2044
1629795347082,2044
1629795347086,2045
1629795347090,2045
1629795347094,2044
1629795347098,2042
1629795347102,2039
1629795347106,2040
1629795347110,2050
1629795347114,2079
1629795347118,2127
1629795347122,2184
1629795347126,2229
1629795347130,2244
1629795347134,2219
1629795347138,2163
1629795347142,2100
1629795347146,2050
1629795347150,2027
1629795347154,2027
1629795347158,2036
1629795347162,2044
1629795347166,2047
1629795347170,2044
1629795347174,2042
1629795347178,2041
1629795347182,2040
1629795347186,2040
1629795347190,2040
1629795347194,2040
1629795347198,2039
1629795347202,2039
1629795347206,2039
1629795347210,2039
1629795347214,2039
1629795347218,2039
1629795347222,2040
1629795347226,2040
1629795347230,2040
1629795347234,2041
1629795347238,2040
1629795347242,2040
1629795347246,2040
1629795347250,2040
1629795347254,2041
1629795347258,2042
1629795347262,2043
1629795347266,2044
1629795347270,2044
1629795347274,2044
1629795347278,2044
1629795347282,2044
1629795347286,2045
1629795347290,2045
1629795347294,2047
1629795347298,2048
1629795347302,2049
1629795347306,2050
1629795347310,2051
1629795347314,2052
1629795347318,2053
1629795347322,2053
1629795347326,2055
1629795347330,2056
1629795347334,2058
1629795347338,2060
1629795347342,2062
1629795347346,2064
1629795347350,2066
1629795347354,2068
1629795347358,2070
1629795347362,2072
1629795347366,2074
1629795347370,2076
1629795347374,2078
1629795347378,2080
1629795347382,2082
1629795347386,2083
1629795347390,2084
1629795347394,2084
1629795347398,2084
1629795347402,2082
1629795347406,2081
1629795347410,2079
1629795347414,2076
1629795347418,2074
1629795347422,2070
1629795347426,2066
1629795347430,2061
1629795347434,2057
1629795347438,2053
1629795347442,2049
1629795347446,2046
1629795347450,2043
1629795347454,2041
1629795347458,2039
1629795347462,2037
1629795347466,2036
1629795347470,2035
1629795347474,2035
1629795347478,2034
1629795347482,2033
1629795347486,2032
1629795347490,2032
1629795347494,2032
1629795347498,2033
1629795347502,2033
1629795347506,2033
1629795347510,2033
1629795347514,2032
1629795347518,2032
1629795347522,2032
1629795347526,2032
1629795347530,2033
1629795347534,2033
1629795347538,2034
1629795347542,2034
1629795347546,2035
1629795347550,2035
1629795347554,2035
1629795347558,2036
1629795347562,2036
1629795347566,2036
1629795347570,2036
1629795347574,2037
1629795347578,2038
1629795347582,2039
1629795347586,2040
1629795347590,2040
1629795347594,2040
1629795347598,2040
1629795347602,2040
1629795347606,2040
1629795347610,2040
1629795347614,2040
1629795347618,2041
1629795347622,2041
1629795347626,2041
1629795347630,2041
1629795347634,2041
1629795347638,2041
1629795347642,2040
1629795347646,2039
1629795347650,2039
1629795347654,2039
1629795347658,2040
1629795347662,2040
1629795347666,2041
1629795347670,2040
1629795347674,2040
1629795347678,2039
1629795347682,2039
1629795347686,2039
1629795347690,2040
1629795347694,2040
1629795347698,2040
1629795347702,2040
1629795347706,2040
1629795347710,2040
1629795347714,2040
1629795347718,2040
1629795347722,2040
1629795347726,2040
1629795347730,2040
1629795347734,2040
1629795347738,2041
1629795347742,2041
1629795347746,2041
1629795347750,2041
1629795347754,2041
1629795347758,2041
1629795347762,2040
1629795347766,2039
1629795347770,2039
1629795347774,2038
1629795347778,2037
1629795347782,2037
1629795347786,2038
1629795347790,2039
1629795347794,2040
1629795347798,2042
1629795347802,2044
1629795347806,2047
1629795347810,2049
1629795347814,2052
1629795347818,2053
1629795347822,2052
1629795347826,2050
1629795347830,2048
1629795347834,2047
1629795347838,2045
1629795347842,2043
1629795347846,2043
1629795347850,2042
1629795347854,2042
1629795347858,2043
1629795347862,2043
1629795347866,2045
1629795347870,2046
1629795347874,2046
1629795347878,2043
1629795347882,2040
1629795347886,2035
1629795347890,2035
1629795347894,2046
1629795347898,2076
1629795347902,2129
1629795347906,2191
1629795347910,2242
1629795347914,2260
1629795347918,2235
1629795347922,2178
1629795347926,2111
1629795347930,2058
1629795347934,2033
1629795347938,2031
1629795347942,2038
1629795347946,2045
1629795347950,2046
1629795347954,2043
1629795347958,2040
1629795347962,2038
1629795347966,2037
1629795347970,2037
1629795347974,2037
1629795347978,2038
1629795347982,2038
1629795347986,2038
1629795347990,2038
1629795347994,2038
1629795347998,2038
1629795348002,2038
1629795348006,2038
1629795348010,2038
1629795348014,2039
1629795348018,2039
1629795348022,2040
1629795348026,2040
1629795348030,2041
1629795348034,2041
1629795348038,2041
1629795348042,2041
1629795348046,2041
1629795348050,2042
1629795348054,2042
1629795348058,2044
1629795348062,2044
1629795348066,2045
1629795348070,2046
1629795348074,2046
1629795348078,2047
1629795348082,2047
1629795348086,2048
1629795348090,2048
1629795348094,2050
1629795348098,2051
1629795348102,2053
1629795348106,2055
1629795348110,2056
1629795348114,2057
1629795348118,2058
1629795348122,2060
1629795348126,2062
1629795348130,2064
1629795348134,2066
1629795348138,2069
1629795348142,2071
1629795348146,2073
1629795348150,2075
1629795348154,2077
1629795348158,2078
1629795348162,2079
1629795348166,2081
1629795348170,2082
1629795348174,2083
1629795348178,2084
1629795348182,2085
1629795348186,2085
1629795348190,2084
1629795348194,2082
1629795348198,2079
1629795348202,2075
1629795348206,2071
1629795348210,2067
1629795348214,2063
1629795348218,2060
1629795348222,2056
1629795348226,2053
1629795348230,2049
1629795348234,2047
1629795348238,2044
1629795348242,2042
1629795348246,2040
1629795348250,2038
1629795348254,2037
1629795348258,2037
1629795348262,2036
1629795348266,2036
1629795348270,2036
1629795348274,2036
1629795348278,2035
1629795348282,2035
1629795348286,2035
1629795348290,2035
1629795348294,2035
1629795348298,2036
1629795348302,2036
1629795348306,2037
1629795348310,2037
1629795348314,2037
1629795348318,2037
1629795348322,2037
1629795348326,2037
1629795348330,2037
1629795348334,2037
1629795348338,2038
1629795348342,2039
1629795348346,2040
1629795348350,2040
1629795348354,2041
1629795348358,2041
1629795348362,2041
1629795348366,2041
1629795348370,2042
1629795348374,2043
1629795348378,2044
1629795348382,2044
1629795348386,2045
1629795348390,2045
1629795348394,2045
1629795348398,2044
1629795348402,2044
1629795348406,2044
1629795348410,2044
1629795348414,2044
1629795348418,2045
1629795348422,2045
1629795348426,2045
1629795348430,2045
1629795348434,2044
1629795348438,2044
1629795348442,2044
1629795348446,2044
1629795348450,2044
1629795348454,2044
1629795348458,2045
1629795348462,2045
1629795348466,2045
1629795348470,2045
1629795348474,2044
1629795348478,2044
1629795348482,2043
1629795348486,2043
1629795348490,2043
1629795348494,2043
1629795348498,2044
1629795348502,2045
1629795348506,2045
1629795348510,2045
1629795348514,2044
1629795348518,2044
1629795348522,2044
1629795348526,2043
1629795348530,2044
1629795348534,2044
1629795348538,2045
1629795348542,2045
1629795348546,2045
1629795348550,2046
1629795348554,2045
1629795348558,2045
1629795348562,2045
1629795348566,2044
1629795348570,2044
1629795348574,2045
1629795348578,2046
1629795348582,2046
1629795348586,2046
1629795348590,2046
1629795348594,2044
1629795348598,2043
1629795348602,2042
1629795348606,2042
1629795348610,2042
1629795348614,2043
1629795348618,2045
1629795348622,2047
1629795348626,2049
1629795348630,2052
1629795348634,2055
1629795348638,2057
1629795348642,2057
1629795348646,2057
1629795348650,2055
1629795348654,2052
1629795348658,2050
1629795348662,2049
1629795348666,2048
1629795348670,2048
1629795348674,2048
1629795348678,2048
1629795348682,2048
1629795348686,2048
1629795348690,2048
1629795348694,2048
1629795348698,2049
1629795348702,2048
1629795348706,2046
1629795348710,2042
1629795348714,2040
1629795348718,2047
1629795348722,2071
1629795348726,2118
1629795348730,2179
1629795348734,2235
1629795348738,2262
1629795348742,2248
1629795348746,2197
1629795348750,2130
1629795348754,2073
1629795348758,2042
1629795348762,2035
1629795348766,2042
1629795348770,2048
1629795348774,2051
1629795348778,2048
1629795348782,2047
1629795348786,2046
1629795348790,2045
1629795348794,2044
1629795348798,2043
1629795348802,2042
1629795348806,2042
1629795348810,2043
1629795348814,2043
1629795348818,2044
1629795348822,2044
1629795348826,2044
1629795348830,2044
1629795348834,2044
1629795348838,2044
1629795348842,2044
1629795348846,2044
1629795348850,2044
1629795348854,2045
1629795348858,2046
1629795348862,2046
1629795348866,2047
1629795348870,2048
1629795348874,2048
1629795348878,2048
1629795348882,2048
1629795348886,2048
1629795348890,2048
1629795348894,2050
1629795348898,2051
1629795348902,2052
1629795348906,2053
1629795348910,2054
1629795348914,2054
1629795348918,2055
1629795348922,2056
1629795348926,2057
1629795348930,2058
1629795348934,2060
1629795348938,2061
1629795348942,2063
1629795348946,2065
1629795348950,2067
1629795348954,2068
1629795348958,2070
1629795348962,2071
1629795348966,2073
1629795348970,2075
1629795348974,2077
1629795348978,2079
1629795348982,2081
1629795348986,2083
1629795348990,2084
1629795348994,2084
1629795348998,2085
1629795349002,2085
1629795349006,2085
1629795349010,2085
1629795349014,2085
1629795349018,2084
1629795349022,2082
1629795349026,2080
1629795349030,2077
1629795349034,2073
1629795349038,2069
1629795349042,2064
1629795349046,2060
1629795349050,2056
1629795349054,2053
1629795349058,2050
1629795349062,2048
1629795349066,2047
1629795349070,2045
1629795349074,2044
1629795349078,2042
1629795349082,2041
1629795349086,2040
1629795349090,2039
1629795349094,2039
1629795349098,2039
1629795349102,2040
1629795349106,2040
1629795349110,2040
1629795349114,2039
1629795349118,2039
1629795349122,2038
1629795349126,2038
1629795349130,2039
1629795349134,2039
1629795349138,2040
1629795349142,2041
1629795349146,2041
1629795349150,2042
1629795349154,2042
1629795349158,2042
1629795349162,2042
1629795349166,2042
1629795349170,2043
1629795349174,2044
1629795349178,2045
1629795349182,2045
1629795349186,2046
1629795349190,2046
1629795349194,2046
1629795349198,2046
1629795349202,2046
1629795349206,2046
1629795349210,2046
1629795349214,2046
1629795349218,2047
1629795349222,2047
1629795349226,2047
1629795349230,2047
1629795349234,2047
1629795349238,2046
1629795349242,2046
1629795349246,2046
1629795349250,2046
1629795349254,2046
1629795349258,2046
1629795349262,2046
1629795349266,2046
1629795349270,2046
1629795349274,2046
1629795349278,2045
1629795349282,2045
1629795349286,2045
1629795349290,2045
1629795349294,2045
1629795349298,2045
1629795349302,2046
1629795349306,2046
1629795349310,2045
1629795349314,2045
1629795349318,2045
1629795349322,2044
1629795349326,2044
1629795349330,2044
1629795349334,2045
1629795349338,2045
1629795349342,2046
1629795349346,2046
1629795349350,2046
1629795349354,2045
1629795349358,2045
1629795349362,2045
1629795349366,2045
1629795349370,2045
1629795349374,2045
1629795349378,2046
1629795349382,2046
1629795349386,2046
1629795349390,2046
1629795349394,2046
1629795349398,2046
1629795349402,2045
1629795349406,2045
1629795349410,2045
1629795349414,2045
1629795349418,2044
1629795349422,2044
1629795349426,2043
1629795349430,2043
1629795349434,2044
1629795349438,2045
1629795349442,2045
1629795349446,2047
1629795349450,2048
1629795349454,2050
1629795349458,2054
1629795349462,2058
1629795349466,2060
1629795349470,2059
1629795349474,2057
1629795349478,2054
1629795349482,2051
1629795349486,2048
1629795349490,2048
1629795349494,2047
1629795349498,2048
1629795349502,2048
1629795349506,2048
1629795349510,2048
1629795349514,2048
1629795349518,2048
1629795349522,2048
1629795349526,2048
1629795349530,2046
1629795349534,2042
1629795349538,2041
1629795349542,2048
1629795349546,2072
1629795349550,2118
1629795349554,2177
1629795349558,2229
1629795349562,2252
1629795349566,2235
1629795349570,2184
1629795349574,2119
1629795349578,2065
1629795349582,2037
1629795349586,2033
1629795349590,2041
1629795349594,2048
1629795349598,2051
1629795349602,2048
1629795349606,2046
1629795349610,2044
1629795349614,2043
1629795349618,2043
1629795349622,2043
1629795349626,2043
1629795349630,2044
1629795349634,2043
1629795349638,2043
1629795349642,2043
1629795349646,2042
1629795349650,2042
1629795349654,2043
1629795349658,2043
1629795349662,2044
1629795349666,2045
1629795349670,2045
1629795349674,2045
1629795349678,2045
1629795349682,2045
1629795349686,2045
1629795349690,2046
1629795349694,2046
1629795349698,2047
1629795349702,2048
1629795349706,2048
1629795349710,2049
1629795349714,2049
1629795349718,2050
1629795349722,2050
1629795349726,2051
1629795349730,2052
1629795349734,2053
1629795349738,2054
1629795349742,2056
1629795349746,2057
1629795349750,2058
1629795349754,2059
1629795349758,2060
1629795349762,2061
1629795349766,2062
1629795349770,2064
1629795349774,2066
1629795349778,2068
1629795349782,2070
1629795349786,2072
1629795349790,2073
1629795349794,2075
1629795349798,2076
1629795349802,2077
1629795349806,2079
1629795349810,2080
1629795349814,2081
1629795349818,2082
1629795349822,2082
1629795349826,2083
1629795349830,2083
1629795349834,2083
1629795349838,2082
1629795349842,2080
1629795349846,2078
1629795349850,2076
1629795349854,2073
1629795349858,2070
1629795349862,2067
1629795349866,2063
1629795349870,2060
1629795349874,2056
1629795349878,2053
1629795349882,2050
1629795349886,2048
1629795349890,2046
1629795349894,2044
1629795349898,2043
1629795349902,2042
1629795349906,2041
1629795349910,2040
1629795349914,2040
1629795349918,2039
1629795349922,2038
1629795349926,2038
1629795349930,2038
1629795349934,2038
1629795349938,2039
1629795349942,2040
1629795349946,2040
1629795349950,2040
1629795349954,2041
1629795349958,2041
1629795349962,2041
1629795349966,2042
1629795349970,2042
1629795349974,2043
1629795349978,2044
1629795349982,2045
1629795349986,2046
1629795349990,2046
1629795349994,2046
1629795349998,2046
1629795350002,2046
1629795350006,2046
1629795350010,2047
1629795350014,2047
1629795350018,2048
1629795350022,2048
1629795350026,2048
1629795350030,2048
1629795350034,2047
1629795350038,2047
1629795350042,2047
1629795350046,2047
1629795350050,2047
1629795350054,2047
1629795350058,2047
1629795350062,2047
1629795350066,2047
1629795350070,2047
1629795350074,2047
1629795350078,2046
1629795350082,2046
1629795350086,2046
1629795350090,2046
1629795350094,2046
1629795350098,2046
1629795350102,2046
1629795350106,2046
1629795350110,2046
1629795350114,2045
1629795350118,2045
1629795350122,2044
1629795350126,2044
1629795350130,2045
1629795350134,2045
1629795350138,2046
1629795350142,2046
1629795350146,2046
1629795350150,2046
1629795350154,2045
1629795350158,2045
1629795350162,2044
1629795350166,2044
1629795350170,2044
1629795350174,2045
1629795350178,2045
1629795350182,2046
1629795350186,2046
1629795350190,2045
1629795350194,2044
1629795350198,2043
1629795350202,2042
1629795350206,2041
1629795350210,2042
1629795350214,2043
1629795350218,2045
1629795350222,2046
1629795350226,2048
1629795350230,2050
1629795350234,2053
1629795350238,2056
1629795350242,2057
1629795350246,2057
1629795350250,2055
1629795350254,2053
1629795350258,2051
1629795350262,2049
1629795350266,2048
1629795350270,2048
1629795350274,2048
1629795350278,2047
1629795350282,2047
1629795350286,2047
1629795350290,2048
1629795350294,2048
1629795350298,2049
1629795350302,2048
1629795350306,2046
1629795350310,2041
1629795350314,2040
1629795350318,2050
1629795350322,2080
1629795350326,2132
1629795350330,2190
1629795350334,2236
1629795350338,2247
1629795350342,2219
1629795350346,2162
1629795350350,2099
1629795350354,2053
1629795350358,2033
1629795350362,2034
1629795350366,2042
1629795350370,2049
1629795350374,2050
1629795350378,2048
1629795350382,2047
1629795350386,2046
1629795350390,2045
1629795350394,2044
1629795350398,2044
1629795350402,2043
1629795350406,2043
1629795350410,2043
1629795350414,2043
1629795350418,2044
1629795350422,2044
1629795350426,2045
1629795350430,2045
1629795350434,2045
1629795350438,2045
1629795350442,2045
1629795350446,2045
1629795350450,2045
1629795350454,2046
1629795350458,2046
1629795350462,2047
1629795350466,2048
1629795350470,2048
1629795350474,2048
1629795350478,2048
1629795350482,2048
1629795350486,2048
1629795350490,2048
1629795350494,2049
1629795350498,2051
1629795350502,2052
1629795350506,2054
1629795350510,2055
1629795350514,2056
1629795350518,2056
1629795350522,2057
1629795350526,2058
1629795350530,2059
1629795350534,2061
1629795350538,2063
1629795350542,2065
1629795350546,2067
1629795350550,2068
1629795350554,2070
1629795350558,2071
1629795350562,2072
1629795350566,2074
1629795350570,2075
1629795350574,2077
1629795350578,2079
1629795350582,2080
1629795350586,2080
1629795350590,2081
1629795350594,2081
1629795350598,2080
1629795350602,2079
1629795350606,2079
1629795350610,2078
1629795350614,2077
1629795350618,2076
1629795350622,2075
1629795350626,2073
1629795350630,2070
1629795350634,2066
1629795350638,2062
1629795350642,2058
1629795350646,2055
1629795350650,2052
1629795350654,2049
1629795350658,2048
1629795350662,2047
1629795350666,2045
1629795350670,2043
1629795350674,2042
1629795350678,2040
1629795350682,2039
1629795350686,2038
1629795350690,2038
1629795350694,2037
1629795350698,2037
1629795350702,2037
1629795350706,2038
1629795350710,2038
1629795350714,2038
1629795350718,2038
1629795350722,2038
1629795350726,2039
1629795350730,2039
1629795350734,2040
1629795350738,2042
1629795350742,2043
1629795350746,2043
1629795350750,2044
1629795350754,2044
1629795350758,2043
1629795350762,2043
1629795350766,2043
1629795350770,2043
1629795350774,2044
1629795350778,2045
1629795350782,2045
1629795350786,2046
1629795350790,2046
1629795350794,2046
1629795350798,2045
1629795350802,2045
1629795350806,2044
1629795350810,2044
1629795350814,2044
1629795350818,2045
1629795350822,2045
1629795350826,2045
1629795350830,2044
1629795350834,2044
1629795350838,2043
1629795350842,2043
1629795350846,2043
1629795350850,2043
1629795350854,2043
1629795350858,2043
1629795350862,2043
1629795350866,2043
1629795350870,2043
1629795350874,2043
1629795350878,2042
1629795350882,2042
1629795350886,2042
1629795350890,2041
1629795350894,2042
1629795350898,2042
1629795350902,2042
1629795350906,2043
1629795350910,2043
1629795350914,2042
1629795350918,2042
1629795350922,2040
1629795350926,2039
1629795350930,2038
1629795350934,2037
1629795350938,2038
1629795350942,2039
1629795350946,2040
1629795350950,2042
1629795350954,2044
1629795350958,2046
1629795350962,2048
1629795350966,2051
1629795350970,2053
1629795350974,2055
1629795350978,2054
1629795350982,2052
1629795350986,2049
1629795350990,2047
1629795350994,2045
1629795350998,2044
1629795351002,2044
1629795351006,2044
1629795351010,2044
1629795351014,2044
1629795351018,2045
1629795351022,2046
1629795351026,2047
1629795351030,2047
1629795351034,2045
1629795351038,2042
1629795351042,2037
1629795351046,2036
1629795351050,2048
1629795351054,2078
1629795351058,2131
1629795351062,2190
1629795351066,2234
1629795351070,2245
1629795351074,2214
1629795351078,2155
1629795351082,2092
1629795351086,2047
1629795351090,2027
1629795351094,2030
1629795351098,2040
1629795351102,2048
1629795351106,2048
1629795351110,2047
1629795351114,2044
1629795351118,2042
1629795351122,2040
1629795351126,2040
1629795351130,2040
1629795351134,2041
1629795351138,2041
1629795351142,2042
1629795351146,2042
1629795351150,2042
1629795351154,2042
1629795351158,2042
1629795351162,2042
1629795351166,2042
1629795351170,2042
1629795351174,2043
1629795351178,2043
1629795351182,2044
1629795351186,2045
1629795351190,2045
1629795351194,2045
1629795351198,2045
1629795351202,2046
1629795351206,2046
1629795351210,2046
1629795351214,2047
1629795351218,2048
1629795351222,2048
1629795351226,2050
1629795351230,2050
1629795351234,2051
1629795351238,2052
1629795351242,2052
1629795351246,2053
1629795351250,2054
1629795351254,2056
1629795351258,2058
1629795351262,2059
1629795351266,2061
1629795351270,2062
1629795351274,2063
1629795351278,2065
1629795351282,2066
1629795351286,2067
1629795351290,2069
1629795351294,2071
1629795351298,2072
1629795351302,2074
1629795351306,2075
1629795351310,2076
1629795351314,2076
1629795351318,2076
1629795351322,2076
1629795351326,2076
1629795351330,2075
1629795351334,2075
1629795351338,2075
1629795351342,2075
1629795351346,2074
1629795351350,2072
1629795351354,2070
1629795351358,2068
1629795351362,2065
1629795351366,2062
1629795351370,2059
1629795351374,2056
1629795351378,2054
1629795351382,2051
1629795351386,2048
1629795351390,2047
1629795351394,2045
1629795351398,2043
1629795351402,2041
1629795351406,2040
1629795351410,2039
1629795351414,2038
1629795351418,2038
1629795351422,2038
1629795351426,2038
1629795351430,2038
1629795351434,2039
1629795351438,2039
1629795351442,2039
1629795351446,2040
1629795351450,2040
1629795351454,2042
1629795351458,2043
1629795351462,2044
1629795351466,2044
1629795351470,2045
1629795351474,2045
1629795351478,2045
1629795351482,2045
1629795351486,2045
1629795351490,2045
1629795351494,2045
1629795351498,2046
1629795351502,2047
1629795351506,2047
1629795351510,2047
1629795351514,2047
1629795351518,2046
1629795351522,2046
1629795351526,2046
1629795351530,2046
1629795351534,2046
1629795351538,2046
1629795351542,2046
1629795351546,2046
1629795351550,2046
1629795351554,2046
1629795351558,2045
1629795351562,2044
1629795351566,2044
1629795351570,2044
1629795351574,2044
1629795351578,2044
1629795351582,2045
1629795351586,2045
1629795351590,2045
1629795351594,2044
1629795351598,2044
1629795351602,2043
1629795351606,2043
1629795351610,2043
1629795351614,2043
1629795351618,2043
1629795351622,2043
1629795351626,2044
1629795351630,2044
1629795351634,2044
1629795351638,2043
1629795351642,2042
1629795351646,2040
1629795351650,2039
1629795351654,2039
1629795351658,2040
1629795351662,2041
1629795351666,2042
1629795351670,2043
1629795351674,2044
1629795351678,2046
1629795351682,2048
1629795351686,2051
1629795351690,2054
1629795351694,2056
1629795351698,2055
1629795351702,2053
1629795351706,2050
1629795351710,2048
1629795351714,2046
1629795351718,2045
1629795351722,2044
1629795351726,2044
1629795351730,2044
1629795351734,2045
1629795351738,2045
1629795351742,2046
1629795351746,2048
1629795351750,2048
1629795351754,2046
1629795351758,2043
1629795351762,2038
1629795351766,2036
1629795351770,2046
1629795351774,2074
1629795351778,2124
1629795351782,2183
1629795351786,2231
1629795351790,2246
1629795351794,2220
1629795351798,2164
1629795351802,2099
1629795351806,2051
1629795351810,2029
1629795351814,2029
1629795351818,2039
1629795351822,2047
1629795351826,2048
1629795351830,2047
1629795351834,2044
1629795351838,2042
1629795351842,2041
1629795351846,2040
1629795351850,2040
1629795351854,2040
1629795351858,2040
1629795351862,2041
1629795351866,2041
1629795351870,2041
1629795351874,2041
1629795351878,2041
1629795351882,2041
1629795351886,2041
1629795351890,2041
1629795351894,2041
1629795351898,2042
1629795351902,2043
1629795351906,2044
1629795351910,2044
1629795351914,2045
1629795351918,2045
1629795351922,2045
1629795351926,2045
1629795351930,2046
1629795351934,2047
1629795351938,2048
1629795351942,2048
1629795351946,2049
1629795351950,2050
1629795351954,2051
1629795351958,2052
1629795351962,2052
1629795351966,2053
1629795351970,2055
1629795351974,2056
1629795351978,2058
1629795351982,2060
1629795351986,2061
1629795351990,2063
1629795351994,2064
1629795351998,2065
1629795352002,2066
1629795352006,2067
1629795352010,2069
1629795352014,2070
1629795352018,2072
1629795352022,2073
1629795352026,2074
1629795352030,2074
1629795352034,2074
1629795352038,2074
1629795352042,2073
1629795352046,2073
1629795352050,2073
1629795352054,2073
1629795352058,2073
1629795352062,2072
1629795352066,2072
1629795352070,2071
1629795352074,2069
1629795352078,2067
1629795352082,2064
1629795352086,2061
1629795352090,2059
1629795352094,2057
1629795352098,2055
1629795352102,2053
1629795352106,2051
1629795352110,2048
1629795352114,2046
1629795352118,2044
1629795352122,2041
1629795352126,2040
1629795352130,2040
1629795352134,2039
1629795352138,2040
1629795352142,2040
1629795352146,2040
1629795352150,2041
1629795352154,2041
1629795352158,2041
1629795352162,2041
1629795352166,2042
1629795352170,2043
1629795352174,2044
1629795352178,2045
1629795352182,2045
1629795352186,2046
1629795352190,2046
1629795352194,2046
1629795352198,2046
1629795352202,2046
1629795352206,2046
1629795352210,2046
1629795352214,2047
1629795352218,2047
1629795352222,2048
1629795352226,2048
1629795352230,2048
1629795352234,2048
1629795352238,2047
1629795352242,2046
1629795352246,2045
1629795352250,2045
1629795352254,2045
1629795352258,2045
1629795352262,2045
1629795352266,2046
1629795352270,2045
1629795352274,2045
1629795352278,2044
1629795352282,2044
1629795352286,2043
1629795352290,2043
1629795352294,2043
1629795352298,2043
1629795352302,2043
1629795352306,2044
1629795352310,2043
1629795352314,2043
1629795352318,2043
1629795352322,2042
1629795352326,2042
1629795352330,2042
1629795352334,2042
1629795352338,2042
1629795352342,2043
1629795352346,2042
1629795352350,2042
1629795352354,2042
1629795352358,2042
1629795352362,2042
1629795352366,2043
1629795352370,2043
1629795352374,2043
1629795352378,2042
1629795352382,2041
1629795352386,2039
1629795352390,2039
1629795352394,2039
1629795352398,2040
1629795352402,2042
1629795352406,2043
1629795352410,2044
1629795352414,2046
1629795352418,2048
1629795352422,2052
1629795352426,2055
1629795352430,2057
1629795352434,2055
1629795352438,2052
1629795352442,2048
1629795352446,2046
1629795352450,2044
1629795352454,2044
1629795352458,2044
1629795352462,2045
1629795352466,2046
1629795352470,2046
1629795352474,2046
1629795352478,2047
1629795352482,2046
1629795352486,2044
1629795352490,2042
1629795352494,2039
1629795352498,2036
1629795352502,2041
1629795352506,2059
1629795352510,2098
1629795352514,2151
1629795352518,2203
1629795352522,2232
1629795352526,2224
1629795352530,2180
1629795352534,2118
1629795352538,2061
1629795352542,2028
1629795352546,2020
1629795352550,2029
1629795352554,2041
1629795352558,2048
1629795352562,2048
1629795352566,2046
1629795352570,2043
1629795352574,2042
1629795352578,2042
1629795352582,2042
1629795352586,2043
1629795352590,2043
1629795352594,2043
1629795352598,2042
1629795352602,2041
1629795352606,2041
1629795352610,2041
1629795352614,2042
1629795352618,2042
1629795352622,2043
1629795352626,2044
1629795352630,2044
1629795352634,2044
1629795352638,2044
1629795352642,2043
1629795352646,2043
1629795352650,2044
1629795352654,2046
1629795352658,2047
1629795352662,2048
1629795352666,2048
1629795352670,2048
1629795352674,2048
1629795352678,2049
1629795352682,2049
1629795352686,2050
1629795352690,2052
1629795352694,2053
1629795352698,2055
1629795352702,2056
1629795352706,2058
1629795352710,2059
1629795352714,2060
1629795352718,2061
1629795352722,2061
1629795352726,2063
1629795352730,2064
1629795352734,2066
1629795352738,2068
1629795352742,2069
1629795352746,2071
1629795352750,2072
1629795352754,2072
1629795352758,2073
1629795352762,2073
1629795352766,2073
1629795352770,2073
1629795352774,2073
1629795352778,2073
1629795352782,2073
1629795352786,2073
1629795352790,2073
1629795352794,2073
1629795352798,2072
1629795352802,2070
1629795352806,2069
1629795352810,2068
1629795352814,2066
1629795352818,2065
1629795352822,2062
1629795352826,2060
1629795352830,2056
1629795352834,2054
1629795352838,2051
1629795352842,2048
1629795352846,2047
1629795352850,2045
1629795352854,2043
1629795352858,2042
1629795352862,2041
1629795352866,2040
1629795352870,2040
1629795352874,2040
1629795352878,2039
1629795352882,2039
1629795352886,2039
1629795352890,2039
1629795352894,2040
1629795352898,2041
1629795352902,2042
1629795352906,2043
1629795352910,2044
1629795352914,2044
1629795352918,2045
1629795352922,2045
1629795352926,2045
1629795352930,2045
1629795352934,2046
1629795352938,2046
1629795352942,2047
1629795352946,2047
1629795352950,2047
1629795352954,2047
1629795352958,2047
1629795352962,2047
1629795352966,2047
1629795352970,2047
1629795352974,2048
1629795352978,2048
1629795352982,2048
1629795352986,2047
1629795352990,2047
1629795352994,2046
1629795352998,2046
1629795353002,2046
1629795353006,2046
1629795353010,2046
1629795353014,2046
1629795353018,2046
1629795353022,2045
1629795353026,2045
1629795353030,2044
1629795353034,2044
1629795353038,2044
1629795353042,2044
1629795353046,2044
1629795353050,2044
1629795353054,2043
1629795353058,2044
1629795353062,2044
1629795353066,2044
1629795353070,2045
1629795353074,2045
1629795353078,2044
1629795353082,2043
1629795353086,2043
1629795353090,2042
1629795353094,2043
1629795353098,2043
1629795353102,2042
1629795353106,2041
1629795353110,2040
1629795353114,2040
1629795353118,2041
1629795353122,2043
1629795353126,2044
1629795353130,2046
1629795353134,2048
1629795353138,2050
1629795353142,2053
1629795353146,2056
1629795353150,2058
1629795353154,2057
1629795353158,2054
1629795353162,2050
1629795353166,2048
1629795353170,2047
1629795353174,2046
1629795353178,2046
1629795353182,2047
1629795353186,2047
1629795353190,2046
1629795353194,2046
1629795353198,2046
1629795353202,2047
1629795353206,2047
1629795353210,2046
1629795353214,2044
1629795353218,2041
1629795353222,2041
1629795353226,2049
1629795353230,2075
1629795353234,2120
1629795353238,2171
1629795353242,2213
1629795353246,2224
1629795353250,2197
1629795353254,2141
1629795353258,2077
1629795353262,2029
1629795353266,2007
1629795353270,2010
1629795353274,2026
1629795353278,2041
1629795353282,2048
1629795353286,2049
1629795353290,2047
1629795353294,2045
1629795353298,2044
1629795353302,2045
1629795353306,2046
1629795353310,2046
1629795353314,2046
1629795353318,2045
1629795353322,2044
1629795353326,2043
1629795353330,2043
1629795353334,2044
1629795353338,2045
1629795353342,2047
1629795353346,2048
1629795353350,2048
1629795353354,2048
1629795353358,2048
1629795353362,2048
1629795353366,2048
1629795353370,2048
1629795353374,2049
1629795353378,2050
1629795353382,2051
1629795353386,2051
1629795353390,2052
1629795353394,2053
1629795353398,2054
1629795353402,2055
1629795353406,2055
1629795353410,2055
1629795353414,2056
1629795353418,2057
1629795353422,2058
1629795353426,2060
1629795353430,2062
1629795353434,2064
1629795353438,2065
1629795353442,2066
1629795353446,2067
1629795353450,2068
1629795353454,2069
1629795353458,2070
1629795353462,2072
1629795353466,2074
1629795353470,2075
1629795353474,2077
1629795353478,2077
1629795353482,2078
1629795353486,2078
1629795353490,2078
1629795353494,2078
1629795353498,2079
1629795353502,2078
1629795353506,2078
1629795353510,2078
1629795353514,2077
1629795353518,2077
1629795353522,2075
1629795353526,2074
1629795353530,2073
1629795353534,2072
1629795353538,2071
1629795353542,2068
1629795353546,2065
1629795353550,2061
1629795353554,2057
1629795353558,2053
1629795353562,2050
1629795353566,2048
1629795353570,2047
1629795353574,2045
1629795353578,2044
1629795353582,2043
1629795353586,2042
1629795353590,2042
1629795353594,2041
1629795353598,2041
1629795353602,2039
1629795353606,2038
1629795353610,2038
1629795353614,2038
1629795353618,2039
1629795353622,2041
1629795353626,2042
1629795353630,2042
1629795353634,2043
1629795353638,2043
1629795353642,2042
1629795353646,2042
1629795353650,2042
1629795353654,2043
1629795353658,2044
1629795353662,2046
1629795353666,2047
1629795353670,2048
1629795353674,2048
1629795353678,2047
1629795353682,2045
1629795353686,2044
1629795353690,2044
1629795353694,2045
1629795353698,2045
1629795353702,2046
1629795353706,2046
1629795353710,2046
1629795353714,2046
1629795353718,2044
1629795353722,2043
1629795353726,2042
1629795353730,2042
1629795353734,2043
1629795353738,2043
1629795353742,2043
1629795353746,2043
1629795353750,2043
1629795353754,2043
1629795353758,2043
1629795353762,2042
1629795353766,2041
1629795353770,2041
1629795353774,2040
1629795353778,2040
1629795353782,2040
1629795353786,2040
1629795353790,2041
1629795353794,2041
1629795353798,2041
1629795353802,2040
1629795353806,2040
1629795353810,2040
1629795353814,2040
1629795353818,2041
1629795353822,2041
1629795353826,2041
1629795353830,2040
1629795353834,2039
1629795353838,2038
1629795353842,2038
1629795353846,2038
1629795353850,2039
1629795353854,2040
1629795353858,2042
1629795353862,2045
1629795353866,2049
1629795353870,2053
1629795353874,2054
1629795353878,2054
1629795353882,2051
1629795353886,2048
1629795353890,2045
1629795353894,2044
1629795353898,2044
1629795353902,2045
1629795353906,2045
1629795353910,2045
1629795353914,2044
1629795353918,2044
1629795353922,2044
1629795353926,2045
1629795353930,2045
1629795353934,2044
1629795353938,2042
1629795353942,2039
1629795353946,2038
1629795353950,2045
1629795353954,2066
1629795353958,2105
1629795353962,2154
1629795353966,2198
1629795353970,2218
1629795353974,2202
1629795353978,2153
1629795353982,2091
1629795353986,2039
1629795353990,2010
1629795353994,2007
1629795353998,2020
1629795354002,2035
1629795354006,2045
1629795354010,2048
1629795354014,2047
1629795354018,2045
1629795354022,2044
1629795354026,2043
1629795354030,2043
1629795354034,2043
1629795354038,2042
1629795354042,2042
1629795354046,2042
1629795354050,2043
1629795354054,2044
1629795354058,2045
1629795354062,2045
1629795354066,2045
1629795354070,2045
1629795354074,2045
1629795354078,2044
1629795354082,2044
1629795354086,2044
1629795354090,2045
1629795354094,2046
1629795354098,2047
1629795354102,2047
1629795354106,2048
1629795354110,2048
1629795354114,2048
1629795354118,2049
1629795354122,2049
1629795354126,2050
1629795354130,2051
1629795354134,2052
1629795354138,2053
1629795354142,2055
1629795354146,2056
1629795354150,2057
1629795354154,2057
1629795354158,2058
1629795354162,2059
1629795354166,2061
1629795354170,2062
1629795354174,2064
1629795354178,2066
1629795354182,2068
1629795354186,2069
1629795354190,2071
1629795354194,2071
1629795354198,2072
1629795354202,2074
1629795354206,2075
1629795354210,2076
1629795354214,2077
1629795354218,2078
1629795354222,2078
1629795354226,2078
1629795354230,2077
1629795354234,2077
1629795354238,2076
1629795354242,2075
1629795354246,2073
1629795354250,2072
1629795354254,2070
1629795354258,2069
1629795354262,2066
1629795354266,2064
1629795354270,2061
1629795354274,2057
1629795354278,2053
1629795354282,2050
1629795354286,2048
1629795354290,2046
1629795354294,2044
1629795354298,2042
1629795354302,2041
1629795354306,2040
1629795354310,2039
1629795354314,2039
1629795354318,2037
1629795354322,2036
1629795354326,2035
1629795354330,2035
1629795354334,2035
1629795354338,2035
1629795354342,2036
1629795354346,2037
1629795354350,2037
1629795354354,2037
1629795354358,2037
1629795354362,2038
1629795354366,2038
1629795354370,2039
1629795354374,2040
1629795354378,2041
1629795354382,2042
1629795354386,2043
1629795354390,2043
1629795354394,2043
1629795354398,2043
1629795354402,2043
1629795354406,2043
1629795354410,2043
1629795354414,2044
1629795354418,2044
1629795354422,2045
1629795354426,2045
1629795354430,2045
1629795354434,2044
1629795354438,2044
1629795354442,2044
1629795354446,2044
1629795354450,2043
1629795354454,2043
1629795354458,2042
1629795354462,2041
1629795354466,2041
1629795354470,2041
1629795354474,2041
1629795354478,2041
1629795354482,2041
1629795354486,2041
1629795354490,2040
1629795354494,2040
1629795354498,2041
1629795354502,2041
1629795354506,2041
1629795354510,2041
1629795354514,2040
1629795354518,2040
1629795354522,2039
1629795354526,2039
1629795354530,2039
1629795354534,2039
1629795354538,2040
1629795354542,2040
1629795354546,2041
1629795354550,2041
1629795354554,2040
1629795354558,2038
1629795354562,2037
1629795354566,2036
1629795354570,2035
1629795354574,2036
1629795354578,2037
1629795354582,2039
1629795354586,2040
1629795354590,2043
1629795354594,2045
1629795354598,2048
1629795354602,2050
1629795354606,2052
1629795354610,2051
1629795354614,2049
1629795354618,2048
1629795354622,2045
1629795354626,2044
1629795354630,2043
1629795354634,2043
1629795354638,2043
1629795354642,2042
1629795354646,2042
1629795354650,2042
1629795354654,2043
1629795354658,2044
1629795354662,2045
1629795354666,2043
1629795354670,2041
1629795354674,2036
1629795354678,2035
1629795354682,2045
1629795354686,2071
1629795354690,2119
1629795354694,2176
1629795354698,2223
1629795354702,2240
1629795354706,2218
1629795354710,2164
1629795354714,2101
1629795354718,2050
1629795354722,2025
1629795354726,2023
1629795354730,2032
1629795354734,2042
1629795354738,2046
1629795354742,2045
1629795354746,2043
1629795354750,2041
1629795354754,2040
1629795354758,2038
1629795354762,2037
1629795354766,2037
1629795354770,2037
1629795354774,2038
1629795354778,2039
1629795354782,2039
1629795354786,2040
1629795354790,2040
1629795354794,2040
1629795354798,2040
1629795354802,2040
1629795354806,2040
1629795354810,2040
1629795354814,2040
1629795354818,2041
1629795354822,2042
1629795354826,2042
1629795354830,2043
1629795354834,2043
1629795354838,2043
1629795354842,2043
1629795354846,2043
1629795354850,2044
1629795354854,2045
1629795354858,2046
1629795354862,2048
1629795354866,2048
1629795354870,2049
1629795354874,2050
1629795354878,2050
1629795354882,2051
1629795354886,2052
1629795354890,2053
1629795354894,2054
1629795354898,2056
1629795354902,2057
1629795354906,2059
1629795354910,2061
1629795354914,2063
1629795354918,2064
1629795354922,2065
1629795354926,2066
1629795354930,2068
1629795354934,2069
1629795354938,2070
1629795354942,2072
1629795354946,2073
1629795354950,2073
1629795354954,2073
1629795354958,2074
1629795354962,2073
1629795354966,2073
1629795354970,2073
1629795354974,2072
1629795354978,2071
1629795354982,2069
1629795354986,2068
1629795354990,2065
1629795354994,2062
1629795354998,2059
1629795355002,2054
1629795355006,2051
1629795355010,2048
1629795355014,2046
1629795355018,2044
1629795355022,2042
1629795355026,2041
1629795355030,2040
1629795355034,2038
1629795355038,2037
1629795355042,2035
1629795355046,2035
1629795355050,2034
1629795355054,2034
1629795355058,2034
1629795355062,2034
1629795355066,2034
1629795355070,2034
1629795355074,2034
1629795355078,2034
1629795355082,2034
1629795355086,2034
1629795355090,2035
1629795355094,2036
1629795355098,2037
1629795355102,2038
1629795355106,2039
1629795355110,2039
1629795355114,2039
1629795355118,2039
1629795355122,2040
1629795355126,2040
1629795355130,2041
1629795355134,2042
1629795355138,2042
1629795355142,2043
1629795355146,2043
1629795355150,2043
1629795355154,2042
1629795355158,2042
1629795355162,2042
1629795355166,2041
1629795355170,2042
1629795355174,2042
1629795355178,2042
1629795355182,2042
1629795355186,2042
1629795355190,2042
1629795355194,2042
1629795355198,2041
1629795355202,2040
1629795355206,2040
1629795355210,2040
1629795355214,2040
1629795355218,2040
1629795355222,2041
1629795355226,2042
1629795355230,2041
1629795355234,2041
1629795355238,2040
1629795355242,2039
1629795355246,2039
1629795355250,2039
1629795355254,2040
1629795355258,2040
1629795355262,2041
1629795355266,2041
1629795355270,2041
1629795355274,2041
1629795355278,2041
1629795355282,2041
1629795355286,2041
1629795355290,2041
1629795355294,2041
1629795355298,2041
1629795355302,2041
1629795355306,2041
1629795355310,2040
1629795355314,2039
1629795355318,2037
1629795355322,2036
1629795355326,2036
1629795355330,2037
1629795355334,2038
1629795355338,2040
1629795355342,2042
1629795355346,2044
1629795355350,2047
1629795355354,2049
1629795355358,2051
1629795355362,2052
1629795355366,2052
1629795355370,2050
1629795355374,2048
1629795355378,2047
1629795355382,2045
1629795355386,2044
1629795355390,2044
1629795355394,2043
1629795355398,2043
1629795355402,2043
1629795355406,2043
1629795355410,2043
1629795355414,2044
1629795355418,2045
1629795355422,2044
1629795355426,2042
1629795355430,2037
1629795355434,2034
1629795355438,2038
1629795355442,2058
1629795355446,2102
1629795355450,2162
1629795355454,2221
1629795355458,2254
1629795355462,2248
1629795355466,2202
1629795355470,2137
1629795355474,2077
1629795355478,2040
1629795355482,2029
1629795355486,2034
1629795355490,2042
1629795355494,2046
1629795355498,2045
1629795355502,2042
1629795355506,2041
1629795355510,2040
1629795355514,2039
1629795355518,2038
1629795355522,2037
1629795355526,2037
1629795355530,2037
1629795355534,2037
1629795355538,2038
1629795355542,2038
1629795355546,2039
1629795355550,2039
1629795355554,2039
1629795355558,2039
1629795355562,2039
1629795355566,2039
1629795355570,2039
1629795355574,2040
1629795355578,2040
1629795355582,2041
1629795355586,2041
1629795355590,2042
1629795355594,2042
1629795355598,2043
1629795355602,2043
1629795355606,2043
1629795355610,2044
1629795355614,2045
1629795355618,2047
1629795355622,2048
1629795355626,2048
1629795355630,2049
1629795355634,2050
1629795355638,2051
1629795355642,2052
1629795355646,2053
1629795355650,2054
1629795355654,2055
1629795355658,2057
1629795355662,2059
1629795355666,2061
1629795355670,2062
1629795355674,2064
1629795355678,2065
1629795355682,2066
1629795355686,2068
1629795355690,2070
1629795355694,2071
1629795355698,2073
1629795355702,2074
1629795355706,2075
1629795355710,2075
1629795355714,2075
1629795355718,2075
1629795355722,2074
1629795355726,2074
1629795355730,2073
1629795355734,2073
1629795355738,2072
1629795355742,2070
1629795355746,2068
1629795355750,2065
1629795355754,2062
1629795355758,2058
1629795355762,2054
1629795355766,2051
1629795355770,2049
1629795355774,2047
1629795355778,2045
1629795355782,2043
1629795355786,2041
1629795355790,2040
1629795355794,2039
1629795355798,2038
1629795355802,2037
1629795355806,2036
1629795355810,2036
1629795355814,2036
1629795355818,2036
1629795355822,2036
1629795355826,2036
1629795355830,2036
1629795355834,2036
1629795355838,2036
1629795355842,2035
1629795355846,2036
1629795355850,2036
1629795355854,2037
1629795355858,2038
1629795355862,2039
1629795355866,2040
1629795355870,2040
1629795355874,2040
1629795355878,2040
1629795355882,2040
1629795355886,2041
1629795355890,2041
1629795355894,2042
1629795355898,2042
1629795355902,2043
1629795355906,2043
1629795355910,2043
1629795355914,2043
1629795355918,2043
1629795355922,2042
1629795355926,2042
1629795355930,2043
1629795355934,2043
1629795355938,2043
1629795355942,2043
1629795355946,2043
1629795355950,2043
1629795355954,2042
1629795355958,2042
1629795355962,2042
1629795355966,2042
1629795355970,2041
1629795355974,2041
1629795355978,2042
1629795355982,2042
1629795355986,2042
1629795355990,2042
1629795355994,2042
1629795355998,2042
1629795356002,2042
1629795356006,2041
1629795356010,2041
1629795356014,2041
1629795356018,2042
1629795356022,2042
1629795356026,2042
1629795356030,2042
1629795356034,2042
1629795356038,2042
1629795356042,2042
1629795356046,2042
1629795356050,2042
1629795356054,2042
1629795356058,2043
1629795356062,2043
1629795356066,2044
1629795356070,2044
1629795356074,2044
1629795356078,2043
1629795356082,2042
1629795356086,2040
1629795356090,2039
1629795356094,2039
1629795356098,2040
1629795356102,2042
1629795356106,2043
1629795356110,2044
1629795356114,2045
1629795356118,2047
1629795356122,2048
1629795356126,2052
1629795356130,2054
1629795356134,2055
1629795356138,2054
1629795356142,2052
1629795356146,2050
1629795356150,2048
1629795356154,2047
1629795356158,2046
1629795356162,2045
1629795356166,2045
1629795356170,2045
1629795356174,2045
1629795356178,2046
1629795356182,2047
1629795356186,2047
1629795356190,2047
1629795356194,2045
1629795356198,2041
1629795356202,2036
1629795356206,2037
1629795356210,2049
1629795356214,2085
1629795356218,2141
1629795356222,2203
1629795356226,2248
1629795356230,2255
1629795356234,2220
1629795356238,2158
1629795356242,2094
1629795356246,2049
1629795356250,2031
1629795356254,2034
1629795356258,2043
1629795356262,2048
1629795356266,2048
1629795356270,2046
1629795356274,2044
1629795356278,2042
1629795356282,2040
1629795356286,2040
1629795356290,2039
1629795356294,2040
1629795356298,2040
1629795356302,2041
1629795356306,2041
1629795356310,2041
1629795356314,2041
1629795356318,2040
1629795356322,2040
1629795356326,2041
1629795356330,2041
1629795356334,2041
1629795356338,2042
1629795356342,2043
1629795356346,2043
1629795356350,2044
1629795356354,2044
1629795356358,2044
1629795356362,2044
1629795356366,2044
1629795356370,2045
1629795356374,2046
1629795356378,2047
1629795356382,2048
1629795356386,2048
1629795356390,2049
1629795356394,2049
1629795356398,2050
1629795356402,2051
1629795356406,2052
1629795356410,2053
1629795356414,2054
1629795356418,2055
1629795356422,2057
1629795356426,2058
1629795356430,2060
1629795356434,2061
1629795356438,2062
1629795356442,2064
1629795356446,2065
1629795356450,2067
1629795356454,2069
1629795356458,2070
1629795356462,2072
1629795356466,2073
1629795356470,2074
1629795356474,2075
1629795356478,2075
1629795356482,2075
1629795356486,2074
1629795356490,2074
1629795356494,2074
1629795356498,2074
1629795356502,2074
1629795356506,2073
1629795356510,2072
1629795356514,2069
1629795356518,2067
1629795356522,2063
1629795356526,2060
1629795356530,2057
1629795356534,2054
1629795356538,2052
1629795356542,2049
1629795356546,2048
1629795356550,2046
1629795356554,2044
1629795356558,2042
1629795356562,2040
1629795356566,2038
1629795356570,2038
1629795356574,2038
1629795356578,2038
1629795356582,2038
1629795356586,2038
1629795356590,2038
1629795356594,2038
1629795356598,2037
1629795356602,2037
1629795356606,2037
1629795356610,2037
1629795356614,2038
1629795356618,2039
1629795356622,2040
1629795356626,2041
1629795356630,2042
1629795356634,2042
1629795356638,2042
1629795356642,2042
1629795356646,2042
1629795356650,2043
1629795356654,2043
1629795356658,2044
1629795356662,2045
1629795356666,2046
1629795356670,2046
1629795356674,2045
1629795356678,2045
1629795356682,2044
1629795356686,2044
1629795356690,2044
1629795356694,2045
1629795356698,2045
1629795356702,2045
1629795356706,2046
1629795356710,2046
1629795356714,2045
1629795356718,2045
1629795356722,2044
1629795356726,2043
1629795356730,2043
1629795356734,2043
1629795356738,2043
1629795356742,2044
1629795356746,2044
1629795356750,2043
1629795356754,2043
1629795356758,2042
1629795356762,2042
1629795356766,2042
1629795356770,2042
1629795356774,2042
1629795356778,2043
1629795356782,2043
1629795356786,2043
1629795356790,2043
1629795356794,2043
1629795356798,2042
1629795356802,2042
1629795356806,2042
1629795356810,2042
1629795356814,2042
1629795356818,2043
1629795356822,2043
1629795356826,2043
1629795356830,2043
1629795356834,2043
1629795356838,2043
1629795356842,2042
1629795356846,2042
1629795356850,2042
1629795356854,2043
1629795356858,2043
1629795356862,2044
1629795356866,2044
1629795356870,2044
1629795356874,2044
1629795356878,2043
1629795356882,2041
1629795356886,2040
1629795356890,2039
1629795356894,2039
1629795356898,2040
1629795356902,2042
1629795356906,2043
1629795356910,2045
1629795356914,2047
1629795356918,2048
1629795356922,2051
1629795356926,2054
1629795356930,2055
1629795356934,2055
1629795356938,2053
1629795356942,2050
1629795356946,2048
1629795356950,2046
1629795356954,2045
1629795356958,2045
1629795356962,2045
1629795356966,2044
1629795356970,2044
1629795356974,2045
1629795356978,2046
1629795356982,2047
1629795356986,2048
1629795356990,2046
1629795356994,2043
1629795356998,2038
1629795357002,2036
1629795357006,2046
1629795357010,2073
1629795357014,2123
1629795357018,2183
1629795357022,2231
1629795357026,2247
1629795357030,2222
1629795357034,2167
1629795357038,2104
1629795357042,2055
1629795357046,2032
1629795357050,2031
1629795357054,2040
1629795357058,2048
1629795357062,2049
1629795357066,2048
1629795357070,2045
1629795357074,2044
1629795357078,2042
1629795357082,2042
1629795357086,2041
1629795357090,2041
1629795357094,2042
1629795357098,2042
1629795357102,2043
1629795357106,2043
1629795357110,2043
1629795357114,2042
1629795357118,2042
1629795357122,2042
1629795357126,2042
1629795357130,2043
1629795357134,2044
1629795357138,2044
1629795357142,2045
1629795357146,2045
1629795357150,2046
1629795357154,2046
1629795357158,2046
1629795357162,2046
1629795357166,2047
1629795357170,2047
1629795357174,2048
1629795357178,2048
1629795357182,2050
1629795357186,2051
1629795357190,2052
1629795357194,2052
1629795357198,2053
1629795357202,2054
1629795357206,2055
1629795357210,2055
1629795357214,2057
1629795357218,2059
1629795357222,2060
1629795357226,2062
1629795357230,2063
1629795357234,2064
1629795357238,2065
1629795357242,2066
1629795357246,2067
1629795357250,2069
1629795357254,2070
1629795357258,2072
1629795357262,2073
1629795357266,2074
1629795357270,2075
1629795357274,2075
1629795357278,2075
1629795357282,2075
1629795357286,2075
1629795357290,2074
1629795357294,2074
1629795357298,2074
1629795357302,2073
1629795357306,2072
1629795357310,2070
1629795357314,2068
1629795357318,2066
1629795357322,2063
1629795357326,2060
1629795357330,2057
1629795357334,2054
1629795357338,2052
1629795357342,2050
1629795357346,2048
1629795357350,2046
1629795357354,2044
1629795357358,2043
1629795357362,2041
1629795357366,2040
1629795357370,2039
1629795357374,2039
1629795357378,2040
1629795357382,2040
1629795357386,2040
1629795357390,2040
1629795357394,2040
1629795357398,2040
1629795357402,2040
1629795357406,2040
1629795357410,2041
1629795357414,2041
1629795357418,2042
1629795357422,2043
1629795357426,2044
1629795357430,2045
1629795357434,2045
1629795357438,2045
1629795357442,2045
1629795357446,2045
1629795357450,2046
1629795357454,2046
1629795357458,2047
1629795357462,2047
1629795357466,2048
1629795357470,2048
1629795357474,2048
1629795357478,2048
1629795357482,2047
1629795357486,2047
1629795357490,2047
1629795357494,2047
1629795357498,2047
1629795357502,2048
1629795357506,2048
1629795357510,2047
1629795357514,2046
1629795357518,2046
1629795357522,2045
1629795357526,2045
1629795357530,2045
1629795357534,2045
1629795357538,2045
1629795357542,2045
1629795357546,2046
1629795357550,2045
1629795357554,2045
1629795357558,2045
1629795357562,2044
1629795357566,2044
1629795357570,2044
1629795357574,2044
1629795357578,2044
1629795357582,2044
1629795357586,2044
1629795357590,2045
1629795357594,2045
1629795357598,2044
1629795357602,2044
1629795357606,2043
1629795357610,2043
1629795357614,2044
1629795357618,2044
1629795357622,2045
1629795357626,2045
1629795357630,2045
1629795357634,2045
1629795357638,2045
1629795357642,2044
1629795357646,2044
1629795357650,2044
1629795357654,2044
1629795357658,2045
1629795357662,2045
1629795357666,2045
1629795357670,2045
1629795357674,2045
1629795357678,2045
1629795357682,2045
1629795357686,2044
1629795357690,2044
1629795357694,2043
1629795357698,2043
1629795357702,2043
1629795357706,2044
1629795357710,2045
1629795357714,2045
1629795357718,2046
1629795357722,2047
1629795357726,2048
1629795357730,2050
1629795357734,2054
1629795357738,2057
1629795357742,2059
1629795357746,2058
1629795357750,2055
1629795357754,2052
1629795357758,2049
1629795357762,2048
1629795357766,2047
1629795357770,2047
1629795357774,2047
1629795357778,2048
1629795357782,2048
1629795357786,2048
1629795357790,2048
1629795357794,2049
1629795357798,2048
1629795357802,2046
1629795357806,2043
1629795357810,2038
1629795357814,2040
1629795357818,2054
1629795357822,2090
1629795357826,2143
1629795357830,2200
1629795357834,2239
1629795357838,2241
1629795357842,2204
1629795357846,2144
1629795357850,2084
1629795357854,2045
1629795357858,2031
1629795357862,2036
1629795357866,2045
1629795357870,2050
1629795357874,2050
1629795357878,2048
1629795357882,2046
1629795357886,2044
1629795357890,2043
1629795357894,2043
1629795357898,2044
1629795357902,2044
1629795357906,2044
1629795357910,2044
1629795357914,2044
1629795357918,2044
1629795357922,2044
1629795357926,2044
1629795357930,2044
1629795357934,2045
1629795357938,2045
1629795357942,2046
1629795357946,2046
1629795357950,2046
1629795357954,2047
1629795357958,2047
1629795357962,2047
1629795357966,2047
1629795357970,2047
1629795357974,2048
1629795357978,2048
1629795357982,2049
1629795357986,2050
1629795357990,2051
1629795357994,2052
1629795357998,2052
1629795358002,2053
1629795358006,2054
1629795358010,2055
1629795358014,2056
1629795358018,2057
1629795358022,2059
1629795358026,2060
1629795358030,2061
1629795358034,2062
1629795358038,2063
1629795358042,2064
1629795358046,2066
1629795358050,2067
1629795358054,2069
1629795358058,2070
1629795358062,2072
1629795358066,2073
1629795358070,2074
1629795358074,2075
1629795358078,2075
1629795358082,2075
1629795358086,2075
1629795358090,2075
1629795358094,2075
1629795358098,2076
1629795358102,2076
1629795358106,2075
1629795358110,2075
1629795358114,2073
1629795358118,2071
1629795358122,2069
1629795358126,2067
1629795358130,2065
1629795358134,2063
1629795358138,2061
1629795358142,2059
1629795358146,2056
1629795358150,2054
1629795358154,2051
1629795358158,2048
1629795358162,2046
1629795358166,2044
1629795358170,2043
1629795358174,2042
1629795358178,2042
1629795358182,2041
1629795358186,2041
1629795358190,2040
1629795358194,2040
1629795358198,2039
1629795358202,2039
1629795358206,2039
1629795358210,2040
1629795358214,2040
1629795358218,2042
1629795358222,2043
1629795358226,2044
1629795358230,2045
1629795358234,2045
1629795358238,2045
1629795358242,2045
1629795358246,2045
1629795358250,2045
1629795358254,2046
1629795358258,2047
1629795358262,2048
1629795358266,2048
1629795358270,2048
1629795358274,2048
1629795358278,2048
1629795358282,2047
1629795358286,2047
1629795358290,2047
1629795358294,2048
1629795358298,2048
1629795358302,2048
1629795358306,2048
1629795358310,2048
1629795358314,2048
1629795358318,2048
1629795358322,2047
1629795358326,2047
1629795358330,2046
1629795358334,2047
1629795358338,2047
1629795358342,2047
1629795358346,2047
1629795358350,2046
1629795358354,2046
1629795358358,2045
1629795358362,2045
1629795358366,2045
1629795358370,2045
1629795358374,2045
1629795358378,2046
1629795358382,2046
1629795358386,2046
1629795358390,2046
1629795358394,2045
1629795358398,2045
1629795358402,2044
1629795358406,2044
1629795358410,2045
1629795358414,2045
1629795358418,2045
1629795358422,2046
1629795358426,2046
1629795358430,2046
1629795358434,2046
1629795358438,2046
1629795358442,2046
1629795358446,2045
1629795358450,2045
1629795358454,2046
1629795358458,2046
1629795358462,2046
1629795358466,2047
1629795358470,2047
1629795358474,2047
1629795358478,2046
1629795358482,2046
1629795358486,2046
1629795358490,2045
1629795358494,2046
1629795358498,2046
1629795358502,2046
1629795358506,2045
1629795358510,2044
1629795358514,2044
1629795358518,2044
1629795358522,2045
1629795358526,2046
1629795358530,2047
1629795358534,2048
1629795358538,2051
1629795358542,2054
1629795358546,2058
1629795358550,2060
1629795358554,2060
1629795358558,2057
1629795358562,2054
1629795358566,2051
1629795358570,2048
1629795358574,2048
1629795358578,2048
1629795358582,2048
1629795358586,2048
1629795358590,2048
1629795358594,2048
1629795358598,2048
1629795358602,2048
1629795358606,2049
1629795358610,2048
1629795358614,2046
1629795358618,2042
1629795358622,2040
1629795358626,2045
1629795358630,2067
1629795358634,2111
1629795358638,2168
1629795358642,2220
1629795358646,2244
1629795358650,2230
1629795358654,2181
1629795358658,2118
1629795358662,2065
1629795358666,2037
1629795358670,2032
1629795358674,2039
1629795358678,2048
1629795358682,2051
1629795358686,2050
1629795358690,2048
1629795358694,2047
1629795358698,2046
1629795358702,2045
1629795358706,2045
1629795358710,2045
1629795358714,2045
1629795358718,2045
1629795358722,2044
1629795358726,2044
1629795358730,2044
1629795358734,2045
1629795358738,2045
1629795358742,2046
1629795358746,2047
1629795358750,2047
1629795358754,2047
1629795358758,2047
1629795358762,2047
1629795358766,2047
1629795358770,2048
1629795358774,2048
1629795358778,2049
1629795358782,2049
1629795358786,2050
1629795358790,2051
1629795358794,2051
1629795358798,2051
1629795358802,2052
1629795358806,2052
1629795358810,2053
1629795358814,2054
1629795358818,2056
1629795358822,2057
1629795358826,2058
1629795358830,2059
1629795358834,2061
1629795358838,2061
1629795358842,2062
1629795358846,2064
1629795358850,2065
1629795358854,2067
1629795358858,2068
1629795358862,2070
1629795358866,2071
1629795358870,2073
1629795358874,2074
1629795358878,2075
1629795358882,2075
1629795358886,2076
1629795358890,2076
1629795358894,2076
1629795358898,2077
1629795358902,2077
1629795358906,2077
1629795358910,2077
1629795358914,2076
1629795358918,2075
1629795358922,2074
1629795358926,2073
1629795358930,2072
1629795358934,2070
1629795358938,2069
1629795358942,2067
1629795358946,2064
1629795358950,2061
1629795358954,2059
1629795358958,2056
1629795358962,2052
1629795358966,2050
1629795358970,2048
1629795358974,2047
1629795358978,2046
1629795358982,2045
1629795358986,2044
1629795358990,2043
1629795358994,2042
1629795358998,2041
1629795359002,2040
1629795359006,2040
1629795359010,2040
1629795359014,2041
1629795359018,2042
1629795359022,2043
1629795359026,2044
1629795359030,2044
1629795359034,2045
1629795359038,2045
1629795359042,2045
1629795359046,2046
1629795359050,2046
1629795359054,2047
1629795359058,2048
1629795359062,2048
1629795359066,2048
1629795359070,2048
1629795359074,2048
1629795359078,2048
1629795359082,2048
1629795359086,2048
1629795359090,2048
1629795359094,2048
1629795359098,2048
1629795359102,2049
1629795359106,2049
1629795359110,2049
1629795359114,2049
1629795359118,2048
1629795359122,2048
1629795359126,2047
1629795359130,2047
1629795359134,2047
1629795359138,2047
1629795359142,2047
1629795359146,2048
1629795359150,2047
1629795359154,2047
1629795359158,2046
1629795359162,2046
1629795359166,2045
1629795359170,2045
1629795359174,2045
1629795359178,2045
1629795359182,2045
1629795359186,2046
1629795359190,2046
1629795359194,2045
1629795359198,2045
1629795359202,2044
1629795359206,2044
1629795359210,2044
1629795359214,2044
1629795359218,2045
1629795359222,2045
1629795359226,2046
1629795359230,2046
1629795359234,2046
1629795359238,2045
1629795359242,2045
1629795359246,2045
1629795359250,2044
1629795359254,2045
1629795359258,2045
1629795359262,2046
1629795359266,2046
1629795359270,2046
1629795359274,2046
1629795359278,2045
1629795359282,2045
1629795359286,2045
1629795359290,2045
1629795359294,2045
1629795359298,2046
1629795359302,2046
1629795359306,2046
1629795359310,2045
1629795359314,2044
1629795359318,2043
1629795359322,2042
1629795359326,2044
1629795359330,2045
1629795359334,2046
1629795359338,2048
1629795359342,2049
1629795359346,2051
1629795359350,2055
1629795359354,2058
1629795359358,2059
1629795359362,2058
1629795359366,2055
1629795359370,2052
1629795359374,2050
1629795359378,2048
1629795359382,2048
1629795359386,2048
1629795359390,2048
1629795359394,2048
1629795359398,2048
1629795359402,2048
1629795359406,2048
1629795359410,2048
1629795359414,2048
1629795359418,2048
1629795359422,2045
1629795359426,2041
1629795359430,2040
1629795359434,2050
1629795359438,2079
1629795359442,2129
1629795359446,2187
1629795359450,2231
1629795359454,2243
1629795359458,2215
1629795359462,2158
1629795359466,2096
1629795359470,2050
1629795359474,2031
1629795359478,2032
1629795359482,2042
1629795359486,2048
1629795359490,2050
1629795359494,2048
1629795359498,2047
1629795359502,2045
1629795359506,2045
1629795359510,2044
1629795359514,2043
1629795359518,2043
1629795359522,2043
1629795359526,2043
1629795359530,2043
1629795359534,2043
1629795359538,2044
1629795359542,2044
1629795359546,2045
1629795359550,2045
1629795359554,2045
1629795359558,2045
1629795359562,2045
1629795359566,2045
1629795359570,2045
1629795359574,2046
1629795359578,2047
1629795359582,2048
1629795359586,2048
1629795359590,2048
1629795359594,2049
1629795359598,2049
1629795359602,2049
1629795359606,2050
1629795359610,2050
1629795359614,2051
1629795359618,2052
1629795359622,2054
1629795359626,2055
1629795359630,2056
1629795359634,2057
1629795359638,2058
1629795359642,2059
1629795359646,2060
1629795359650,2061
1629795359654,2063
1629795359658,2064
1629795359662,2066
1629795359666,2067
1629795359670,2069
1629795359674,2070
1629795359678,2071
1629795359682,2071
1629795359686,2072
1629795359690,2073
1629795359694,2074
1629795359698,2075
1629795359702,2076
1629795359706,2076
1629795359710,2076
1629795359714,2075
1629795359718,2074
1629795359722,2073
1629795359726,2072
1629795359730,2071
1629795359734,2071
1629795359738,2070
1629795359742,2068
1629795359746,2066
1629795359750,2064
1629795359754,2061
1629795359758,2058
1629795359762,2055
1629795359766,2052
1629795359770,2049
1629795359774,2048
1629795359778,2047
1629795359782,2045
1629795359786,2044
1629795359790,2043
1629795359794,2041
1629795359798,2040
1629795359802,2039
1629795359806,2038
1629795359810,2038
1629795359814,2038
1629795359818,2039
1629795359822,2039
1629795359826,2040
1629795359830,2041
1629795359834,2041
1629795359838,2042
1629795359842,2042
1629795359846,2043
1629795359850,2043
1629795359854,2044
1629795359858,2045
1629795359862,2045
1629795359866,2046
1629795359870,2046
1629795359874,2046
1629795359878,2046
1629795359882,2046
1629795359886,2045
1629795359890,2046
1629795359894,2046
1629795359898,2047
1629795359902,2047
1629795359906,2047
1629795359910,2047
1629795359914,2047
1629795359918,2046
1629795359922,2046
1629795359926,2045
1629795359930,2045
1629795359934,2045
1629795359938,2046
1629795359942,2045
1629795359946,2045
1629795359950,2045
1629795359954,2044
1629795359958,2044
1629795359962,2043
1629795359966,2043
1629795359970,2043
1629795359974,2043
1629795359978,2044
1629795359982,2044
1629795359986,2044
1629795359990,2044
1629795359994,2043
1629795359998,2042
1629795360002,2042
1629795360006,2042
1629795360010,2042
1629795360014,2043
1629795360018,2043
1629795360022,2043
1629795360026,2044
1629795360030,2044
1629795360034,2043
1629795360038,2043
1629795360042,2043
1629795360046,2043
1629795360050,2043
1629795360054,2043
1629795360058,2043
1629795360062,2044
1629795360066,2044
1629795360070,2045
1629795360074,2044
1629795360078,2044
1629795360082,2043
1629795360086,2043
1629795360090,2043
1629795360094,2044
1629795360098,2044
1629795360102,2045
1629795360106,2045
1629795360110,2045
1629795360114,2045
1629795360118,2044
1629795360122,2043
1629795360126,2042
1629795360130,2041
1629795360134,2041
1629795360138,2042
1629795360142,2043
1629795360146,2045
1629795360150,2046
1629795360154,2047
1629795360158,2048
1629795360162,2051
1629795360166,2053
1629795360170,2056
1629795360174,2057
1629795360178,2057
1629795360182,2054
1629795360186,2051
1629795360190,2048
1629795360194,2047
1629795360198,2046
1629795360202,2046
1629795360206,2046
1629795360210,2046
1629795360214,2046
1629795360218,2047
1629795360222,2048
1629795360226,2048
1629795360230,2048
1629795360234,2047
1629795360238,2043
1629795360242,2038
1629795360246,2040
1629795360250,2055
1629795360254,2091
1629795360258,2145
1629795360262,2202
1629795360266,2238
1629795360270,2238
1629795360274,2199
1629795360278,2137
1629795360282,2078
1629795360286,2040
1629795360290,2027
1629795360294,2033
1629795360298,2044
1629795360302,2049
1629795360306,2050
1629795360310,2048
1629795360314,2046
1629795360318,2044
1629795360322,2043
1629795360326,2042
1629795360330,2041
1629795360334,2042
1629795360338,2042
1629795360342,2042
1629795360346,2043
1629795360350,2043
1629795360354,2043
1629795360358,2042
1629795360362,2042
1629795360366,2042
1629795360370,2043
1629795360374,2044
1629795360378,2045
1629795360382,2046
1629795360386,2047
1629795360390,2047
1629795360394,2047
1629795360398,2046
1629795360402,2046
1629795360406,2047
1629795360410,2047
1629795360414,2048
1629795360418,2049
1629795360422,2050
1629795360426,2051
1629795360430,2052
1629795360434,2052
1629795360438,2053
1629795360442,2054
1629795360446,2054
1629795360450,2055
1629795360454,2056
1629795360458,2058
1629795360462,2060
1629795360466,2061
1629795360470,2063
1629795360474,2065
1629795360478,2066
1629795360482,2067
1629795360486,2068
1629795360490,2069
1629795360494,2070
1629795360498,2072
1629795360502,2073
1629795360506,2074
1629795360510,2075
1629795360514,2075
1629795360518,2075
1629795360522,2074
1629795360526,2074
1629795360530,2074
1629795360534,2074
1629795360538,2074
1629795360542,2074
1629795360546,2073
1629795360550,2072
1629795360554,2070
1629795360558,2068
1629795360562,2066
1629795360566,2063
1629795360570,2060
1629795360574,2058
1629795360578,2055
1629795360582,2053
1629795360586,2051
1629795360590,2048
1629795360594,2046
1629795360598,2044
1629795360602,2042
1629795360606,2041
1629795360610,2040
1629795360614,2039
1629795360618,2039
1629795360622,2038
1629795360626,2038
1629795360630,2038
1629795360634,2038
1629795360638,2038
1629795360642,2038
1629795360646,2038
1629795360650,2039
1629795360654,2040
1629795360658,2042
1629795360662,2043
1629795360666,2043
1629795360670,2043
1629795360674,2043
1629795360678,2043
1629795360682,2043
1629795360686,2043
1629795360690,2043
1629795360694,2044
1629795360698,2045
1629795360702,2046
1629795360706,2047
1629795360710,2047
1629795360714,2046
1629795360718,2045
1629795360722,2045
1629795360726,2044
1629795360730,2045
1629795360734,2045
1629795360738,2045
1629795360742,2045
1629795360746,2045
1629795360750,2045
1629795360754,2045
1629795360758,2044
1629795360762,2044
1629795360766,2044
1629795360770,2043
1629795360774,2043
1629795360778,2043
1629795360782,2043
1629795360786,2042
1629795360790,2042
1629795360794,2042
1629795360798,2042
1629795360802,2043
1629795360806,2043
1629795360810,2043
1629795360814,2043
1629795360818,2044
1629795360822,2044
1629795360826,2044
1629795360830,2044
1629795360834,2044
1629795360838,2044
1629795360842,2043
1629795360846,2043
1629795360850,2043
1629795360854,2043
1629795360858,2043
1629795360862,2044
1629795360866,2044
1629795360870,2045
1629795360874,2044
1629795360878,2044
1629795360882,2044
1629795360886,2044
1629795360890,2044
1629795360894,2045
1629795360898,2046
1629795360902,2046
1629795360906,2046
1629795360910,2046
1629795360914,2046
1629795360918,2046
1629795360922,2046
1629795360926,2045
1629795360930,2045
1629795360934,2044
1629795360938,2044
1629795360942,2044
1629795360946,2045
1629795360950,2047
1629795360954,2048
1629795360958,2049
1629795360962,2049
1629795360966,2051
1629795360970,2053
1629795360974,2056
1629795360978,2058
1629795360982,2058
1629795360986,2056
1629795360990,2053
1629795360994,2050
1629795360998,2048
1629795361002,2048
1629795361006,2048
1629795361010,2048
1629795361014,2048
1629795361018,2048
1629795361022,2048
1629795361026,2048
1629795361030,2048
1629795361034,2049
1629795361038,2048
1629795361042,2047
1629795361046,2044
1629795361050,2042
1629795361054,2047
1629795361058,2067
1629795361062,2107
1629795361066,2160
1629795361070,2209
1629795361074,2233
1629795361078,2218
1629795361082,2168
1629795361086,2103
1629795361090,2046
1629795361094,2014
1629795361098,2009
1629795361102,2023
1629795361106,2040
1629795361110,2050
1629795361114,2052
1629795361118,2050
1629795361122,2048
1629795361126,2046
1629795361130,2045
1629795361134,2046
1629795361138,2047
1629795361142,2047
1629795361146,2047
1629795361150,2048
1629795361154,2048
1629795361158,2048
1629795361162,2048
1629795361166,2048
1629795361170,2048
1629795361174,2048
1629795361178,2049
1629795361182,2050
1629795361186,2050
1629795361190,2050
1629795361194,2051
1629795361198,2050
1629795361202,2050
1629795361206,2051
1629795361210,2051
1629795361214,2052
1629795361218,2053
1629795361222,2055
1629795361226,2056
1629795361230,2057
1629795361234,2058
1629795361238,2059
1629795361242,2059
1629795361246,2059
1629795361250,2060
1629795361254,2061
1629795361258,2063
1629795361262,2065
1629795361266,2066
1629795361270,2067
1629795361274,2068
1629795361278,2069
1629795361282,2071
1629795361286,2072
1629795361290,2074
1629795361294,2075
1629795361298,2077
1629795361302,2078
1629795361306,2080
1629795361310,2081
1629795361314,2082
1629795361318,2083
1629795361322,2083
1629795361326,2083
1629795361330,2083
1629795361334,2083
1629795361338,2082
1629795361342,2082
1629795361346,2082
1629795361350,2082
1629795361354,2081
1629795361358,2080
1629795361362,2078
1629795361366,2075
1629795361370,2072
1629795361374,2069
1629795361378,2067
1629795361382,2064
1629795361386,2061
1629795361390,2058
1629795361394,2055
1629795361398,2052
1629795361402,2049
1629795361406,2047
1629795361410,2045
1629795361414,2043
1629795361418,2043
1629795361422,2042
1629795361426,2042
1629795361430,2042
1629795361434,2042
1629795361438,2041
1629795361442,2040
1629795361446,2039
1629795361450,2040
1629795361454,2041
1629795361458,2042
1629795361462,2044
1629795361466,2044
1629795361470,2045
1629795361474,2045
1629795361478,2045
1629795361482,2045
1629795361486,2045
1629795361490,2046
1629795361494,2046
1629795361498,2047
1629795361502,2048
1629795361506,2048
1629795361510,2048
1629795361514,2048
1629795361518,2048
1629795361522,2048
1629795361526,2049
1629795361530,2050
1629795361534,2050
1629795361538,2050
1629795361542,2049
1629795361546,2049
1629795361550,2048
1629795361554,2048
1629795361558,2048
1629795361562,2047
1629795361566,2046
1629795361570,2046
1629795361574,2046
1629795361578,2047
1629795361582,2047
1629795361586,2047
1629795361590,2046
1629795361594,2046
1629795361598,2046
1629795361602,2046
1629795361606,2046
1629795361610,2046
1629795361614,2045
1629795361618,2045
1629795361622,2046
1629795361626,2046
1629795361630,2047
1629795361634,2047
1629795361638,2046
1629795361642,2045
1629795361646,2044
1629795361650,2044
1629795361654,2045
1629795361658,2045
1629795361662,2046
1629795361666,2046
1629795361670,2046
1629795361674,2046
1629795361678,2046
1629795361682,2045
1629795361686,2045
1629795361690,2045
1629795361694,2045
1629795361698,2045
1629795361702,2046
1629795361706,2046
1629795361710,2046
1629795361714,2045
1629795361718,2045
1629795361722,2045
1629795361726,2046
1629795361730,2048
1629795361734,2049
1629795361738,2053
1629795361742,2056
1629795361746,2059
1629795361750,2060
1629795361754,2059
1629795361758,2056
1629795361762,2052
1629795361766,2049
1629795361770,2048
1629795361774,2048
1629795361778,2048
1629795361782,2049
1629795361786,2049
1629795361790,2050
1629795361794,2050
1629795361798,2050
1629795361802,2049
1629795361806,2049
1629795361810,2047
1629795361814,2045
1629795361818,2042
1629795361822,2043
1629795361826,2055
1629795361830,2084
1629795361834,2129
1629795361838,2180
1629795361842,2216
1629795361846,2222
1629795361850,2190
1629795361854,2132
1629795361858,2069
1629795361862,2023
1629795361866,2005
1629795361870,2011
1629795361874,2028
1629795361878,2044
1629795361882,2050
1629795361886,2051
1629795361890,2049
1629795361894,2047
1629795361898,2047
1629795361902,2047
1629795361906,2048
1629795361910,2047
1629795361914,2047
1629795361918,2046
1629795361922,2046
1629795361926,2047
1629795361930,2048
1629795361934,2048
1629795361938,2048
1629795361942,2048
1629795361946,2049
1629795361950,2050
1629795361954,2050
1629795361958,2051
1629795361962,2051
1629795361966,2051
1629795361970,2051
1629795361974,2051
1629795361978,2052
1629795361982,2052
1629795361986,2053
1629795361990,2054
1629795361994,2055
1629795361998,2055
1629795362002,2056
1629795362006,2057
1629795362010,2058
1629795362014,2059
1629795362018,2060
1629795362022,2061
1629795362026,2062
1629795362030,2064
1629795362034,2066
1629795362038,2068
1629795362042,2068
1629795362046,2069
1629795362050,2070
1629795362054,2071
1629795362058,2073
1629795362062,2075
1629795362066,2077
1629795362070,2080
1629795362074,2082
1629795362078,2083
1629795362082,2085
1629795362086,2085
1629795362090,2086
1629795362094,2086
1629795362098,2087
1629795362102,2089
1629795362106,2090
1629795362110,2090
1629795362114,2089
1629795362118,2087
1629795362122,2085
1629795362126,2083
1629795362130,2081
1629795362134,2079
1629795362138,2076
1629795362142,2072
1629795362146,2068
1629795362150,2064
1629795362154,2060
1629795362158,2057
1629795362162,2054
1629795362166,2050
1629795362170,2048
1629795362174,2047
1629795362178,2046
1629795362182,2045
1629795362186,2044
1629795362190,2043
1629795362194,2041
1629795362198,2039
1629795362202,2038
1629795362206,2038
1629795362210,2037
1629795362214,2037
1629795362218,2038
1629795362222,2039
1629795362226,2040
1629795362230,2041
1629795362234,2041
1629795362238,2041
1629795362242,2041
1629795362246,2042
1629795362250,2043
1629795362254,2044
1629795362258,2045
1629795362262,2045
1629795362266,2045
1629795362270,2045
1629795362274,2045
1629795362278,2046
1629795362282,2046
1629795362286,2047
1629795362290,2047
1629795362294,2047
1629795362298,2047
1629795362302,2048
1629795362306,2048
1629795362310,2048
1629795362314,2048
1629795362318,2048
1629795362322,2047
1629795362326,2046
1629795362330,2045
1629795362334,2046
1629795362338,2046
1629795362342,2047
1629795362346,2047
1629795362350,2047
1629795362354,2046
1629795362358,2045
1629795362362,2045
1629795362366,2045
1629795362370,2045
1629795362374,2045
1629795362378,2045
1629795362382,2045
1629795362386,2045
1629795362390,2045
1629795362394,2045
1629795362398,2045
1629795362402,2044
1629795362406,2044
1629795362410,2044
1629795362414,2044
1629795362418,2045
1629795362422,2045
1629795362426,2045
1629795362430,2045
1629795362434,2045
1629795362438,2045
1629795362442,2045
1629795362446,2044
1629795362450,2043
1629795362454,2042
1629795362458,2041
1629795362462,2041
1629795362466,2042
1629795362470,2043
1629795362474,2045
1629795362478,2046
1629795362482,2047
1629795362486,2048
1629795362490,2051
1629795362494,2054
1629795362498,2057
1629795362502,2058
1629795362506,2056
1629795362510,2053
1629795362514,2049
1629795362518,2048
1629795362522,2046
1629795362526,2046
1629795362530,2046
1629795362534,2047
1629795362538,2047
1629795362542,2048
1629795362546,2048
1629795362550,2048
1629795362554,2048
1629795362558,2046
1629795362562,2043
1629795362566,2040
1629795362570,2041
1629795362574,2052
1629795362578,2081
1629795362582,2127
1629795362586,2178
1629795362590,2216
1629795362594,2224
1629795362598,2195
1629795362602,2139
1629795362606,2078
1629795362610,2033
1629795362614,2013
1629795362618,2017
1629795362622,2031
1629795362626,2044
1629795362630,2049
1629795362634,2049
1629795362638,2047
1629795362642,2045
1629795362646,2044
1629795362650,2043
1629795362654,2044
1629795362658,2044
1629795362662,2044
1629795362666,2044
1629795362670,2044
1629795362674,2044
1629795362678,2044
1629795362682,2045
1629795362686,2046
1629795362690,2046
1629795362694,2046
1629795362698,2046
1629795362702,2046
1629795362706,2046
1629795362710,2047
1629795362714,2047
1629795362718,2047
1629795362722,2047
1629795362726,2047
1629795362730,2048
1629795362734,2048
1629795362738,2049
1629795362742,2051
1629795362746,2052
1629795362750,2053
1629795362754,2053
1629795362758,2053
1629795362762,2054
1629795362766,2055
1629795362770,2056
1629795362774,2058
1629795362778,2059
1629795362782,2060
1629795362786,2061
1629795362790,2062
1629795362794,2064
1629795362798,2066
1629795362802,2068
1629795362806,2069
1629795362810,2071
1629795362814,2072
1629795362818,2075
1629795362822,2077
1629795362826,2079
1629795362830,2081
1629795362834,2083
1629795362838,2084
1629795362842,2084
1629795362846,2084
1629795362850,2084
1629795362854,2084
1629795362858,2085
1629795362862,2084
1629795362866,2084
1629795362870,2082
1629795362874,2080
1629795362878,2077
1629795362882,2073
1629795362886,2069
1629795362890,2065
1629795362894,2060
1629795362898,2056
1629795362902,2053
1629795362906,2050
1629795362910,2048
1629795362914,2046
1629795362918,2043
1629795362922,2041
1629795362926,2038
1629795362930,2037
1629795362934,2036
1629795362938,2037
1629795362942,2037
1629795362946,2037
1629795362950,2036
1629795362954,2035
1629795362958,2034
1629795362962,2033
1629795362966,2033
1629795362970,2033
1629795362974,2033
1629795362978,2034
1629795362982,2034
1629795362986,2034
1629795362990,2035
1629795362994,2035
1629795362998,2036
1629795363002,2037
1629795363006,2038
1629795363010,2038
1629795363014,2039
1629795363018,2040
1629795363022,2041
1629795363026,2042
1629795363030,2042
1629795363034,2042
1629795363038,2042
1629795363042,2042
1629795363046,2042
1629795363050,2043
1629795363054,2043
1629795363058,2043
1629795363062,2044
1629795363066,2044
1629795363070,2044
1629795363074,2044
1629795363078,2043
1629795363082,2043
1629795363086,2043
1629795363090,2042
1629795363094,2042
1629795363098,2042
1629795363102,2042
1629795363106,2042
1629795363110,2042
1629795363114,2041
1629795363118,2041
1629795363122,2041
1629795363126,2040
1629795363130,2040
1629795363134,2040
1629795363138,2041
1629795363142,2041
1629795363146,2041
1629795363150,2041
1629795363154,2041
1629795363158,2041
1629795363162,2040
1629795363166,2040
1629795363170,2040
1629795363174,2040
1629795363178,2041
1629795363182,2041
1629795363186,2041
1629795363190,2041
1629795363194,2041
1629795363198,2040
1629795363202,2040
1629795363206,2039
1629795363210,2038
1629795363214,2038
1629795363218,2038
1629795363222,2038
1629795363226,2039
1629795363230,2039
1629795363234,2040
1629795363238,2040
1629795363242,2041
1629795363246,2044
1629795363250,2047
1629795363254,2050
1629795363258,2052
1629795363262,2053
1629795363266,2052
1629795363270,2049
1629795363274,2047
1629795363278,2045
1629795363282,2043
1629795363286,2043
1629795363290,2042
1629795363294,2043
1629795363298,2043
1629795363302,2044
1629795363306,2045
1629795363310,2045
1629795363314,2046
1629795363318,2044
1629795363322,2041
1629795363326,2037
1629795363330,2034
1629795363334,2039
1629795363338,2058
1629795363342,2101
1629795363346,2161
1629795363350,2219
1629795363354,2254
1629795363358,2249
1629795363362,2205
1629795363366,2140
1629795363370,2080
1629795363374,2042
1629795363378,2030
1629795363382,2034
1629795363386,2043
1629795363390,2047
1629795363394,2045
1629795363398,2042
1629795363402,2040
1629795363406,2039
1629795363410,2038
1629795363414,2038
1629795363418,2038
1629795363422,2039
1629795363426,2039
1629795363430,2039
1629795363434,2038
1629795363438,2038
1629795363442,2038
1629795363446,2038
1629795363450,2039
1629795363454,2039
1629795363458,2040
1629795363462,2040
1629795363466,2041
1629795363470,2041
1629795363474,2042
1629795363478,2041
1629795363482,2041
1629795363486,2041
1629795363490,2042
1629795363494,2043
1629795363498,2044
1629795363502,2045
1629795363506,2046
1629795363510,2046
1629795363514,2047
1629795363518,2048
1629795363522,2048
1629795363526,2048
1629795363530,2049
1629795363534,2051
1629795363538,2052
1629795363542,2054
1629795363546,2055
1629795363550,2057
1629795363554,2058
1629795363558,2059
1629795363562,2060
1629795363566,2062
1629795363570,2064
1629795363574,2067
1629795363578,2069
1629795363582,2071
1629795363586,2073
1629795363590,2075
1629795363594,2076
1629795363598,2078
1629795363602,2079
1629795363606,2080
1629795363610,2081
1629795363614,2082
1629795363618,2083
1629795363622,2083
1629795363626,2083
1629795363630,2082
1629795363634,2080
1629795363638,2077
1629795363642,2074
1629795363646,2069
1629795363650,2065
1629795363654,2061
1629795363658,2057
1629795363662,2054
1629795363666,2051
1629795363670,2048
1629795363674,2046
1629795363678,2043
1629795363682,2041
1629795363686,2039
1629795363690,2037
1629795363694,2036
1629795363698,2036
1629795363702,2036
1629795363706,2036
1629795363710,2035
1629795363714,2035
1629795363718,2035
1629795363722,2034
1629795363726,2034
1629795363730,2034
1629795363734,2034
1629795363738,2035
1629795363742,2035
1629795363746,2036
1629795363750,2036
1629795363754,2036
1629795363758,2037
1629795363762,2036
1629795363766,2037
1629795363770,2037
1629795363774,2038
1629795363778,2039
1629795363782,2039
1629795363786,2040
1629795363790,2040
1629795363794,2041
1629795363798,2041
1629795363802,2041
1629795363806,2042
1629795363810,2042
1629795363814,2042
1629795363818,2043
1629795363822,2044
1629795363826,2044
1629795363830,2044
1629795363834,2044
1629795363838,2044
1629795363842,2043
1629795363846,2043
1629795363850,2043
1629795363854,2044
1629795363858,2044
1629795363862,2044
1629795363866,2045
1629795363870,2045
1629795363874,2044
1629795363878,2044
1629795363882,2043
1629795363886,2043
1629795363890,2042
1629795363894,2043
1629795363898,2043
1629795363902,2044
1629795363906,2044
1629795363910,2044
1629795363914,2044
1629795363918,2043
1629795363922,2043
1629795363926,2042
1629795363930,2042
1629795363934,2043
1629795363938,2043
1629795363942,2044
1629795363946,2044
1629795363950,2044
1629795363954,2044
1629795363958,2043
1629795363962,2043
1629795363966,2043
1629795363970,2043
1629795363974,2044
1629795363978,2045
1629795363982,2045
1629795363986,2044
1629795363990,2043
1629795363994,2041
1629795363998,2040
1629795364002,2040
1629795364006,2040
1629795364010,2041
1629795364014,2043
1629795364018,2045
1629795364022,2047
1629795364026,2049
1629795364030,2052
1629795364034,2055
1629795364038,2056
1629795364042,2055
1629795364046,2054
1629795364050,2052
1629795364054,2049
1629795364058,2048
1629795364062,2048
1629795364066,2047
1629795364070,2047
1629795364074,2047
1629795364078,2047
1629795364082,2046
1629795364086,2047
1629795364090,2048
1629795364094,2048
1629795364098,2048
1629795364102,2046
1629795364106,2043
1629795364110,2039
1629795364114,2041
1629795364118,2057
1629795364122,2096
1629795364126,2155
1629795364130,2218
1629795364134,2260
1629795364138,2262
1629795364142,2223
1629795364146,2158
1629795364150,2094
1629795364154,2050
1629795364158,2035
1629795364162,2037
1629795364166,2045
1629795364170,2049
1629795364174,2048
1629795364178,2047
1629795364182,2045
1629795364186,2044
1629795364190,2043
1629795364194,2042
1629795364198,2042
1629795364202,2041
1629795364206,2041
1629795364210,2041
1629795364214,2042
1629795364218,2042
1629795364222,2043
1629795364226,2044
1629795364230,2044
1629795364234,2044
1629795364238,2044
1629795364242,2043
1629795364246,2044
1629795364250,2044
1629795364254,2045
1629795364258,2046
1629795364262,2047
1629795364266,2047
1629795364270,2048
1629795364274,2048
1629795364278,2048
1629795364282,2048
1629795364286,2048
1629795364290,2048
1629795364294,2050
1629795364298,2051
1629795364302,2052
1629795364306,2053
1629795364310,2054
1629795364314,2055
1629795364318,2056
1629795364322,2057
1629795364326,2058
1629795364330,2060
1629795364334,2061
1629795364338,2063
1629795364342,2065
1629795364346,2067
1629795364350,2069
1629795364354,2071
1629795364358,2072
1629795364362,2074
1629795364366,2076
1629795364370,2078
1629795364374,2080
1629795364378,2082
1629795364382,2084
1629795364386,2085
1629795364390,2086
1629795364394,2087
1629795364398,2087
1629795364402,2087
1629795364406,2087
1629795364410,2086
1629795364414,2085
1629795364418,2083
1629795364422,2081
1629795364426,2077
1629795364430,2073
1629795364434,2069
1629795364438,2064
1629795364442,2060
1629795364446,2056
1629795364450,2053
1629795364454,2050
1629795364458,2048
1629795364462,2046
1629795364466,2045
1629795364470,2043
1629795364474,2042
1629795364478,2041
1629795364482,2040
1629795364486,2039
1629795364490,2038
1629795364494,2038
1629795364498,2039
1629795364502,2039
1629795364506,2040
1629795364510,2040
1629795364514,2039
1629795364518,2039
1629795364522,2038
1629795364526,2039
1629795364530,2039
1629795364534,2039
1629795364538,2040
1629795364542,2040
1629795364546,2041
1629795364550,2042
1629795364554,2042
1629795364558,2042
1629795364562,2042
1629795364566,2042
1629795364570,2042
1629795364574,2043
1629795364578,2044
1629795364582,2045
1629795364586,2046
1629795364590,2046
1629795364594,2046
1629795364598,2047
1629795364602,2047
1629795364606,2047
1629795364610,2047
1629795364614,2047
1629795364618,2048
1629795364622,2048
1629795364626,2048
1629795364630,2048
1629795364634,2048
1629795364638,2048
1629795364642,2048
1629795364646,2048
1629795364650,2047
1629795364654,2048
1629795364658,2048
1629795364662,2048
1629795364666,2048
1629795364670,2048
1629795364674,2047
1629795364678,2047
1629795364682,2046
1629795364686,2046
1629795364690,2046
1629795364694,2046
1629795364698,2047
1629795364702,2047
1629795364706,2048
1629795364710,2048
1629795364714,2047
1629795364718,2047
1629795364722,2047
1629795364726,2046
1629795364730,2046
1629795364734,2047
1629795364738,2047
1629795364742,2047
1629795364746,2048
1629795364750,2048
1629795364754,2048
1629795364758,2047
1629795364762,2047
1629795364766,2047
1629795364770,2047
1629795364774,2047
1629795364778,2048
1629795364782,2048
1629795364786,2048
1629795364790,2048
1629795364794,2048
1629795364798,2048
1629795364802,2047
1629795364806,2047
1629795364810,2047
1629795364814,2048
1629795364818,2048
1629795364822,2048
1629795364826,2048
1629795364830,2048
1629795364834,2048
1629795364838,2048
1629795364842,2047
1629795364846,2046
1629795364850,2045
1629795364854,2045
1629795364858,2045
1629795364862,2046
1629795364866,2047
1629795364870,2048
1629795364874,2048
1629795364878,2049
1629795364882,2051
1629795364886,2054
1629795364890,2056
1629795364894,2059
1629795364898,2060
1629795364902,2059
1629795364906,2056
1629795364910,2053
1629795364914,2051
1629795364918,2049
1629795364922,2048
1629795364926,2048
1629795364930,2048
1629795364934,2048
1629795364938,2048
1629795364942,2048
1629795364946,2049
1629795364950,2050
1629795364954,2050
1629795364958,2048
1629795364962,2045
1629795364966,2040
1629795364970,2039
1629795364974,2049
1629795364978,2079
1629795364982,2132
1629795364986,2195
1629795364990,2246
1629795364994,2262
1629795364998,2236
1629795365002,2178
1629795365006,2111
1629795365010,2060
1629795365014,2037
1629795365018,2037
1629795365022,2045
1629795365026,2051
1629795365030,2051
1629795365034,2048
1629795365038,2045
1629795365042,2043
1629795365046,2042
1629795365050,2042
1629795365054,2041
1629795365058,2042
1629795365062,2042
1629795365066,2042
1629795365070,2042
1629795365074,2042
1629795365078,2041
1629795365082,2041
1629795365086,2041
1629795365090,2041
1629795365094,2042
1629795365098,2043
1629795365102,2043
1629795365106,2044
1629795365110,2044
1629795365114,2044
1629795365118,2044
1629795365122,2044
1629795365126,2044
1629795365130,2044
1629795365134,2045
1629795365138,2046
1629795365142,2047
1629795365146,2048
1629795365150,2048
1629795365154,2048
1629795365158,2048
1629795365162,2048
1629795365166,2049
1629795365170,2050
1629795365174,2051
1629795365178,2053
1629795365182,2054
1629795365186,2055
1629795365190,2057
1629795365194,2058
1629795365198,2059
1629795365202,2060
1629795365206,2062
1629795365210,2063
1629795365214,2066
1629795365218,2068
1629795365222,2071
1629795365226,2073
1629795365230,2075
1629795365234,2076
1629795365238,2077
1629795365242,2078
1629795365246,2079
1629795365250,2080
1629795365254,2081
