timestamp,green,ir,red
1629795340000,55297,281659,359457
1629795340010,55312,281612,359447
1629795340020,55342,281677,359431
1629795340030,55358,281642,359449
1629795340040,55381,281674,359469
1629795340050,55399,281683,359428
1629795340060,55419,281718,359439
1629795340070,55448,281695,359452
1629795340080,55471,281728,359481
1629795340090,55495,281719,359491
1629795340100,55518,281728,359495
1629795340110,55540,281752,359476
1629795340120,55575,281748,359479
1629795340130,55593,281742,359509
1629795340140,55619,281822,359476
1629795340150,55654,281758,359486
1629795340160,55678,281802,359514
1629795340170,55694,281765,359467
1629795340180,55704,281789,359485
1629795340190,55700,281778,359525
1629795340200,55696,281765,359515
1629795340210,55664,281737,359515
1629795340220,55642,281683,359463
1629795340230,55599,281710,359443
1629795340240,55551,281692,359452
1629795340250,55504,281625,359423
1629795340260,55460,281664,359417
1629795340270,55411,281608,359442
1629795340280,55362,281579,359410
1629795340290,55326,281599,359367
1629795340300,55284,281579,359354
1629795340310,55238,281573,359362
1629795340320,55210,281558,359404
1629795340330,55177,281539,359398
1629795340340,55137,281517,359356
1629795340350,55103,281521,359399
1629795340360,55068,281493,359287
1629795340370,55040,281487,359292
1629795340380,55005,281483,359303
1629795340390,54977,281468,359306
1629795340400,54955,281454,359287
1629795340410,54929,281470,359268
1629795340420,54929,281483,359316
1629795340430,54902,281475,359305
1629795340440,54895,281452,359302
1629795340450,54882,281456,359319
1629795340460,54870,281460,359286
1629795340470,54865,281471,359253
1629795340480,54853,281424,359286
1629795340490,54826,281453,359273
1629795340500,54818,281427,359258
1629795340510,54799,281462,359256
1629795340520,54788,281488,359268
1629795340530,54768,281459,359319
1629795340540,54758,281475,359279
1629795340550,54754,281480,359277
1629795340560,54732,281421,359284
1629795340570,54733,281439,359284
1629795340580,54740,281461,359254
1629795340590,54725,281418,359275
1629795340600,54734,281471,359312
1629795340610,54723,281448,359253
1629795340620,54745,281441,359265
1629795340630,54728,281394,359267
1629795340640,54745,281432,359323
1629795340650,54758,281475,359286
1629795340660,54751,281459,359276
1629795340670,54778,281460,359283
1629795340680,54786,281449,359255
1629795340690,54788,281489,359270
1629795340700,54805,281462,359288
1629795340710,54813,281474,359253
1629795340720,54831,281476,359267
1629795340730,54845,281502,359229
1629795340740,54853,281495,359295
1629795340750,54882,281496,359237
1629795340760,54901,281501,359305
1629795340770,54920,281502,359294
1629795340780,54932,281556,359262
1629795340790,54950,281542,359309
1629795340800,54966,281549,359284
1629795340810,54987,281565,359321
1629795340820,55006,281576,359318
1629795340830,55029,281563,359306
1629795340840,55055,281541,359286
1629795340850,55069,281547,359321
1629795340860,55091,281590,359290
1629795340870,55105,281630,359352
1629795340880,55132,281596,359327
1629795340890,55162,281584,359360
1629795340900,55190,281664,359338
1629795340910,55210,281643,359366
1629795340920,55237,281642,359352
1629795340930,55259,281658,359333
1629795340940,55280,281644,359399
1629795340950,55292,281639,359377
1629795340960,55287,281624,359322
1629795340970,55277,281612,359282
1629795340980,55247,281595,359288
1629795340990,55207,281553,359321
1629795341000,55157,281585,359312
1629795341010,55104,281519,359286
1629795341020,55039,281494,359281
1629795341030,54990,281493,359238
1629795341040,54921,281443,359272
1629795341050,54877,281436,359284
1629795341060,54814,281396,359235
1629795341070,54765,281372,359229
1629795341080,54714,281411,359204
1629795341090,54664,281344,359192
1629795341100,54617,281375,359219
1629795341110,54571,281355,359166
1629795341120,54513,281310,359163
1629795341130,54466,281278,359157
1629795341140,54428,281244,359180
1629795341150,54386,281310,359194
1629795341160,54335,281243,359092
1629795341170,54305,281255,359144
1629795341180,54263,281227,359121
1629795341190,54241,281222,359119
1629795341200,54212,281229,359108
1629795341210,54192,281191,359078
1629795341220,54173,281193,359095
1629795341230,54145,281210,359111
1629795341240,54116,281216,359086
1629795341250,54106,281204,359068
1629795341260,54090,281161,359095
1629795341270,54050,281209,359068
1629795341280,54036,281139,359036
1629795341290,54008,281180,359050
1629795341300,53985,281178,359077
1629795341310,53975,281125,359074
1629795341320,53954,281119,359047
1629795341330,53935,281139,359042
1629795341340,53922,281164,359023
1629795341350,53904,281103,359015
1629795341360,53893,281181,359025
1629795341370,53891,281129,358992
1629795341380,53895,281164,359056
1629795341390,53889,281146,358973
1629795341400,53886,281148,358984
1629795341410,53886,281166,359013
1629795341420,53880,281139,359019
1629795341430,53891,281165,359030
1629795341440,53894,281132,359066
1629795341450,53890,281148,359019
1629795341460,53916,281147,359002
1629795341470,53899,281132,359063
1629795341480,53914,281208,359048
1629795341490,53914,281181,359028
1629795341500,53934,281240,359048
1629795341510,53950,281171,359040
1629795341520,53950,281201,359036
1629795341530,53967,281197,359038
1629795341540,53984,281237,359031
1629795341550,53993,281198,359034
1629795341560,54007,281253,359089
1629795341570,54016,281296,359068
1629795341580,54037,281275,359077
1629795341590,54048,281263,359085
1629795341600,54056,281233,359080
1629795341610,54075,281277,359059
1629795341620,54085,281254,359077
1629795341630,54101,281293,359087
1629795341640,54121,281319,359063
1629795341650,54128,281313,359097
1629795341660,54149,281301,359084
1629795341670,54173,281339,359121
1629795341680,54199,281340,359099
1629795341690,54214,281322,359086
1629795341700,54235,281307,359137
1629795341710,54243,281377,359102
1629795341720,54243,281304,359064
1629795341730,54214,281310,359122
1629795341740,54190,281276,359068
1629795341750,54144,281270,359044
1629795341760,54090,281219,359024
1629795341770,54036,281195,359044
1629795341780,53975,281202,359064
1629795341790,53906,281170,358987
1629795341800,53829,281167,359004
1629795341810,53772,281133,358956
1629795341820,53702,281122,358972
1629795341830,53644,281079,358939
1629795341840,53573,281065,358948
1629795341850,53512,281020,358915
1629795341860,53446,280990,358942
1629795341870,53400,280999,358891
1629795341880,53335,280974,358904
1629795341890,53263,280965,358844
1629795341900,53221,280949,358890
1629795341910,53155,280930,358807
1629795341920,53106,280879,358872
1629795341930,53051,280844,358793
1629795341940,53006,280828,358847
1629795341950,52959,280820,358818
1629795341960,52902,280806,358787
1629795341970,52876,280800,358779
1629795341980,52837,280802,358757
1629795341990,52824,280812,358775
1629795342000,52793,280807,358717
1629795342010,52763,280793,358766
1629795342020,52734,280755,358730
1629795342030,52718,280771,358738
1629795342040,52695,280768,358763
1629795342050,52665,280768,358738
1629795342060,52641,280757,358691
1629795342070,52626,280729,358761
1629795342080,52612,280707,358711
1629795342090,52592,280730,358673
1629795342100,52581,280736,358735
1629795342110,52570,280707,358723
1629795342120,52554,280691,358692
1629795342130,52543,280740,358697
1629795342140,52545,280723,358698
1629795342150,52538,280730,358679
1629795342160,52531,280696,358705
1629795342170,52533,280738,358681
1629795342180,52534,280718,358751
1629795342190,52538,280753,358688
1629795342200,52549,280775,358705
1629795342210,52549,280744,358655
1629795342220,52567,280744,358647
1629795342230,52571,280748,358715
1629795342240,52580,280754,358662
1629795342250,52597,280780,358695
1629795342260,52615,280742,358702
1629795342270,52631,280801,358738
1629795342280,52639,280786,358735
1629795342290,52656,280809,358725
1629795342300,52670,280780,358785
1629795342310,52688,280759,358718
1629795342320,52703,280795,358757
1629795342330,52722,280805,358788
1629795342340,52738,280793,358742
1629795342350,52757,280799,358738
1629795342360,52785,280839,358752
1629795342370,52793,280799,358770
1629795342380,52811,280849,358753
1629795342390,52839,280850,358776
1629795342400,52853,280862,358783
1629795342410,52878,280902,358788
1629795342420,52899,280895,358779
1629795342430,52935,280873,358829
1629795342440,52959,280876,358813
1629795342450,52979,280894,358803
1629795342460,53005,280916,358814
1629795342470,53024,280883,358819
1629795342480,53034,280888,358838
1629795342490,53037,280912,358819
1629795342500,53021,280919,358802
1629795342510,52988,280861,358840
1629795342520,52945,280839,358784
1629795342530,52906,280797,358784
1629795342540,52845,280817,358750
1629795342550,52774,280744,358748
1629795342560,52729,280718,358708
1629795342570,52660,280685,358762
1629795342580,52599,280644,358689
1629795342590,52540,280633,358654
1629795342600,52485,280615,358727
1629795342610,52412,280557,358670
1629795342620,52363,280559,358633
1629795342630,52302,280565,358632
1629795342640,52248,280500,358650
1629795342650,52197,280481,358635
1629795342660,52136,280462,358653
1629795342670,52099,280424,358574
1629795342680,52040,280452,358572
1629795342690,51990,280390,358591
1629795342700,51960,280403,358572
1629795342710,51922,280363,358565
1629795342720,51891,280366,358532
1629795342730,51857,280313,358492
1629795342740,51836,280328,358521
1629795342750,51818,280337,358534
1629795342760,51792,280362,358493
1629795342770,51786,280328,358525
1629795342780,51773,280330,358502
1629795342790,51748,280290,358468
1629795342800,51750,280318,358468
1629795342810,51728,280307,358453
1629795342820,51714,280313,358499
1629795342830,51706,280262,358524
1629795342840,51696,280273,358459
1629795342850,51685,280277,358462
1629795342860,51677,280266,358491
1629795342870,51669,280308,358484
1629795342880,51662,280289,358530
1629795342890,51670,280271,358482
1629795342900,51671,280263,358523
1629795342910,51673,280273,358471
1629795342920,51678,280277,358490
1629795342930,51680,280279,358502
1629795342940,51703,280249,358467
1629795342950,51722,280300,358534
1629795342960,51733,280295,358476
1629795342970,51750,280353,358522
1629795342980,51771,280342,358500
1629795342990,51789,280360,358532
1629795343000,51808,280388,358507
1629795343010,51818,280356,358532
1629795343020,51839,280351,358515
1629795343030,51868,280355,358568
1629795343040,51891,280369,358547
1629795343050,51911,280365,358588
1629795343060,51940,280411,358573
1629795343070,51970,280424,358597
1629795343080,51999,280393,358593
1629795343090,52027,280418,358598
1629795343100,52053,280422,358611
1629795343110,52068,280433,358588
1629795343120,52093,280492,358633
1629795343130,52135,280474,358671
1629795343140,52158,280492,358591
1629795343150,52193,280499,358598
1629795343160,52227,280497,358627
1629795343170,52258,280464,358609
1629795343180,52283,280539,358655
1629795343190,52322,280535,358663
1629795343200,52355,280528,358656
1629795343210,52382,280555,358665
1629795343220,52409,280530,358662
1629795343230,52438,280499,358703
1629795343240,52480,280588,358690
1629795343250,52505,280559,358731
1629795343260,52558,280597,358751
1629795343270,52591,280624,358749
1629795343280,52612,280608,358738
1629795343290,52642,280627,358719
1629795343300,52660,280634,358719
1629795343310,52652,280625,358724
1629795343320,52637,280626,358706
1629795343330,52617,280604,358719
1629795343340,52580,280544,358697
1629795343350,52529,280514,358687
1629795343360,52481,280440,358657
1629795343370,52435,280476,358697
1629795343380,52380,280447,358639
1629795343390,52331,280420,358651
1629795343400,52296,280432,358642
1629795343410,52247,280371,358596
1629795343420,52199,280379,358627
1629795343430,52157,280397,358601
1629795343440,52112,280355,358653
1629795343450,52073,280317,358604
1629795343460,52026,280307,358572
1629795343470,51985,280308,358567
1629795343480,51958,280260,358548
1629795343490,51913,280300,358530
1629795343500,51876,280248,358594
1629795343510,51853,280273,358550
1629795343520,51814,280262,358528
1629795343530,51792,280235,358566
1629795343540,51783,280200,358547
1629795343550,51773,280254,358576
1629795343560,51755,280229,358524
1629795343570,51750,280203,358549
1629795343580,51748,280182,358564
1629795343590,51740,280197,358532
1629795343600,51745,280195,358528
1629795343610,51735,280186,358573
1629795343620,51724,280205,358541
1629795343630,51714,280172,358545
1629795343640,51712,280180,358550
1629795343650,51707,280195,358560
1629795343660,51708,280197,358569
1629795343670,51716,280179,358543
1629795343680,51717,280185,358543
1629795343690,51721,280176,358571
1629795343700,51730,280164,358540
1629795343710,51740,280174,358588
1629795343720,51740,280243,358581
1629795343730,51764,280221,358602
1629795343740,51784,280221,358548
1629795343750,51805,280213,358582
1629795343760,51817,280265,358619
1629795343770,51840,280253,358577
1629795343780,51861,280268,358612
1629795343790,51886,280299,358618
1629795343800,51908,280280,358596
1629795343810,51929,280262,358628
1629795343820,51955,280256,358634
1629795343830,51986,280298,358611
1629795343840,52011,280314,358630
1629795343850,52039,280316,358651
1629795343860,52069,280305,358660
1629795343870,52089,280345,358666
1629795343880,52122,280379,358635
1629795343890,52156,280357,358728
1629795343900,52180,280350,358697
1629795343910,52227,280406,358689
1629795343920,52253,280412,358721
1629795343930,52291,280402,358732
1629795343940,52323,280426,358744
1629795343950,52355,280437,358734
1629795343960,52389,280446,358789
1629795343970,52428,280446,358738
1629795343980,52454,280471,358788
1629795343990,52497,280509,358765
1629795344000,52526,280487,358798
1629795344010,52565,280484,358815
1629795344020,52608,280542,358818
1629795344030,52640,280526,358799
1629795344040,52677,280600,358818
1629795344050,52722,280577,358880
1629795344060,52761,280564,358902
1629795344070,52805,280598,358884
1629795344080,52844,280628,358889
1629795344090,52876,280665,358870
1629795344100,52923,280633,358927
1629795344110,52973,280689,358950
1629795344120,53007,280688,358908
1629795344130,53039,280677,358921
1629795344140,53071,280693,358914
1629795344150,53074,280653,358930
1629795344160,53069,280669,358957
1629795344170,53061,280616,358893
1629795344180,53044,280588,358934
1629795344190,53009,280599,358900
1629795344200,52981,280576,358892
1629795344210,52955,280536,358897
1629795344220,52923,280533,358912
1629795344230,52898,280551,358842
1629795344240,52867,280544,358900
1629795344250,52837,280527,358851
1629795344260,52821,280493,358856
1629795344270,52795,280497,358858
1629795344280,52764,280499,358874
1629795344290,52757,280501,358836
1629795344300,52726,280475,358875
1629795344310,52712,280486,358849
1629795344320,52688,280446,358831
1629795344330,52671,280466,358843
1629795344340,52652,280457,358855
1629795344350,52647,280456,358828
1629795344360,52641,280438,358854
1629795344370,52635,280436,358835
1629795344380,52619,280446,358816
1629795344390,52635,280404,358796
1629795344400,52640,280485,358820
1629795344410,52652,280499,358859
1629795344420,52661,280495,358820
1629795344430,52665,280473,358810
1629795344440,52675,280434,358856
1629795344450,52682,280470,358839
1629795344460,52699,280448,358812
1629795344470,52699,280478,358842
1629795344480,52708,280458,358865
1629795344490,52722,280484,358820
1629795344500,52735,280481,358815
1629795344510,52749,280499,358863
1629795344520,52760,280504,358855
1629795344530,52780,280525,358833
1629795344540,52796,280501,358872
1629795344550,52819,280536,358854
1629795344560,52841,280522,358875
1629795344570,52864,280510,358913
1629795344580,52889,280502,358879
1629795344590,52904,280606,358874
1629795344600,52937,280563,358908
1629795344610,52962,280577,358915
1629795344620,52984,280560,358909
1629795344630,53025,280598,358914
1629795344640,53045,280613,358911
1629795344650,53085,280616,358924
1629795344660,53115,280626,358939
1629795344670,53151,280642,358932
1629795344680,53178,280638,358941
1629795344690,53218,280682,358961
1629795344700,53240,280680,358999
1629795344710,53276,280667,358931
1629795344720,53316,280715,358966
1629795344730,53343,280686,358983
1629795344740,53398,280703,359013
1629795344750,53430,280716,359019
1629795344760,53467,280748,358992
1629795344770,53496,280762,359020
1629795344780,53525,280750,359020
1629795344790,53580,280761,359073
1629795344800,53613,280791,359040
1629795344810,53649,280794,359051
1629795344820,53686,280778,359101
1629795344830,53729,280839,359094
1629795344840,53767,280862,359100
1629795344850,53807,280863,359097
1629795344860,53844,280868,359095
1629795344870,53878,280946,359128
1629795344880,53926,280890,359169
1629795344890,53961,280949,359168
1629795344900,54012,280928,359135
1629795344910,54053,280951,359122
1629795344920,54096,280960,359193
1629795344930,54129,281004,359199
1629795344940,54178,281008,359190
1629795344950,54216,281006,359206
1629795344960,54263,281028,359208
1629795344970,54311,281069,359183
1629795344980,54359,281068,359217
1629795344990,54392,281059,359239
1629795345000,54437,281095,359248
1629795345010,54469,281086,359236
1629795345020,54489,281104,359206
1629795345030,54498,281071,359239
1629795345040,54496,281102,359272
1629795345050,54492,281057,359230
1629795345060,54482,281043,359240
1629795345070,54469,281025,359236
1629795345080,54464,281042,359206
1629795345090,54453,281002,359219
1629795345100,54430,281012,359201
1629795345110,54423,280983,359230
1629795345120,54415,281011,359223
1629795345130,54408,280949,359173
1629795345140,54393,280995,359238
1629795345150,54395,281003,359192
1629795345160,54385,280997,359197
1629795345170,54381,280947,359167
1629795345180,54376,280997,359168
1629795345190,54364,280970,359200
1629795345200,54373,280948,359168
1629795345210,54362,280920,359198
1629795345220,54371,280979,359191
1629795345230,54366,280953,359159
1629795345240,54369,280941,359192
1629795345250,54380,280971,359191
1629795345260,54390,280956,359206
1629795345270,54398,280991,359199
1629795345280,54406,280998,359200
1629795345290,54440,281000,359196
1629795345300,54439,281007,359201
1629795345310,54451,280988,359235
1629795345320,54470,280988,359242
1629795345330,54490,280993,359227
1629795345340,54503,281004,359213
1629795345350,54520,281045,359210
1629795345360,54526,281004,359222
1629795345370,54537,281041,359225
1629795345380,54571,281054,359229
1629795345390,54585,281012,359213
1629795345400,54599,281042,359201
1629795345410,54632,281072,359250
1629795345420,54656,281060,359241
1629795345430,54668,281069,359255
1629795345440,54701,281069,359301
1629795345450,54718,281084,359249
1629795345460,54742,281093,359271
1629795345470,54769,281097,359280
1629795345480,54800,281108,359265
1629795345490,54828,281141,359303
1629795345500,54859,281132,359344
1629795345510,54895,281124,359297
1629795345520,54924,281154,359298
1629795345530,54943,281205,359318
1629795345540,54971,281196,359326
1629795345550,55006,281233,359339
1629795345560,55042,281178,359347
1629795345570,55077,281256,359363
1629795345580,55107,281225,359367
1629795345590,55154,281252,359358
1629795345600,55167,281224,359406
1629795345610,55201,281255,359391
1629795345620,55237,281262,359371
1629795345630,55277,281322,359409
1629795345640,55309,281273,359390
1629795345650,55347,281353,359423
1629795345660,55385,281314,359442
1629795345670,55409,281352,359418
1629795345680,55454,281373,359378
1629795345690,55486,281351,359464
1629795345700,55517,281397,359461
1629795345710,55561,281394,359438
1629795345720,55595,281398,359454
1629795345730,55622,281409,359433
1629795345740,55662,281411,359460
1629795345750,55702,281476,359470
1629795345760,55718,281472,359479
1629795345770,55770,281457,359521
1629795345780,55805,281470,359507
1629795345790,55851,281518,359495
1629795345800,55883,281492,359526
1629795345810,55928,281544,359537
1629795345820,55964,281505,359540
1629795345830,55995,281543,359530
1629795345840,56040,281575,359552
1629795345850,56078,281549,359538
1629795345860,56091,281543,359553
1629795345870,56115,281537,359549
1629795345880,56134,281572,359568
1629795345890,56134,281555,359588
1629795345900,56138,281556,359581
1629795345910,56133,281541,359536
1629795345920,56124,281546,359551
1629795345930,56116,281496,359589
1629795345940,56105,281481,359533
1629795345950,56109,281496,359536
1629795345960,56098,281512,359530
1629795345970,56095,281481,359501
1629795345980,56095,281504,359541
1629795345990,56096,281464,359501
1629795346000,56095,281493,359524
1629795346010,56086,281475,359499
1629795346020,56092,281492,359528
1629795346030,56094,281524,359499
1629795346040,56097,281505,359553
1629795346050,56097,281492,359548
1629795346060,56100,281514,359490
1629795346070,56108,281507,359541
1629795346080,56114,281509,359550
1629795346090,56119,281518,359571
1629795346100,56147,281523,359577
1629795346110,56145,281535,359581
1629795346120,56171,281547,359575
1629795346130,56178,281531,359580
1629795346140,56200,281567,359567
1629795346150,56206,281550,359548
1629795346160,56225,281545,359563
1629795346170,56235,281551,359557
1629795346180,56244,281603,359569
1629795346190,56261,281579,359568
1629795346200,56276,281573,359572
1629795346210,56270,281618,359556
1629795346220,56293,281573,359618
1629795346230,56307,281564,359571
1629795346240,56326,281596,359609
1629795346250,56334,281588,359577
1629795346260,56352,281595,359585
1629795346270,56372,281619,359606
1629795346280,56399,281657,359628
1629795346290,56411,281626,359600
1629795346300,56430,281665,359630
1629795346310,56451,281647,359644
1629795346320,56483,281673,359624
1629795346330,56490,281660,359596
1629795346340,56524,281705,359639
1629795346350,56559,281687,359622
1629795346360,56581,281705,359648
1629795346370,56598,281707,359658
1629795346380,56632,281705,359698
1629795346390,56651,281716,359645
1629795346400,56681,281709,359615
1629795346410,56713,281752,359657
1629795346420,56737,281711,359674
1629795346430,56757,281789,359661
1629795346440,56792,281760,359664
1629795346450,56820,281783,359709
1629795346460,56848,281752,359675
1629795346470,56883,281800,359721
1629795346480,56923,281812,359707
1629795346490,56940,281825,359690
1629795346500,56964,281816,359720
1629795346510,56990,281823,359754
1629795346520,57022,281860,359733
1629795346530,57047,281831,359712
1629795346540,57072,281889,359762
1629795346550,57103,281866,359757
1629795346560,57136,281883,359773
1629795346570,57154,281884,359750
1629795346580,57198,281896,359800
1629795346590,57227,281908,359784
1629795346600,57246,281913,359778
1629795346610,57289,281893,359805
1629795346620,57313,281934,359792
1629795346630,57347,281935,359836
1629795346640,57380,281903,359775
1629795346650,57390,281912,359788
1629795346660,57402,281929,359822
1629795346670,57384,281936,359797
1629795346680,57399,281906,359790
1629795346690,57379,281907,359775
1629795346700,57375,281888,359782
1629795346710,57361,281897,359787
1629795346720,57347,281894,359743
1629795346730,57340,281868,359769
1629795346740,57336,281884,359738
1629795346750,57326,281837,359757
1629795346760,57321,281847,359734
1629795346770,57318,281836,359737
1629795346780,57308,281855,359768
1629795346790,57308,281824,359769
1629795346800,57295,281823,359794
1629795346810,57308,281849,359784
1629795346820,57316,281849,359786
1629795346830,57301,281867,359775
1629795346840,57307,281870,359734
1629795346850,57302,281826,359780
1629795346860,57306,281849,359762
1629795346870,57308,281858,359783
1629795346880,57314,281874,359759
1629795346890,57323,281857,359735
1629795346900,57335,281849,359768
1629795346910,57348,281885,359775
1629795346920,57349,281857,359755
1629795346930,57357,281863,359764
1629795346940,57365,281841,359764
1629795346950,57376,281888,359780
1629795346960,57388,281931,359780
1629795346970,57385,281904,359762
1629795346980,57398,281853,359754
1629795346990,57401,281881,359788
1629795347000,57419,281924,359766
1629795347010,57424,281867,359781
1629795347020,57429,281942,359773
1629795347030,57450,281888,359790
1629795347040,57458,281862,359778
1629795347050,57470,281907,359783
1629795347060,57484,281907,359781
1629795347070,57504,281910,359820
1629795347080,57515,281871,359758
1629795347090,57540,281902,359796
1629795347100,57561,281910,359808
1629795347110,57569,281947,359797
1629795347120,57598,281956,359799
1629795347130,57623,282004,359785
1629795347140,57646,281949,359824
1629795347150,57650,281972,359805
1629795347160,57692,281969,359803
1629795347170,57705,282013,359788
1629795347180,57727,282024,359827
1629795347190,57751,282005,359814
1629795347200,57774,282021,359883
1629795347210,57792,282016,359854
1629795347220,57813,282035,359812
1629795347230,57831,282063,359816
1629795347240,57858,282082,359827
1629795347250,57882,282031,359837
1629795347260,57910,281998,359832
1629795347270,57934,282074,359839
1629795347280,57953,282062,359855
1629795347290,57977,282080,359828
1629795347300,58003,282105,359840
1629795347310,58019,282069,359885
1629795347320,58057,282119,359892
1629795347330,58079,282120,359887
1629795347340,58107,282121,359883
1629795347350,58133,282135,359890
1629795347360,58166,282169,359929
1629795347370,58180,282173,359887
1629795347380,58207,282186,359939
1629795347390,58229,282171,359915
1629795347400,58235,282159,359919
1629795347410,58251,282140,359927
1629795347420,58245,282171,359885
1629795347430,58233,282171,359892
1629795347440,58216,282170,359869
1629795347450,58199,282124,359917
1629795347460,58177,282114,359872
1629795347470,58144,282064,359835
1629795347480,58131,282083,359855
1629795347490,58101,282088,359829
1629795347500,58093,282093,359814
1629795347510,58077,282062,359863
1629795347520,58057,282051,359883
1629795347530,58041,282054,359836
1629795347540,58027,282011,359835
1629795347550,58012,282044,359795
1629795347560,57999,282003,359803
1629795347570,57966,282035,359806
1629795347580,57954,281989,359845
1629795347590,57945,282029,359782
1629795347600,57922,282003,359813
1629795347610,57906,282001,359821
1629795347620,57894,281993,359803
1629795347630,57879,281998,359801
1629795347640,57876,282013,359803
1629795347650,57872,282018,359808
1629795347660,57877,282006,359789
1629795347670,57866,281992,359819
1629795347680,57866,282009,359794
1629795347690,57859,281995,359817
1629795347700,57863,281981,359817
1629795347710,57858,282002,359760
1629795347720,57856,282012,359762
1629795347730,57857,282017,359745
1629795347740,57857,281982,359756
1629795347750,57852,282012,359764
1629795347760,57850,281976,359799
1629795347770,57855,282017,359784
1629795347780,57856,281996,359828
1629795347790,57849,282032,359775
1629795347800,57857,282033,359798
1629795347810,57854,282029,359779
1629795347820,57873,282006,359815
1629795347830,57879,282048,359762
1629795347840,57886,282020,359812
1629795347850,57893,282065,359805
1629795347860,57904,282011,359764
1629795347870,57916,282061,359770
1629795347880,57925,282056,359766
1629795347890,57942,282025,359785
1629795347900,57946,282056,359780
1629795347910,57963,282095,359806
1629795347920,57979,282110,359796
1629795347930,57999,282103,359784
1629795347940,58009,282107,359798
1629795347950,58023,282076,359826
1629795347960,58042,282086,359801
1629795347970,58069,282127,359854
1629795347980,58080,282125,359809
1629795347990,58091,282133,359783
1629795348000,58105,282118,359744
1629795348010,58125,282128,359810
1629795348020,58145,282117,359779
1629795348030,58166,282167,359844
1629795348040,58181,282136,359798
1629795348050,58203,282132,359810
1629795348060,58220,282158,359839
1629795348070,58247,282144,359800
1629795348080,58250,282175,359820
1629795348090,58284,282144,359841
1629795348100,58303,282167,359817
1629795348110,58314,282217,359824
1629795348120,58344,282200,359845
1629795348130,58364,282218,359837
1629795348140,58387,282184,359872
1629795348150,58400,282208,359840
1629795348160,58406,282236,359868
1629795348170,58416,282247,359869
1629795348180,58402,282177,359881
1629795348190,58388,282184,359856
1629795348200,58367,282176,359838
1629795348210,58350,282176,359823
1629795348220,58312,282133,359842
1629795348230,58285,282111,359791
1629795348240,58250,282130,359777
1629795348250,58216,282126,359798
1629795348260,58172,282099,359771
1629795348270,58155,282081,359762
1629795348280,58114,282043,359756
1629795348290,58076,282079,359810
1629795348300,58048,282048,359755
1629795348310,58014,282051,359746
1629795348320,57979,282041,359746
1629795348330,57945,282005,359734
1629795348340,57906,282021,359693
1629795348350,57868,281962,359724
1629795348360,57841,282026,359690
1629795348370,57817,281962,359685
1629795348380,57779,281989,359677
1629795348390,57750,281989,359623
1629795348400,57722,281951,359676
1629795348410,57699,281935,359644
1629795348420,57687,281903,359642
1629795348430,57687,281909,359678
1629795348440,57653,281940,359703
1629795348450,57651,281908,359647
1629795348460,57627,281941,359656
1629795348470,57616,281936,359608
1629795348480,57604,281966,359642
1629795348490,57582,281906,359605
1629795348500,57562,281933,359680
1629795348510,57550,281941,359637
1629795348520,57543,281924,359592
1629795348530,57531,281925,359624
1629795348540,57519,281931,359585
1629795348550,57503,281942,359633
1629795348560,57502,281947,359630
1629795348570,57495,281955,359596
1629795348580,57487,281930,359625
1629795348590,57483,281895,359602
1629795348600,57489,281949,359592
1629795348610,57487,281911,359596
1629795348620,57488,281949,359600
1629795348630,57490,281976,359604
1629795348640,57493,281961,359605
1629795348650,57503,281922,359612
1629795348660,57517,281971,359525
1629795348670,57524,281964,359614
1629795348680,57529,281984,359613
1629795348690,57544,282007,359621
1629795348700,57559,281996,359590
1629795348710,57566,282010,359608
1629795348720,57584,281987,359631
1629795348730,57601,281977,359573
1629795348740,57612,281986,359581
1629795348750,57632,282024,359619
1629795348760,57647,282056,359635
1629795348770,57650,282029,359614
1629795348780,57682,282048,359604
1629795348790,57704,282033,359608
1629795348800,57720,282083,359598
1629795348810,57727,282077,359607
1629795348820,57756,282086,359613
1629795348830,57766,282105,359604
1629795348840,57790,282131,359618
1629795348850,57806,282095,359655
1629795348860,57840,282126,359601
1629795348870,57845,282138,359607
1629795348880,57880,282174,359641
1629795348890,57901,282226,359606
1629795348900,57922,282189,359610
1629795348910,57961,282196,359643
1629795348920,57976,282203,359660
1629795348930,57990,282198,359644
1629795348940,58004,282130,359614
1629795348950,58014,282192,359626
1629795348960,58021,282192,359594
1629795348970,58008,282129,359648
1629795348980,57984,282160,359612
1629795348990,57968,282156,359641
1629795349000,57929,282096,359582
1629795349010,57898,282075,359585
1629795349020,57871,282072,359594
1629795349030,57823,282086,359578
1629795349040,57777,282065,359578
1629795349050,57753,282049,359552
1629795349060,57716,282017,359574
1629795349070,57679,282049,359547
1629795349080,57653,282011,359539
1629795349090,57610,281980,359487
1629795349100,57582,281962,359507
1629795349110,57540,281953,359483
1629795349120,57517,281986,359465
1629795349130,57473,281929,359473
1629795349140,57438,281925,359463
1629795349150,57408,281887,359481
1629795349160,57370,281937,359466
1629795349170,57346,281922,359425
1629795349180,57309,281912,359451
1629795349190,57289,281919,359436
1629795349200,57279,281858,359423
1629795349210,57254,281865,359434
1629795349220,57234,281895,359370
1629795349230,57227,281878,359406
1629795349240,57204,281877,359420
1629795349250,57199,281901,359428
1629795349260,57175,281880,359408
1629795349270,57169,281867,359374
1629795349280,57159,281861,359396
1629795349290,57144,281886,359365
1629795349300,57141,281894,359383
1629795349310,57139,281911,359383
1629795349320,57125,281861,359372
1629795349330,57125,281914,359364
1629795349340,57122,281851,359402
1629795349350,57114,281856,359374
1629795349360,57126,281927,359389
1629795349370,57121,281846,359362
1629795349380,57117,281881,359348
1629795349390,57130,281934,359360
1629795349400,57137,281906,359370
1629795349410,57143,281898,359343
1629795349420,57152,281902,359364
1629795349430,57158,281926,359381
1629795349440,57175,281891,359352
1629795349450,57185,281937,359381
1629795349460,57198,281943,359374
1629795349470,57216,281923,359349
1629795349480,57223,281909,359388
1629795349490,57246,281917,359350
1629795349500,57253,281931,359399
1629795349510,57271,281948,359353
1629795349520,57301,281964,359357
1629795349530,57306,281981,359348
1629795349540,57334,281993,359384
1629795349550,57344,282036,359386
1629795349560,57369,282011,359428
1629795349570,57387,282026,359354
1629795349580,57410,282054,359391
1629795349590,57435,282072,359400
1629795349600,57444,282057,359383
1629795349610,57469,282139,359416
1629795349620,57496,282130,359379
1629795349630,57517,282133,359430
1629795349640,57546,282149,359419
1629795349650,57571,282193,359415
1629795349660,57590,282150,359487
1629795349670,57626,282194,359412
1629795349680,57641,282220,359431
1629795349690,57679,282259,359449
1629795349700,57708,282235,359424
1629795349710,57741,282318,359469
1629795349720,57776,282324,359479
1629795349730,57813,282315,359464
1629795349740,57849,282313,359492
1629795349750,57882,282354,359496
1629795349760,57902,282370,359477
1629795349770,57927,282398,359475
1629795349780,57938,282384,359469
1629795349790,57949,282388,359495
1629795349800,57936,282416,359450
1629795349810,57924,282350,359474
1629795349820,57907,282358,359471
1629795349830,57873,282342,359522
1629795349840,57852,282307,359448
1629795349850,57830,282317,359446
1629795349860,57786,282306,359429
1629795349870,57763,282256,359397
1629795349880,57740,282308,359441
1629795349890,57714,282272,359436
1629795349900,57685,282270,359416
1629795349910,57653,282251,359420
1629795349920,57628,282268,359425
1629795349930,57607,282231,359419
1629795349940,57578,282240,359367
1629795349950,57553,282233,359405
1629795349960,57537,282209,359389
1629795349970,57504,282194,359371
1629795349980,57468,282174,359396
1629795349990,57454,282177,359403
1629795350000,57429,282191,359330
1629795350010,57418,282155,359380
1629795350020,57407,282197,359371
1629795350030,57396,282148,359324
1629795350040,57390,282159,359360
1629795350050,57389,282173,359352
1629795350060,57376,282132,359320
1629795350070,57383,282154,359336
1629795350080,57383,282161,359339
1629795350090,57374,282147,359345
1629795350100,57383,282092,359360
1629795350110,57378,282142,359303
1629795350120,57373,282107,359305
1629795350130,57383,282139,359307
1629795350140,57390,282084,359334
1629795350150,57392,282145,359334
1629795350160,57400,282114,359325
1629795350170,57406,282102,359331
1629795350180,57423,282081,359275
1629795350190,57429,282052,359321
1629795350200,57449,282035,359268
1629795350210,57450,282084,359258
1629795350220,57477,282077,359274
1629795350230,57510,282105,359357
1629795350240,57526,282098,359292
1629795350250,57538,282090,359327
1629795350260,57570,282094,359269
1629795350270,57594,282051,359317
1629795350280,57627,282100,359275
1629795350290,57651,282131,359334
1629795350300,57675,282087,359375
1629795350310,57700,282114,359317
1629795350320,57722,282133,359326
1629795350330,57758,282105,359307
1629795350340,57786,282103,359355
1629795350350,57810,282154,359314
1629795350360,57849,282161,359278
1629795350370,57878,282214,359327
1629795350380,57896,282217,359328
1629795350390,57920,282223,359300
1629795350400,57961,282235,359350
1629795350410,57977,282259,359340
1629795350420,58014,282266,359364
1629795350430,58037,282290,359372
1629795350440,58056,282344,359385
1629795350450,58084,282399,359408
1629795350460,58108,282378,359414
1629795350470,58142,282439,359446
1629795350480,58162,282449,359463
1629795350490,58182,282447,359459
1629795350500,58216,282549,359474
1629795350510,58231,282535,359528
1629795350520,58261,282594,359535
1629795350530,58285,282585,359561
1629795350540,58308,282632,359567
1629795350550,58348,282686,359632
1629795350560,58376,282680,359585
1629795350570,58410,282679,359645
1629795350580,58443,282763,359684
1629795350590,58464,282770,359689
1629795350600,58497,282774,359675
1629795350610,58514,282788,359710
1629795350620,58514,282819,359690
1629795350630,58517,282806,359701
1629795350640,58511,282799,359712
1629795350650,58510,282766,359681
1629795350660,58485,282741,359711
1629795350670,58475,282769,359700
1629795350680,58450,282800,359699
1629795350690,58434,282791,359663
1629795350700,58405,282742,359678
1629795350710,58382,282719,359630
1629795350720,58363,282682,359602
1629795350730,58353,282703,359598
1629795350740,58333,282657,359614
1629795350750,58312,282588,359587
1629795350760,58302,282571,359592
1629795350770,58294,282542,359543
1629795350780,58275,282540,359533
1629795350790,58267,282545,359518
1629795350800,58263,282534,359505
1629795350810,58260,282522,359485
1629795350820,58252,282499,359505
1629795350830,58241,282467,359459
1629795350840,58243,282422,359462
1629795350850,58259,282402,359470
1629795350860,58267,282475,359431
1629795350870,58277,282420,359450
1629795350880,58294,282414,359397
1629795350890,58302,282382,359411
1629795350900,58309,282400,359421
1629795350910,58310,282340,359404
1629795350920,58316,282359,359387
1629795350930,58332,282379,359416
1629795350940,58358,282386,359450
1629795350950,58380,282344,359455
1629795350960,58396,282349,359433
1629795350970,58414,282329,359450
1629795350980,58424,282354,359539
1629795350990,58434,282348,359482
1629795351000,58457,282366,359520
1629795351010,58488,282362,359515
1629795351020,58509,282353,359512
1629795351030,58523,282371,359521
1629795351040,58542,282396,359490
1629795351050,58573,282386,359554
1629795351060,58600,282406,359515
1629795351070,58624,282428,359518
1629795351080,58643,282396,359510
1629795351090,58674,282430,359546
1629795351100,58699,282444,359483
1629795351110,58727,282459,359545
1629795351120,58752,282424,359503
1629795351130,58780,282491,359504
1629795351140,58804,282503,359486
1629795351150,58834,282502,359502
1629795351160,58852,282563,359490
1629795351170,58882,282548,359526
1629795351180,58917,282547,359516
1629795351190,58927,282591,359510
1629795351200,58954,282620,359515
1629795351210,58977,282617,359522
1629795351220,58990,282658,359492
1629795351230,59015,282648,359541
1629795351240,59035,282642,359526
1629795351250,59053,282675,359479
1629795351260,59074,282626,359526
1629795351270,59097,282679,359525
1629795351280,59116,282755,359501
1629795351290,59131,282718,359554
1629795351300,59170,282658,359517
1629795351310,59183,282720,359509
1629795351320,59200,282687,359553
1629795351330,59223,282751,359547
1629795351340,59252,282753,359575
1629795351350,59273,282719,359557
1629795351360,59285,282725,359590
1629795351370,59308,282717,359572
1629795351380,59315,282670,359564
1629795351390,59315,282667,359605
1629795351400,59314,282707,359565
1629795351410,59293,282634,359604
1629795351420,59265,282623,359542
1629795351430,59228,282568,359558
1629795351440,59197,282515,359542
1629795351450,59143,282470,359566
1629795351460,59100,282479,359526
1629795351470,59059,282440,359509
1629795351480,59015,282436,359553
1629795351490,58971,282396,359543
1629795351500,58935,282352,359522
1629795351510,58896,282365,359511
1629795351520,58842,282351,359526
1629795351530,58808,282321,359502
1629795351540,58771,282262,359524
1629795351550,58736,282264,359507
1629795351560,58688,282189,359487
1629795351570,58645,282234,359546
1629795351580,58615,282227,359505
1629795351590,58574,282236,359463
1629795351600,58542,282190,359494
1629795351610,58511,282204,359503
1629795351620,58487,282136,359512
1629795351630,58463,282133,359468
1629795351640,58436,282132,359477
1629795351650,58421,282151,359458
1629795351660,58403,282126,359463
1629795351670,58385,282130,359461
1629795351680,58356,282133,359458
1629795351690,58349,282107,359484
1629795351700,58322,282146,359482
1629795351710,58319,282148,359427
1629795351720,58289,282178,359468
1629795351730,58274,282122,359478
1629795351740,58259,282105,359484
1629795351750,58250,282117,359442
1629795351760,58240,282084,359444
1629795351770,58225,282095,359457
1629795351780,58213,282125,359442
1629795351790,58217,282132,359474
1629795351800,58207,282132,359485
1629795351810,58199,282134,359410
1629795351820,58204,282147,359438
1629795351830,58207,282166,359457
1629795351840,58209,282139,359491
1629795351850,58203,282150,359446
1629795351860,58205,282168,359458
1629795351870,58211,282161,359430
1629795351880,58218,282180,359455
1629795351890,58226,282168,359500
1629795351900,58237,282189,359497
1629795351910,58249,282208,359454
1629795351920,58257,282233,359482
1629795351930,58263,282187,359493
1629795351940,58272,282228,359474
1629795351950,58283,282266,359506
1629795351960,58299,282247,359487
1629795351970,58315,282256,359470
1629795351980,58329,282271,359488
1629795351990,58333,282253,359526
1629795352000,58362,282245,359476
1629795352010,58360,282234,359497
1629795352020,58395,282300,359527
1629795352030,58425,282304,359501
1629795352040,58424,282301,359531
1629795352050,58448,282364,359507
1629795352060,58473,282330,359469
1629795352070,58500,282356,359517
1629795352080,58519,282378,359517
1629795352090,58543,282386,359507
1629795352100,58557,282370,359543
1629795352110,58567,282390,359565
1629795352120,58579,282382,359568
1629795352130,58573,282368,359585
1629795352140,58562,282371,359547
1629795352150,58534,282383,359505
1629795352160,58502,282367,359484
1629795352170,58488,282337,359516
1629795352180,58447,282346,359527
1629795352190,58420,282308,359495
1629795352200,58387,282317,359489
1629795352210,58363,282320,359461
1629795352220,58321,282282,359465
1629795352230,58297,282265,359444
1629795352240,58268,282254,359430
1629795352250,58249,282260,359416
1629795352260,58220,282223,359431
1629795352270,58194,282259,359400
1629795352280,58181,282221,359425
1629795352290,58152,282249,359374
1629795352300,58132,282207,359364
1629795352310,58118,282217,359392
1629795352320,58091,282234,359408
1629795352330,58082,282188,359375
1629795352340,58070,282211,359379
1629795352350,58069,282216,359380
1629795352360,58059,282179,359386
1629795352370,58056,282200,359402
1629795352380,58047,282179,359334
1629795352390,58046,282195,359366
1629795352400,58040,282185,359395
1629795352410,58035,282145,359321
1629795352420,58031,282176,359389
1629795352430,58018,282203,359342
1629795352440,58014,282191,359376
1629795352450,58014,282172,359383
1629795352460,58012,282183,359345
1629795352470,58013,282180,359366
1629795352480,58009,282209,359351
1629795352490,58004,282202,359354
1629795352500,58016,282204,359336
1629795352510,58013,282205,359382
1629795352520,58024,282228,359358
1629795352530,58026,282216,359368
1629795352540,58029,282237,359367
1629795352550,58037,282251,359389
1629795352560,58052,282224,359357
1629795352570,58057,282235,359360
1629795352580,58060,282285,359333
1629795352590,58075,282277,359344
1629795352600,58080,282260,359293
1629795352610,58099,282286,359324
1629795352620,58108,282306,359329
1629795352630,58125,282296,359328
1629795352640,58139,282322,359287
1629795352650,58151,282342,359324
1629795352660,58157,282327,359357
1629795352670,58179,282323,359323
1629795352680,58198,282380,359323
1629795352690,58209,282353,359381
1629795352700,58232,282374,359347
1629795352710,58246,282390,359336
1629795352720,58273,282358,359370
1629795352730,58290,282369,359379
1629795352740,58303,282421,359343
1629795352750,58332,282408,359340
1629795352760,58346,282392,359362
1629795352770,58376,282436,359347
1629795352780,58392,282445,359389
1629795352790,58414,282435,359325
1629795352800,58444,282472,359396
1629795352810,58457,282468,359355
1629795352820,58481,282453,359395
1629795352830,58503,282480,359399
1629795352840,58499,282435,359383
1629795352850,58502,282427,359379
1629795352860,58479,282417,359339
1629795352870,58456,282408,359330
1629795352880,58432,282402,359338
1629795352890,58409,282410,359329
1629795352900,58361,282385,359359
1629795352910,58334,282389,359322
1629795352920,58298,282343,359338
1629795352930,58274,282342,359314
1629795352940,58239,282340,359304
1629795352950,58210,282312,359243
1629795352960,58200,282295,359283
1629795352970,58164,282348,359284
1629795352980,58152,282302,359239
1629795352990,58128,282286,359216
1629795353000,58112,282318,359279
1629795353010,58090,282309,359244
1629795353020,58068,282286,359279
1629795353030,58072,282283,359276
1629795353040,58059,282310,359244
1629795353050,58052,282284,359228
1629795353060,58051,282316,359269
1629795353070,58034,282297,359266
1629795353080,58045,282321,359264
1629795353090,58040,282338,359243
1629795353100,58036,282295,359256
1629795353110,58040,282289,359240
1629795353120,58043,282281,359226
1629795353130,58045,282290,359190
1629795353140,58055,282324,359237
1629795353150,58037,282249,359218
1629795353160,58053,282298,359241
1629795353170,58046,282262,359173
1629795353180,58056,282266,359246
1629795353190,58052,282325,359184
1629795353200,58048,282278,359186
1629795353210,58064,282258,359194
1629795353220,58074,282282,359194
1629795353230,58083,282290,359166
1629795353240,58090,282283,359189
1629795353250,58095,282316,359219
1629795353260,58108,282315,359178
1629795353270,58121,282311,359210
1629795353280,58137,282304,359257
1629795353290,58146,282307,359236
1629795353300,58171,282368,359206
1629795353310,58176,282345,359228
1629795353320,58202,282336,359234
1629795353330,58218,282342,359220
1629795353340,58241,282293,359222
1629795353350,58255,282363,359185
1629795353360,58269,282351,359213
1629795353370,58287,282398,359245
1629795353380,58310,282372,359246
1629795353390,58336,282393,359237
1629795353400,58357,282431,359256
1629795353410,58377,282415,359244
1629795353420,58407,282429,359283
1629795353430,58434,282406,359279
1629795353440,58453,282438,359246
1629795353450,58471,282419,359301
1629795353460,58509,282459,359237
1629795353470,58525,282428,359324
1629795353480,58556,282475,359240
1629795353490,58572,282463,359282
1629795353500,58608,282508,359281
1629795353510,58631,282524,359328
1629795353520,58664,282507,359271
1629795353530,58687,282508,359301
1629795353540,58718,282562,359282
1629795353550,58739,282526,359322
1629795353560,58759,282523,359334
1629795353570,58767,282535,359317
1629795353580,58770,282542,359281
1629795353590,58769,282498,359294
1629795353600,58755,282481,359266
1629795353610,58733,282491,359287
1629795353620,58720,282439,359277
1629795353630,58686,282443,359231
1629795353640,58659,282382,359261
1629795353650,58626,282442,359268
1629795353660,58612,282429,359239
1629795353670,58580,282394,359257
1629795353680,58556,282403,359234
1629795353690,58532,282368,359211
1629795353700,58513,282398,359238
1629795353710,58499,282384,359242
1629795353720,58486,282403,359186
1629795353730,58473,282331,359201
1629795353740,58457,282353,359220
1629795353750,58445,282342,359182
1629795353760,58449,282344,359201
1629795353770,58425,282339,359196
1629795353780,58421,282316,359183
1629795353790,58408,282396,359171
1629795353800,58411,282366,359197
1629795353810,58419,282333,359160
1629795353820,58409,282308,359193
1629795353830,58400,282370,359167
1629795353840,58421,282333,359196
1629795353850,58415,282380,359185
1629795353860,58426,282358,359217
1629795353870,58421,282332,359188
1629795353880,58431,282378,359199
1629795353890,58427,282374,359182
1629795353900,58434,282330,359185
1629795353910,58429,282346,359148
1629795353920,58432,282363,359197
1629795353930,58423,282378,359206
1629795353940,58448,282360,359171
1629795353950,58446,282354,359169
1629795353960,58457,282336,359179
1629795353970,58466,282366,359189
1629795353980,58472,282399,359172
1629795353990,58478,282417,359187
1629795354000,58493,282413,359196
1629795354010,58498,282389,359189
1629795354020,58525,282400,359197
1629795354030,58539,282379,359201
1629795354040,58556,282422,359184
1629795354050,58566,282416,359224
1629795354060,58579,282421,359214
1629795354070,58606,282431,359186
1629795354080,58632,282458,359221
1629795354090,58641,282454,359184
1629795354100,58663,282450,359220
1629795354110,58686,282496,359226
1629795354120,58702,282464,359222
1629795354130,58723,282521,359235
1629795354140,58752,282506,359240
1629795354150,58763,282500,359236
1629795354160,58810,282535,359260
1629795354170,58819,282524,359223
1629795354180,58840,282533,359211
1629795354190,58869,282533,359217
1629795354200,58886,282540,359259
1629795354210,58914,282567,359262
1629795354220,58938,282579,359256
1629795354230,58967,282529,359276
1629795354240,58996,282586,359296
1629795354250,59019,282603,359252
1629795354260,59046,282588,359294
1629795354270,59077,282618,359278
1629795354280,59085,282579,359264
1629795354290,59092,282616,359306
1629795354300,59093,282574,359304
1629795354310,59102,282553,359313
1629795354320,59086,282566,359311
1629795354330,59069,282563,359241
1629795354340,59041,282552,359231
1629795354350,59014,282503,359238
1629795354360,58971,282515,359253
1629795354370,58953,282479,359215
1629795354380,58918,282487,359236
1629795354390,58890,282504,359220
1629795354400,58862,282444,359196
1629795354410,58842,282454,359179
1629795354420,58819,282459,359209
1629795354430,58807,282415,359155
1629795354440,58785,282425,359178
1629795354450,58773,282460,359203
1629795354460,58768,282438,359170
1629795354470,58738,282411,359231
1629795354480,58727,282415,359166
1629795354490,58714,282397,359172
1629795354500,58710,282415,359152
1629795354510,58711,282382,359166
1629795354520,58708,282438,359186
1629795354530,58699,282397,359150
1629795354540,58702,282427,359172
1629795354550,58698,282408,359183
1629795354560,58704,282420,359187
1629795354570,58703,282415,359172
1629795354580,58691,282441,359153
1629795354590,58694,282427,359118
1629795354600,58697,282408,359154
1629795354610,58687,282395,359151
1629795354620,58700,282397,359187
1629795354630,58690,282419,359174
1629795354640,58692,282425,359130
1629795354650,58690,282431,359167
1629795354660,58691,282409,359115
1629795354670,58699,282420,359147
1629795354680,58698,282448,359125
1629795354690,58705,282452,359101
1629795354700,58713,282441,359144
1629795354710,58723,282461,359138
1629795354720,58732,282438,359112
1629795354730,58745,282441,359167
1629795354740,58754,282443,359194
1629795354750,58762,282446,359144
1629795354760,58771,282448,359196
1629795354770,58794,282485,359160
1629795354780,58800,282462,359181
1629795354790,58827,282492,359160
1629795354800,58839,282475,359142
1629795354810,58848,282480,359163
1629795354820,58865,282493,359180
1629795354830,58878,282510,359177
1629795354840,58900,282456,359152
1629795354850,58930,282475,359186
1629795354860,58937,282506,359167
1629795354870,58952,282553,359194
1629795354880,58974,282498,359222
1629795354890,58996,282519,359221
1629795354900,59017,282563,359239
1629795354910,59027,282579,359187
1629795354920,59057,282561,359193
1629795354930,59067,282565,359208
1629795354940,59097,282592,359182
1629795354950,59113,282559,359220
1629795354960,59147,282602,359240
1629795354970,59166,282602,359258
1629795354980,59181,282637,359233
1629795354990,59208,282597,359238
1629795355000,59222,282585,359238
1629795355010,59235,282615,359215
1629795355020,59231,282586,359231
1629795355030,59224,282580,359201
1629795355040,59198,282560,359171
1629795355050,59174,282575,359180
1629795355060,59142,282476,359183
1629795355070,59100,282514,359154
1629795355080,59054,282469,359176
1629795355090,59019,282439,359167
1629795355100,58983,282468,359141
1629795355110,58939,282422,359085
1629795355120,58924,282446,359111
1629795355130,58881,282376,359135
1629795355140,58853,282385,359093
1629795355150,58821,282409,359062
1629795355160,58801,282382,359085
1629795355170,58759,282359,359065
1629795355180,58741,282351,359112
1629795355190,58710,282323,359067
1629795355200,58679,282366,359054
1629795355210,58671,282351,359056
1629795355220,58642,282322,359063
1629795355230,58616,282307,359087
1629795355240,58613,282298,359064
1629795355250,58594,282311,359031
1629795355260,58592,282310,359045
1629795355270,58568,282291,359028
1629795355280,58567,282294,359004
1629795355290,58568,282309,359036
1629795355300,58556,282341,359018
1629795355310,58550,282377,359019
1629795355320,58542,282304,359013
1629795355330,58530,282270,358982
1629795355340,58524,282333,359018
1629795355350,58507,282285,359038
1629795355360,58508,282281,359035
1629795355370,58511,282337,358971
1629795355380,58501,282306,359010
1629795355390,58496,282306,359038
1629795355400,58511,282263,359002
1629795355410,58503,282286,358996
1629795355420,58490,282283,358995
1629795355430,58501,282302,359016
1629795355440,58504,282306,358997
1629795355450,58516,282367,359004
1629795355460,58518,282321,359001
1629795355470,58530,282313,358961
1629795355480,58538,282354,358995
1629795355490,58549,282337,358970
1629795355500,58558,282345,358987
1629795355510,58580,282290,359008
1629795355520,58596,282372,359041
1629795355530,58607,282376,358979
1629795355540,58613,282366,359031
1629795355550,58632,282357,359010
1629795355560,58653,282390,359011
1629795355570,58657,282381,359024
1629795355580,58691,282400,359033
1629795355590,58711,282399,359015
1629795355600,58720,282410,359014
1629795355610,58749,282414,359038
1629795355620,58761,282416,359061
1629795355630,58774,282417,359050
1629795355640,58794,282422,359055
1629795355650,58816,282411,359029
1629795355660,58842,282441,359070
1629795355670,58868,282466,359089
1629795355680,58883,282485,359065
1629795355690,58905,282452,359074
1629795355700,58929,282493,359087
1629795355710,58956,282470,359094
1629795355720,58973,282509,359033
1629795355730,58980,282511,359073
1629795355740,58999,282497,359049
1629795355750,58985,282461,359084
1629795355760,58976,282485,359046
1629795355770,58944,282468,359046
1629795355780,58909,282415,359040
1629795355790,58872,282414,359009
1629795355800,58815,282400,359001
1629795355810,58762,282351,358996
1629795355820,58714,282332,358976
1629795355830,58673,282307,358955
1629795355840,58633,282289,358939
1629795355850,58591,282275,358957
1629795355860,58545,282285,358968
1629795355870,58507,282230,358930
1629795355880,58468,282270,358930
1629795355890,58424,282233,358911
1629795355900,58382,282145,358921
1629795355910,58354,282199,358883
1629795355920,58322,282190,358875
1629795355930,58260,282181,358901
1629795355940,58245,282169,358824
1629795355950,58208,282132,358844
1629795355960,58178,282143,358818
1629795355970,58147,282158,358865
1629795355980,58128,282170,358822
1629795355990,58116,282125,358830
1629795356000,58096,282092,358817
1629795356010,58088,282162,358786
1629795356020,58064,282174,358849
1629795356030,58054,282115,358758
1629795356040,58045,282139,358838
1629795356050,58025,282097,358797
1629795356060,58012,282118,358787
1629795356070,57999,282114,358790
1629795356080,57996,282112,358799
1629795356090,57986,282117,358796
1629795356100,57963,282110,358790
1629795356110,57959,282109,358756
1629795356120,57946,282151,358787
1629795356130,57946,282112,358772
1629795356140,57944,282125,358766
1629795356150,57947,282146,358788
1629795356160,57943,282095,358695
1629795356170,57946,282098,358757
1629795356180,57952,282140,358758
1629795356190,57958,282176,358760
1629795356200,57956,282140,358765
1629795356210,57957,282131,358784
1629795356220,57974,282163,358769
1629795356230,57968,282162,358767
1629795356240,58006,282175,358780
1629795356250,58001,282146,358767
1629795356260,58018,282198,358806
1629795356270,58030,282167,358768
1629795356280,58044,282195,358761
1629795356290,58066,282173,358783
1629795356300,58074,282167,358771
1629795356310,58102,282269,358783
1629795356320,58112,282227,358792
1629795356330,58136,282237,358781
1629795356340,58144,282222,358793
1629795356350,58160,282213,358764
1629795356360,58190,282237,358783
1629795356370,58213,282267,358783
1629795356380,58216,282287,358829
1629795356390,58252,282293,358818
1629795356400,58262,282304,358813
1629795356410,58271,282295,358827
1629795356420,58305,282278,358843
1629795356430,58325,282323,358832
1629795356440,58339,282304,358828
1629795356450,58376,282371,358808
1629795356460,58404,282328,358825
1629795356470,58412,282395,358835
1629795356480,58438,282318,358841
1629795356490,58447,282365,358834
1629795356500,58456,282343,358878
1629795356510,58443,282338,358840
1629795356520,58416,282280,358800
1629795356530,58377,282257,358818
1629795356540,58319,282265,358796
1629795356550,58281,282212,358770
1629795356560,58225,282195,358773
1629795356570,58167,282154,358758
1629795356580,58119,282144,358747
1629795356590,58055,282127,358702
1629795356600,58010,282140,358731
1629795356610,57965,282081,358676
1629795356620,57919,282065,358673
1629795356630,57862,282070,358650
1629795356640,57818,282025,358636
1629795356650,57777,282038,358632
1629795356660,57729,282035,358657
1629795356670,57688,281971,358594
1629795356680,57642,281957,358610
1629795356690,57598,281959,358604
1629795356700,57566,281920,358555
1629795356710,57519,281943,358577
1629795356720,57495,281905,358559
1629795356730,57446,281941,358573
1629795356740,57418,281890,358559
1629795356750,57407,281889,358560
1629795356760,57388,281925,358564
1629795356770,57367,281888,358523
1629795356780,57356,281892,358554
1629795356790,57330,281914,358519
1629795356800,57321,281860,358541
1629795356810,57303,281892,358540
1629795356820,57283,281865,358545
1629795356830,57272,281904,358505
1629795356840,57249,281845,358519
1629795356850,57238,281872,358506
1629795356860,57225,281855,358521
1629795356870,57207,281839,358509
1629795356880,57202,281848,358521
1629795356890,57193,281870,358527
1629795356900,57181,281848,358514
1629795356910,57192,281828,358459
1629795356920,57193,281893,358475
1629795356930,57198,281873,358497
1629795356940,57202,281845,358515
1629795356950,57203,281835,358494
1629795356960,57206,281854,358482
1629795356970,57221,281865,358532
1629795356980,57217,281861,358497
1629795356990,57231,281898,358505
1629795357000,57239,281906,358526
1629795357010,57245,281903,358516
1629795357020,57259,281890,358486
1629795357030,57289,281920,358493
1629795357040,57282,281936,358518
1629795357050,57304,281861,358502
1629795357060,57325,281952,358472
1629795357070,57341,281877,358480
1629795357080,57350,281937,358478
1629795357090,57377,281940,358531
1629795357100,57383,281951,358516
1629795357110,57410,282002,358544
1629795357120,57435,281970,358498
1629795357130,57451,281987,358547
1629795357140,57475,282002,358566
1629795357150,57484,281969,358526
1629795357160,57516,281958,358492
1629795357170,57527,281996,358524
1629795357180,57538,282057,358516
1629795357190,57571,282029,358568
1629795357200,57596,282023,358556
1629795357210,57623,282037,358568
1629795357220,57646,282061,358554
1629795357230,57676,282065,358578
1629795357240,57701,282086,358558
1629795357250,57703,282076,358611
1629795357260,57725,282101,358559
1629795357270,57719,282044,358568
1629795357280,57722,282076,358584
1629795357290,57699,282034,358529
1629795357300,57646,282015,358561
1629795357310,57604,281973,358493
1629795357320,57553,281965,358495
1629795357330,57486,281909,358494
1629795357340,57431,281940,358482
1629795357350,57376,281881,358463
1629795357360,57326,281800,358453
1629795357370,57269,281851,358471
1629795357380,57212,281812,358446
1629795357390,57158,281825,358391
1629795357400,57116,281781,358389
1629795357410,57064,281775,358416
1629795357420,57022,281722,358362
1629795357430,56975,281725,358386
1629795357440,56930,281690,358355
1629795357450,56881,281695,358335
1629795357460,56843,281677,358312
1629795357470,56803,281674,358313
1629795357480,56761,281650,358309
1629795357490,56726,281657,358317
1629795357500,56694,281638,358306
1629795357510,56671,281661,358329
1629795357520,56657,281623,358300
1629795357530,56633,281611,358261
1629795357540,56622,281630,358285
1629795357550,56596,281618,358271
1629795357560,56578,281580,358295
1629795357570,56559,281604,358243
1629795357580,56545,281628,358252
1629795357590,56524,281608,358240
1629795357600,56513,281622,358240
1629795357610,56490,281601,358223
1629795357620,56479,281584,358234
1629795357630,56469,281577,358282
1629795357640,56461,281585,358244
1629795357650,56453,281589,358255
1629795357660,56437,281585,358223
1629795357670,56432,281610,358237
1629795357680,56434,281595,358230
1629795357690,56443,281590,358221
1629795357700,56440,281563,358208
1629795357710,56435,281577,358230
1629795357720,56449,281592,358215
1629795357730,56455,281612,358215
1629795357740,56460,281581,358247
1629795357750,56480,281636,358213
1629795357760,56495,281610,358260
1629795357770,56487,281604,358256
1629795357780,56510,281623,358225
1629795357790,56517,281671,358268
1629795357800,56540,281641,358270
1629795357810,56556,281658,358219
1629795357820,56571,281676,358255
1629795357830,56587,281665,358314
1629795357840,56613,281678,358263
1629795357850,56624,281705,358273
1629795357860,56642,281686,358260
1629795357870,56657,281712,358304
1629795357880,56675,281754,358271
1629795357890,56699,281723,358303
1629795357900,56714,281668,358299
1629795357910,56743,281742,358272
1629795357920,56759,281732,358326
1629795357930,56787,281756,358268
1629795357940,56815,281740,358322
1629795357950,56832,281745,358279
1629795357960,56856,281767,358302
1629795357970,56883,281819,358331
1629795357980,56907,281825,358343
1629795357990,56925,281769,358342
1629795358000,56959,281806,358322
1629795358010,56983,281810,358297
1629795358020,57010,281861,358327
1629795358030,57033,281850,358390
1629795358040,57074,281901,358367
1629795358050,57092,281846,358409
1629795358060,57103,281885,358375
1629795358070,57098,281865,358331
1629795358080,57094,281827,358373
1629795358090,57055,281817,358336
1629795358100,57031,281799,358333
1629795358110,56978,281788,358295
1629795358120,56921,281712,358328
1629795358130,56866,281692,358270
1629795358140,56804,281677,358259
1629795358150,56748,281667,358255
1629795358160,56699,281624,358275
1629795358170,56644,281605,358256
1629795358180,56592,281633,358216
1629795358190,56558,281569,358233
1629795358200,56508,281613,358191
1629795358210,56453,281540,358222
1629795358220,56409,281511,358179
1629795358230,56375,281538,358164
1629795358240,56322,281510,358132
1629795358250,56288,281484,358180
1629795358260,56263,281501,358162
1629795358270,56218,281495,358151
1629795358280,56190,281493,358144
1629795358290,56162,281451,358162
1629795358300,56140,281414,358164
1629795358310,56120,281448,358139
1629795358320,56096,281433,358096
1629795358330,56085,281443,358180
1629795358340,56075,281442,358122
1629795358350,56063,281409,358140
1629795358360,56048,281445,358115
1629795358370,56037,281448,358083
1629795358380,56025,281465,358104
1629795358390,56015,281406,358103
1629795358400,55993,281424,358105
1629795358410,55992,281415,358106
1629795358420,55973,281387,358103
1629795358430,55974,281389,358092
1629795358440,55960,281430,358122
1629795358450,55955,281379,358085
1629795358460,55944,281429,358097
1629795358470,55943,281455,358099
1629795358480,55955,281427,358110
1629795358490,55955,281422,358063
1629795358500,55960,281431,358114
1629795358510,55964,281408,358123
1629795358520,55969,281445,358087
1629795358530,55978,281458,358062
1629795358540,55996,281441,358066
1629795358550,55999,281445,358087
1629795358560,56023,281455,358101
1629795358570,56031,281471,358083
1629795358580,56050,281462,358119
1629795358590,56074,281478,358137
1629795358600,56074,281491,358121
1629795358610,56102,281509,358108
1629795358620,56119,281535,358129
1629795358630,56142,281560,358142
1629795358640,56160,281524,358127
1629795358650,56190,281506,358192
1629795358660,56213,281551,358168
1629795358670,56238,281552,358136
1629795358680,56266,281573,358139
1629795358690,56281,281587,358136
1629795358700,56301,281595,358192
1629795358710,56326,281659,358169
1629795358720,56345,281641,358182
1629795358730,56372,281617,358183
1629795358740,56394,281626,358177
1629795358750,56421,281600,358195
1629795358760,56462,281638,358193
1629795358770,56475,281630,358192
1629795358780,56503,281683,358164
1629795358790,56535,281680,358263
1629795358800,56557,281698,358238
1629795358810,56597,281694,358199
1629795358820,56613,281716,358264
1629795358830,56651,281711,358261
1629795358840,56684,281739,358265
1629795358850,56710,281730,358267
1629795358860,56740,281747,358255
1629795358870,56746,281748,358259
1629795358880,56762,281783,358275
1629795358890,56757,281722,358323
1629795358900,56731,281705,358229
1629795358910,56705,281677,358232
1629795358920,56655,281646,358230
1629795358930,56607,281632,358195
1629795358940,56552,281599,358184
1629795358950,56489,281554,358191
1629795358960,56440,281551,358137
1629795358970,56383,281542,358144
1629795358980,56335,281511,358143
1629795358990,56290,281451,358075
1629795359000,56250,281480,358076
1629795359010,56200,281424,358128
1629795359020,56158,281407,358145
1629795359030,56112,281444,358089
1629795359040,56071,281431,358131
1629795359050,56037,281406,358104
1629795359060,55997,281365,358041
1629795359070,55954,281390,358067
1629795359080,55919,281340,358040
1629795359090,55884,281342,358053
1629795359100,55850,281300,358040
1629795359110,55832,281298,358063
1629795359120,55811,281298,358089
1629795359130,55783,281342,358003
1629795359140,55768,281269,358026
1629795359150,55739,281267,357972
1629795359160,55719,281231,358019
1629795359170,55704,281232,357990
1629795359180,55671,281211,358000
1629795359190,55649,281254,358027
1629795359200,55618,281210,357998
1629795359210,55595,281207,357990
1629795359220,55573,281218,357965
1629795359230,55546,281185,358029
1629795359240,55534,281195,358005
1629795359250,55502,281182,357968
1629795359260,55497,281182,357971
1629795359270,55475,281209,357965
1629795359280,55459,281177,357988
1629795359290,55452,281218,357987
1629795359300,55452,281188,357958
1629795359310,55444,281220,357983
1629795359320,55445,281222,357947
1629795359330,55435,281168,357982
1629795359340,55433,281206,357992
1629795359350,55445,281191,357986
1629795359360,55446,281220,358029
1629795359370,55449,281184,357989
1629795359380,55451,281194,358010
1629795359390,55460,281215,358024
1629795359400,55470,281225,357993
1629795359410,55490,281240,357977
1629795359420,55489,281224,357989
1629795359430,55496,281230,358028
1629795359440,55508,281232,357974
1629795359450,55521,281242,358016
1629795359460,55553,281224,358000
1629795359470,55554,281286,357983
1629795359480,55564,281249,358061
1629795359490,55592,281264,358046
1629795359500,55600,281300,358008
1629795359510,55629,281293,358063
1629795359520,55634,281288,358088
1629795359530,55660,281325,358083
1629795359540,55676,281320,358108
1629795359550,55688,281349,358089
1629795359560,55708,281343,358107
1629795359570,55718,281360,358057
1629795359580,55743,281351,358067
1629795359590,55765,281358,358067
1629795359600,55782,281334,358100
1629795359610,55812,281389,358113
1629795359620,55823,281414,358093
1629795359630,55855,281416,358109
1629795359640,55862,281373,358144
1629795359650,55900,281395,358136
1629795359660,55915,281392,358138
1629795359670,55930,281410,358156
1629795359680,55947,281426,358168
1629795359690,55951,281386,358133
1629795359700,55935,281400,358153
1629795359710,55904,281373,358119
1629795359720,55859,281347,358157
1629795359730,55815,281307,358106
1629795359740,55755,281247,358070
1629795359750,55690,281269,358028
1629795359760,55619,281204,358076
1629795359770,55551,281205,358046
1629795359780,55497,281179,357982
1629795359790,55420,281174,357993
1629795359800,55360,281151,358017
1629795359810,55316,281080,357944
1629795359820,55261,281105,357975
1629795359830,55206,281079,357970
1629795359840,55160,281060,357942
1629795359850,55105,281015,357961
1629795359860,55073,281066,357912
1629795359870,55020,281005,357911
1629795359880,54986,280991,357922
1629795359890,54928,280987,357914
1629795359900,54901,280983,357903
1629795359910,54869,281027,357891
1629795359920,54836,280951,357885
1629795359930,54824,280943,357866
1629795359940,54809,280918,357849
1629795359950,54779,280975,357876
1629795359960,54757,280963,357830
1629795359970,54744,280957,357847
1629795359980,54725,280899,357879
1629795359990,54724,280974,357819
1629795360000,54705,280940,357876
1629795360010,54688,280965,357885
1629795360020,54665,280970,357852
1629795360030,54656,280955,357835
1629795360040,54636,280958,357813
1629795360050,54632,280943,357846
1629795360060,54614,280931,357785
1629795360070,54608,280920,357819
1629795360080,54606,280927,357848
1629795360090,54597,280933,357859
1629795360100,54602,280930,357859
1629795360110,54602,280962,357833
1629795360120,54615,280895,357829
1629795360130,54619,280950,357837
1629795360140,54631,280978,357846
1629795360150,54627,280988,357830
1629795360160,54635,281011,357890
1629795360170,54649,280967,357866
1629795360180,54653,281000,357832
1629795360190,54680,280998,357869
1629795360200,54693,280992,357874
1629795360210,54711,281009,357862
1629795360220,54726,281056,357849
1629795360230,54748,281039,357881
1629795360240,54766,281065,357903
1629795360250,54802,281030,357915
1629795360260,54822,281059,357871
1629795360270,54848,281084,357918
1629795360280,54860,281070,357919
1629795360290,54893,281097,357909
1629795360300,54906,281090,357953
1629795360310,54934,281107,357929
1629795360320,54955,281104,357990
1629795360330,54988,281097,357957
1629795360340,55007,281128,357976
1629795360350,55044,281172,357990
1629795360360,55063,281152,357975
1629795360370,55093,281180,357994
1629795360380,55119,281209,357975
1629795360390,55147,281211,357996
1629795360400,55174,281217,357994
1629795360410,55207,281201,357998
1629795360420,55213,281260,358003
1629795360430,55269,281254,358027
1629795360440,55294,281265,358036
1629795360450,55330,281260,358032
1629795360460,55372,281261,358049
1629795360470,55388,281299,358078
1629795360480,55426,281291,358045
1629795360490,55440,281271,358076
1629795360500,55449,281299,358012
1629795360510,55441,281263,358081
1629795360520,55429,281238,358033
1629795360530,55379,281192,358021
1629795360540,55332,281199,358014
1629795360550,55277,281198,357987
1629795360560,55231,281109,358005
1629795360570,55167,281148,357985
1629795360580,55128,281080,357989
1629795360590,55077,281081,357959
1629795360600,55033,281039,357909
1629795360610,54989,281031,357965
1629795360620,54944,281043,357962
1629795360630,54881,281036,357909
1629795360640,54865,281034,357896
1629795360650,54832,280971,357901
1629795360660,54795,280969,357882
1629795360670,54765,280942,357909
1629795360680,54744,280981,357863
1629795360690,54707,280957,357868
1629795360700,54678,280954,357879
1629795360710,54658,280988,357869
1629795360720,54631,280960,357884
1629795360730,54622,280890,357886
1629795360740,54615,280939,357866
1629795360750,54604,280920,357827
1629795360760,54580,280892,357875
1629795360770,54585,280934,357879
1629795360780,54575,280940,357852
1629795360790,54576,280907,357887
1629795360800,54573,280956,357844
1629795360810,54573,280897,357823
1629795360820,54560,280933,357846
1629795360830,54552,280938,357865
1629795360840,54546,280947,357866
1629795360850,54543,280934,357869
1629795360860,54534,280918,357845
1629795360870,54532,280920,357857
1629795360880,54533,280948,357878
1629795360890,54543,280953,357838
1629795360900,54547,280929,357834
1629795360910,54560,280955,357915
1629795360920,54552,280898,357889
1629795360930,54574,280940,357871
1629795360940,54589,280939,357883
1629795360950,54600,280963,357876
1629795360960,54605,281003,357898
1629795360970,54617,280988,357908
1629795360980,54635,281033,357885
1629795360990,54664,281020,357926
1629795361000,54680,281011,357898
1629795361010,54700,281033,357916
1629795361020,54736,281052,357947
1629795361030,54743,281041,357947
1629795361040,54773,281065,357958
1629795361050,54801,281055,357951
1629795361060,54824,281099,357988
1629795361070,54850,281064,357947
1629795361080,54879,281083,357929
1629795361090,54908,281111,357973
1629795361100,54942,281140,357975
1629795361110,54963,281137,357975
1629795361120,54994,281176,357973
1629795361130,55031,281125,357980
1629795361140,55056,281186,358052
1629795361150,55078,281208,358015
1629795361160,55109,281186,357998
1629795361170,55143,281226,358048
1629795361180,55172,281228,358072
1629795361190,55209,281245,358076
1629795361200,55229,281221,358038
1629795361210,55259,281269,358075
1629795361220,55296,281283,358072
1629795361230,55327,281300,358069
1629795361240,55365,281292,358108
1629795361250,55403,281317,358114
1629795361260,55429,281332,358105
1629795361270,55467,281323,358133
1629795361280,55509,281322,358184
1629795361290,55537,281372,358087
1629795361300,55569,281401,358107
1629795361310,55582,281331,358136
1629795361320,55586,281364,358110
1629795361330,55576,281333,358143
1629795361340,55552,281305,358123
1629795361350,55522,281263,358116
1629795361360,55485,281300,358087
1629795361370,55452,281243,358093
1629795361380,55404,281219,358028
1629795361390,55359,281212,358047
1629795361400,55325,281152,358033
1629795361410,55286,281183,358039
1629795361420,55254,281177,358009
1629795361430,55215,281165,358047
1629795361440,55195,281189,358015
1629795361450,55172,281146,358003
1629795361460,55138,281118,357998
1629795361470,55117,281114,357969
1629795361480,55100,281148,357986
1629795361490,55079,281098,358001
1629795361500,55069,281124,358002
1629795361510,55048,281123,357981
1629795361520,55035,281099,357976
1629795361530,55031,281092,357945
1629795361540,55025,281094,357964
1629795361550,55014,281105,357958
1629795361560,55035,281085,357973
1629795361570,55016,281109,357958
1629795361580,55019,281150,357967
1629795361590,55019,281106,357951
1629795361600,55042,281132,357946
1629795361610,55039,281127,357952
1629795361620,55040,281102,357982
1629795361630,55038,281128,357957
1629795361640,55045,281087,357946
1629795361650,55052,281139,357940
1629795361660,55052,281133,357971
1629795361670,55053,281138,358045
1629795361680,55057,281143,357950
1629795361690,55073,281134,358006
1629795361700,55079,281171,358002
1629795361710,55095,281158,357973
1629795361720,55100,281140,357990
1629795361730,55118,281121,358009
1629795361740,55126,281144,358026
1629795361750,55147,281180,358006
1629795361760,55166,281129,358006
1629795361770,55190,281192,358080
1629795361780,55208,281211,358026
1629795361790,55235,281202,358016
1629795361800,55254,281218,358041
1629795361810,55283,281224,358034
1629795361820,55302,281241,358013
1629795361830,55330,281252,358045
1629795361840,55357,281264,358024
1629795361850,55378,281270,358087
1629795361860,55411,281232,358064
1629795361870,55440,281307,358096
1629795361880,55474,281312,358054
1629795361890,55503,281290,358119
1629795361900,55532,281284,358126
1629795361910,55559,281330,358122
1629795361920,55590,281332,358100
1629795361930,55619,281357,358089
1629795361940,55651,281370,358130
1629795361950,55678,281380,358129
1629795361960,55719,281359,358180
1629795361970,55754,281381,358179
1629795361980,55790,281413,358168
1629795361990,55820,281401,358161
1629795362000,55856,281423,358201
1629795362010,55884,281441,358146
1629795362020,55919,281450,358185
1629795362030,55947,281452,358157
1629795362040,55993,281488,358223
1629795362050,56024,281499,358183
1629795362060,56054,281546,358218
1629795362070,56089,281537,358240
1629795362080,56129,281509,358217
1629795362090,56159,281577,358234
1629795362100,56204,281553,358203
1629795362110,56224,281550,358236
1629795362120,56241,281541,358253
1629795362130,56251,281543,358257
1629795362140,56244,281539,358270
1629795362150,56243,281509,358235
1629795362160,56206,281479,358239
1629795362170,56197,281460,358211
1629795362180,56162,281501,358222
1629795362190,56136,281446,358187
1629795362200,56098,281419,358221
1629795362210,56079,281447,358205
1629795362220,56056,281429,358228
1629795362230,56038,281410,358238
1629795362240,56026,281421,358207
1629795362250,56010,281414,358190
1629795362260,55987,281392,358201
1629795362270,55985,281360,358134
1629795362280,55964,281385,358148
1629795362290,55962,281399,358164
1629795362300,55961,281379,358138
1629795362310,55945,281372,358132
1629795362320,55943,281383,358166
1629795362330,55943,281376,358130
1629795362340,55946,281369,358184
1629795362350,55952,281379,358192
1629795362360,55963,281405,358236
1629795362370,55978,281422,358154
1629795362380,55987,281408,358161
1629795362390,55992,281405,358181
1629795362400,56000,281405,358164
1629795362410,55996,281409,358149
1629795362420,56028,281424,358176
1629795362430,56033,281407,358157
1629795362440,56038,281451,358139
1629795362450,56050,281423,358245
1629795362460,56068,281461,358190
1629795362470,56071,281415,358205
1629795362480,56091,281424,358174
1629795362490,56093,281460,358151
1629795362500,56113,281415,358197
1629795362510,56124,281450,358187
1629795362520,56138,281444,358190
1629795362530,56164,281458,358205
1629795362540,56176,281462,358202
1629795362550,56196,281498,358169
1629795362560,56229,281456,358227
1629795362570,56247,281492,358260
1629795362580,56264,281492,358206
1629795362590,56292,281530,358199
1629795362600,56321,281502,358253
1629795362610,56340,281557,358244
1629795362620,56354,281534,358249
1629795362630,56394,281524,358242
1629795362640,56415,281530,358285
1629795362650,56445,281543,358245
1629795362660,56464,281538,358271
1629795362670,56493,281513,358283
1629795362680,56523,281577,358289
1629795362690,56551,281603,358289
1629795362700,56587,281593,358291
1629795362710,56607,281590,358330
1629795362720,56638,281657,358281
1629795362730,56654,281592,358304
1629795362740,56689,281624,358314
1629795362750,56723,281620,358329
1629795362760,56762,281672,358344
1629795362770,56783,281695,358364
1629795362780,56812,281665,358377
1629795362790,56846,281733,358348
1629795362800,56878,281692,358386
1629795362810,56907,281734,358389
1629795362820,56943,281714,358348
1629795362830,56971,281757,358434
1629795362840,57008,281784,358376
1629795362850,57028,281776,358399
1629795362860,57065,281750,358389
1629795362870,57102,281805,358388
1629795362880,57137,281770,358359
1629795362890,57145,281796,358440
1629795362900,57151,281742,358397
1629795362910,57144,281777,358429
1629795362920,57129,281790,358416
1629795362930,57109,281716,358395
1629795362940,57085,281629,358374
1629795362950,57054,281691,358415
1629795362960,57037,281678,358383
1629795362970,57008,281648,358388
1629795362980,56988,281625,358354
1629795362990,56971,281615,358316
1629795363000,56956,281594,358349
1629795363010,56935,281605,358342
1629795363020,56917,281609,358326
1629795363030,56905,281598,358310
1629795363040,56901,281608,358305
1629795363050,56883,281633,358321
1629795363060,56871,281584,358294
1629795363070,56873,281642,358347
1629795363080,56859,281570,358354
1629795363090,56866,281571,358302
1629795363100,56852,281562,358313
1629795363110,56856,281549,358310
1629795363120,56855,281601,358364
1629795363130,56868,281620,358345
1629795363140,56867,281577,358338
1629795363150,56878,281603,358349
1629795363160,56882,281600,358327
1629795363170,56891,281607,358347
1629795363180,56905,281599,358311
1629795363190,56911,281627,358332
1629795363200,56908,281614,358332
1629795363210,56924,281623,358334
1629795363220,56919,281597,358333
1629795363230,56922,281599,358313
1629795363240,56931,281613,358350
1629795363250,56932,281554,358327
1629795363260,56942,281615,358310
1629795363270,56943,281596,358356
1629795363280,56961,281634,358298
1629795363290,56975,281639,358321
1629795363300,56988,281647,358330
1629795363310,57008,281616,358373
1629795363320,57007,281630,358343
1629795363330,57028,281630,358364
1629795363340,57050,281648,358337
1629795363350,57074,281657,358342
1629795363360,57079,281651,358333
1629795363370,57110,281600,358377
1629795363380,57125,281663,358372
1629795363390,57137,281660,358389
1629795363400,57161,281691,358352
1629795363410,57190,281683,358377
1629795363420,57208,281685,358366
1629795363430,57239,281709,358395
1629795363440,57265,281691,358401
1629795363450,57275,281738,358389
1629795363460,57307,281735,358406
1629795363470,57327,281729,358425
1629795363480,57356,281744,358398
1629795363490,57386,281769,358412
1629795363500,57414,281756,358455
1629795363510,57431,281793,358433
1629795363520,57463,281772,358424
1629795363530,57488,281830,358443
1629795363540,57504,281815,358463
1629795363550,57524,281809,358480
1629795363560,57554,281828,358446
1629795363570,57593,281833,358439
1629795363580,57612,281854,358488
1629795363590,57634,281834,358515
1629795363600,57666,281846,358518
1629795363610,57695,281826,358497
1629795363620,57721,281848,358497
1629795363630,57720,281847,358552
1629795363640,57732,281846,358513
1629795363650,57719,281799,358537
1629795363660,57691,281835,358537
1629795363670,57675,281806,358469
1629795363680,57648,281792,358491
1629795363690,57615,281734,358452
1629795363700,57583,281773,358475
1629795363710,57543,281726,358444
1629795363720,57512,281711,358413
1629795363730,57481,281682,358405
1629795363740,57450,281705,358413
1629795363750,57429,281681,358398
1629795363760,57397,281670,358396
1629795363770,57394,281650,358389
1629795363780,57357,281655,358408
1629795363790,57333,281659,358441
1629795363800,57301,281627,358388
1629795363810,57285,281587,358408
1629795363820,57260,281592,358378
1629795363830,57252,281616,358350
1629795363840,57225,281589,358364
1629795363850,57210,281586,358389
1629795363860,57196,281642,358343
1629795363870,57182,281560,358371
1629795363880,57171,281619,358349
1629795363890,57163,281606,358369
1629795363900,57155,281600,358327
1629795363910,57154,281542,358350
1629795363920,57149,281557,358338
1629795363930,57145,281579,358342
1629795363940,57132,281582,358339
1629795363950,57127,281554,358344
1629795363960,57120,281566,358357
1629795363970,57113,281596,358345
1629795363980,57104,281542,358307
1629795363990,57104,281575,358341
1629795364000,57091,281553,358364
1629795364010,57097,281552,358351
1629795364020,57088,281562,358308
1629795364030,57098,281570,358305
1629795364040,57099,281524,358357
1629795364050,57106,281592,358342
1629795364060,57115,281560,358341
1629795364070,57121,281552,358321
1629795364080,57131,281604,358313
1629795364090,57132,281616,358339
1629795364100,57149,281627,358355
1629795364110,57149,281603,358349
1629795364120,57169,281626,358348
1629795364130,57185,281624,358358
1629795364140,57207,281625,358373
1629795364150,57212,281592,358343
1629795364160,57239,281617,358359
1629795364170,57260,281643,358316
1629795364180,57267,281665,358363
1629795364190,57284,281589,358349
1629795364200,57304,281670,358362
1629795364210,57337,281686,358424
1629795364220,57351,281693,358373
1629795364230,57371,281663,358393
1629795364240,57392,281681,358421
1629795364250,57420,281721,358372
1629795364260,57432,281699,358429
1629795364270,57451,281698,358416
1629795364280,57480,281684,358426
1629795364290,57495,281720,358388
1629795364300,57524,281689,358432
1629795364310,57550,281751,358399
1629795364320,57564,281708,358389
1629795364330,57585,281755,358441
1629795364340,57615,281753,358410
1629795364350,57629,281770,358456
1629795364360,57665,281780,358467
1629795364370,57683,281801,358424
1629795364380,57700,281756,358419
1629795364390,57708,281772,358458
1629795364400,57696,281751,358384
1629795364410,57675,281747,358431
1629795364420,57646,281703,358392
1629795364430,57615,281719,358449
1629795364440,57570,281708,358418
1629795364450,57534,281651,358391
1629795364460,57488,281613,358358
1629795364470,57442,281630,358306
1629795364480,57389,281577,358407
1629795364490,57356,281591,358360
1629795364500,57319,281529,358375
1629795364510,57279,281564,358325
1629795364520,57234,281541,358306
1629795364530,57196,281515,358326
1629795364540,57152,281526,358302
1629795364550,57120,281516,358331
1629795364560,57090,281488,358298
1629795364570,57044,281475,358291
1629795364580,57005,281487,358249
1629795364590,56971,281451,358246
1629795364600,56936,281457,358223
1629795364610,56902,281437,358247
1629795364620,56873,281429,358235
1629795364630,56856,281392,358254
1629795364640,56839,281406,358209
1629795364650,56818,281435,358222
1629795364660,56803,281417,358239
1629795364670,56795,281380,358242
1629795364680,56780,281439,358210
1629795364690,56764,281409,358213
1629795364700,56753,281387,358213
1629795364710,56738,281432,358223
1629795364720,56732,281370,358228
1629795364730,56705,281402,358236
1629795364740,56700,281378,358192
1629795364750,56692,281383,358185
1629795364760,56677,281354,358159
1629795364770,56673,281367,358195
1629795364780,56666,281418,358190
1629795364790,56656,281386,358187
1629795364800,56663,281358,358203
1629795364810,56656,281367,358200
1629795364820,56647,281370,358195
1629795364830,56652,281399,358182
1629795364840,56652,281383,358186
1629795364850,56659,281406,358172
1629795364860,56664,281405,358170
1629795364870,56673,281394,358152
1629795364880,56685,281412,358179
1629795364890,56694,281438,358214
1629795364900,56704,281450,358163
1629795364910,56716,281425,358234
1629795364920,56728,281420,358157
1629795364930,56742,281428,358193
1629795364940,56755,281443,358176
1629795364950,56763,281452,358214
1629795364960,56777,281454,358196
1629795364970,56793,281475,358241
1629795364980,56798,281496,358172
1629795364990,56836,281488,358183
1629795365000,56849,281501,358232
1629795365010,56858,281464,358190
1629795365020,56889,281528,358246
1629795365030,56903,281498,358261
1629795365040,56922,281541,358194
1629795365050,56930,281539,358235
1629795365060,56959,281511,358240
1629795365070,56969,281550,358247
1629795365080,56997,281552,358231
1629795365090,57019,281591,358224
1629795365100,57037,281564,358286
1629795365110,57059,281631,358264
1629795365120,57078,281550,358241
1629795365130,57096,281607,358278
1629795365140,57127,281612,358271
1629795365150,57134,281561,358291
1629795365160,57170,281618,358274
1629795365170,57159,281610,358260
1629795365180,57162,281571,358276
1629795365190,57139,281547,358271
1629795365200,57105,281563,358241
1629795365210,57072,281487,358246
1629795365220,57026,281447,358230
1629795365230,56987,281475,358263
1629795365240,56922,281463,358228
1629795365250,56874,281395,358198
1629795365260,56830,281395,358206
1629795365270,56772,281414,358219
1629795365280,56726,281391,358129
1629795365290,56684,281406,358156
1629795365300,56619,281359,358136
1629795365310,56586,281324,358173
1629795365320,56537,281320,358084
1629795365330,56475,281317,358118
1629795365340,56442,281281,358101
1629795365350,56389,281289,358127
1629795365360,56335,281277,358132
1629795365370,56302,281255,358094
1629795365380,56265,281250,358052
1629795365390,56225,281222,358066
1629795365400,56185,281193,358025
1629795365410,56157,281208,358051
1629795365420,56138,281247,358026
1629795365430,56112,281202,358059
1629795365440,56104,281194,358027
1629795365450,56088,281170,358061
1629795365460,56061,281218,358054
1629795365470,56042,281171,358062
1629795365480,56028,281218,358043
1629795365490,56013,281237,358037
1629795365500,56000,281210,358015
1629795365510,55979,281148,358032
1629795365520,55955,281193,358030
1629795365530,55944,281161,357979
1629795365540,55933,281189,358053
1629795365550,55930,281179,357987
1629795365560,55926,281183,357954
1629795365570,55915,281156,357980
1629795365580,55905,281105,357967
1629795365590,55897,281152,357986
1629795365600,55898,281147,357948
1629795365610,55895,281201,357969
1629795365620,55893,281139,357995
1629795365630,55893,281201,357984
1629795365640,55910,281189,357957
1629795365650,55910,281184,357989
1629795365660,55926,281215,358003
1629795365670,55941,281231,358016
1629795365680,55949,281198,358003
1629795365690,55948,281249,357954
1629795365700,55967,281261,358013
1629795365710,55985,281228,357990
1629795365720,55995,281221,358035
1629795365730,56005,281202,358014
1629795365740,56022,281262,358016
1629795365750,56050,281277,358021
1629795365760,56067,281215,358006
1629795365770,56073,281269,358031
1629795365780,56091,281257,358007
1629795365790,56122,281310,358034
1629795365800,56139,281293,358051
1629795365810,56161,281291,358047
1629795365820,56181,281326,358041
1629795365830,56189,281308,358077
1629795365840,56216,281332,358051
1629795365850,56242,281351,358085
1629795365860,56260,281347,358071
1629795365870,56278,281368,358089
1629795365880,56304,281382,358042
1629795365890,56328,281392,358079
1629795365900,56351,281373,358098
1629795365910,56373,281413,358070
1629795365920,56392,281401,358104
1629795365930,56423,281414,358151
1629795365940,56454,281444,358103
1629795365950,56468,281423,358123
1629795365960,56493,281444,358122
1629795365970,56513,281495,358090
1629795365980,56549,281506,358143
1629795365990,56573,281441,358106
1629795366000,56595,281485,358197
1629795366010,56621,281512,358169
1629795366020,56648,281540,358185
1629795366030,56655,281497,358166
1629795366040,56648,281545,358150
1629795366050,56638,281479,358167
1629795366060,56595,281486,358166
1629795366070,56558,281439,358113
1629795366080,56509,281411,358115
1629795366090,56463,281386,358125
1629795366100,56411,281385,358091
1629795366110,56363,281329,358076
1629795366120,56306,281336,358088
1629795366130,56254,281307,358120
1629795366140,56217,281331,358112
1629795366150,56166,281282,358091
1629795366160,56111,281301,358004
1629795366170,56074,281306,358056
1629795366180,56035,281244,358045
1629795366190,55977,281262,358036
1629795366200,55938,281247,358010
1629795366210,55888,281231,358019
1629795366220,55841,281209,357975
1629795366230,55811,281197,357956
1629795366240,55768,281235,357999
1629795366250,55737,281179,358001
1629795366260,55705,281225,357999
1629795366270,55669,281180,357944
1629795366280,55665,281163,357948
1629795366290,55641,281198,357944
1629795366300,55625,281176,357953
1629795366310,55605,281163,357950
1629795366320,55600,281175,357951
1629795366330,55584,281169,357954
1629795366340,55557,281157,357921
1629795366350,55546,281151,357952
1629795366360,55519,281142,357929
1629795366370,55512,281120,357940
1629795366380,55503,281156,357924
1629795366390,55491,281127,357919
1629795366400,55482,281164,357904
1629795366410,55467,281150,357918
1629795366420,55462,281156,357933
1629795366430,55456,281156,357978
1629795366440,55445,281142,357967
1629795366450,55448,281151,357960
1629795366460,55442,281153,357936
1629795366470,55459,281176,357946
1629795366480,55462,281142,357945
1629795366490,55469,281162,357984
1629795366500,55475,281191,357952
1629795366510,55486,281180,358005
1629795366520,55494,281165,357959
1629795366530,55511,281159,358004
1629795366540,55511,281198,357998
1629795366550,55525,281172,357995
1629795366560,55541,281246,357974
1629795366570,55542,281248,357982
1629795366580,55566,281246,357962
1629795366590,55578,281261,357998
1629795366600,55581,281281,357960
1629795366610,55610,281267,357990
1629795366620,55623,281289,358061
1629795366630,55638,281276,357970
1629795366640,55663,281286,358014
1629795366650,55680,281291,358026
1629795366660,55704,281262,358037
1629795366670,55733,281281,358000
1629795366680,55742,281319,358051
1629795366690,55768,281342,358046
1629795366700,55790,281342,358035
1629795366710,55801,281309,358019
1629795366720,55826,281324,358050
1629795366730,55851,281359,358056
1629795366740,55868,281336,358094
1629795366750,55900,281361,358065
1629795366760,55919,281363,358084
1629795366770,55941,281406,358052
1629795366780,55957,281347,358076
1629795366790,55977,281431,358072
1629795366800,56009,281429,358077
1629795366810,56029,281439,358109
1629795366820,56049,281466,358101
1629795366830,56073,281411,358089
1629795366840,56096,281441,358153
1629795366850,56130,281438,358153
1629795366860,56152,281453,358169
1629795366870,56174,281448,358154
1629795366880,56204,281445,358186
1629795366890,56224,281486,358164
1629795366900,56254,281493,358133
1629795366910,56270,281479,358201
1629795366920,56285,281488,358140
1629795366930,56268,281468,358165
1629795366940,56263,281463,358163
1629795366950,56228,281441,358165
1629795366960,56184,281432,358185
1629795366970,56150,281373,358170
1629795366980,56095,281402,358133
1629795366990,56040,281381,358094
1629795367000,55989,281342,358119
1629795367010,55934,281324,358114
1629795367020,55890,281290,358078
1629795367030,55834,281248,358092
1629795367040,55784,281242,358062
1629795367050,55743,281276,358050
1629795367060,55700,281202,358043
1629795367070,55658,281181,358032
1629795367080,55603,281203,358037
1629795367090,55567,281203,358026
1629795367100,55519,281163,358013
1629795367110,55481,281185,358012
1629795367120,55437,281169,357965
1629795367130,55399,281206,357977
1629795367140,55362,281161,357998
1629795367150,55335,281133,357968
1629795367160,55316,281125,357975
1629795367170,55297,281109,357985
1629795367180,55266,281120,357989
1629795367190,55264,281113,357986
1629795367200,55229,281156,357978
1629795367210,55225,281120,357995
1629795367220,55204,281156,357911
1629795367230,55189,281091,357957
1629795367240,55169,281131,357956
1629795367250,55145,281105,357947
1629795367260,55135,281085,357950
1629795367270,55125,281084,357949
1629795367280,55113,281105,357935
1629795367290,55100,281078,357959
1629795367300,55091,281065,357945
1629795367310,55074,281136,357954
1629795367320,55069,281085,357947
1629795367330,55070,281109,357932
1629795367340,55073,281103,357953
1629795367350,55070,281101,357947
1629795367360,55078,281058,357980
1629795367370,55082,281087,357934
1629795367380,55085,281118,357963
1629795367390,55096,281173,357933
1629795367400,55102,281137,357917
1629795367410,55106,281128,357976
1629795367420,55118,281140,357989
1629795367430,55133,281175,357987
1629795367440,55158,281150,358017
1629795367450,55168,281165,357968
1629795367460,55179,281176,357992
1629795367470,55197,281179,357995
1629795367480,55224,281193,358026
1629795367490,55231,281202,357982
1629795367500,55253,281201,357997
1629795367510,55270,281226,358023
1629795367520,55289,281200,358041
1629795367530,55311,281246,357994
1629795367540,55331,281242,358062
1629795367550,55351,281256,358064
1629795367560,55363,281229,358084
1629795367570,55393,281226,358057
1629795367580,55419,281269,358056
1629795367590,55440,281305,358082
1629795367600,55465,281289,358035
1629795367610,55483,281307,358086
1629795367620,55517,281336,358096
1629795367630,55533,281322,358093
1629795367640,55560,281314,358110
1629795367650,55583,281350,358100
1629795367660,55605,281364,358094
1629795367670,55634,281346,358085
1629795367680,55661,281377,358139
1629795367690,55685,281356,358121
1629795367700,55724,281397,358126
1629795367710,55743,281387,358193
1629795367720,55773,281431,358164
1629795367730,55812,281422,358159
1629795367740,55843,281473,358129
1629795367750,55864,281484,358154
1629795367760,55903,281429,358174
1629795367770,55943,281468,358171
1629795367780,55967,281456,358168
1629795367790,55990,281488,358190
1629795367800,55998,281449,358179
1629795367810,55993,281488,358215
1629795367820,55983,281472,358190
1629795367830,55959,281445,358191
1629795367840,55927,281447,358189
1629795367850,55878,281449,358130
1629795367860,55841,281425,358165
1629795367870,55798,281400,358102
1629795367880,55755,281357,358161
1629795367890,55713,281362,358126
1629795367900,55679,281313,358136
1629795367910,55640,281324,358076
1629795367920,55613,281337,358141
1629795367930,55568,281287,358121
1629795367940,55530,281306,358085
1629795367950,55495,281273,358064
1629795367960,55466,281283,358068
1629795367970,55423,281250,358090
1629795367980,55398,281273,358079
1629795367990,55375,281247,358078
1629795368000,55340,281269,358059
1629795368010,55317,281208,358059
1629795368020,55301,281232,358089
1629795368030,55277,281247,358061
1629795368040,55266,281218,358049
1629795368050,55244,281184,358024
1629795368060,55253,281227,358043
1629795368070,55232,281191,358060
1629795368080,55215,281226,358102
1629795368090,55219,281280,358046
1629795368100,55206,281205,358044
1629795368110,55192,281173,358081
1629795368120,55181,281228,358008
1629795368130,55187,281234,358064
1629795368140,55171,281208,358077
1629795368150,55161,281226,358032
1629795368160,55157,281251,358039
1629795368170,55159,281227,358026
1629795368180,55148,281221,358035
1629795368190,55153,281228,358040
1629795368200,55156,281217,358036
1629795368210,55156,281221,358053
1629795368220,55166,281203,358004
1629795368230,55170,281248,358055
1629795368240,55181,281262,358020
1629795368250,55188,281240,358033
1629795368260,55202,281251,358038
1629795368270,55212,281274,358059
1629795368280,55234,281315,358048
1629795368290,55252,281283,358098
1629795368300,55264,281298,358025
1629795368310,55283,281254,358121
1629795368320,55303,281301,358125
1629795368330,55319,281320,358077
1629795368340,55348,281312,358062
1629795368350,55369,281363,358121
1629795368360,55394,281345,358100
1629795368370,55418,281350,358119
1629795368380,55448,281348,358116
1629795368390,55464,281339,358129
1629795368400,55498,281387,358113
1629795368410,55521,281348,358137
1629795368420,55556,281361,358164
1629795368430,55587,281407,358139
1629795368440,55613,281410,358140
1629795368450,55629,281423,358151
1629795368460,55671,281386,358152
1629795368470,55694,281434,358179
1629795368480,55725,281432,358179
1629795368490,55750,281419,358179
1629795368500,55785,281434,358190
1629795368510,55824,281411,358165
1629795368520,55840,281468,358234
1629795368530,55870,281469,358265
1629795368540,55905,281464,358231
1629795368550,55936,281486,358253
1629795368560,55964,281499,358218
1629795368570,55997,281504,358261
1629795368580,56022,281541,358201
1629795368590,56058,281552,358280
1629795368600,56094,281542,358283
1629795368610,56140,281527,358257
1629795368620,56169,281597,358312
1629795368630,56196,281587,358301
1629795368640,56212,281599,358298
1629795368650,56228,281599,358299
1629795368660,56227,281603,358293
1629795368670,56214,281562,358317
1629795368680,56194,281584,358286
1629795368690,56175,281561,358264
1629795368700,56141,281543,358251
1629795368710,56102,281508,358270
1629795368720,56077,281485,358250
1629795368730,56031,281466,358250
1629795368740,56004,281454,358249
1629795368750,55978,281472,358236
1629795368760,55942,281424,358212
1629795368770,55914,281466,358243
1629795368780,55885,281466,358219
1629795368790,55859,281458,358216
1629795368800,55845,281435,358253
1629795368810,55820,281429,358195
1629795368820,55793,281411,358249
1629795368830,55776,281421,358221
1629795368840,55752,281381,358188
1629795368850,55739,281403,358204
1629795368860,55715,281422,358178
1629795368870,55705,281409,358231
1629795368880,55681,281403,358158
1629795368890,55683,281389,358113
1629795368900,55689,281408,358176
1629795368910,55679,281423,358189
1629795368920,55683,281418,358184
1629795368930,55669,281408,358197
1629795368940,55673,281419,358174
1629795368950,55675,281417,358196
1629795368960,55671,281416,358192
1629795368970,55670,281419,358195
1629795368980,55676,281413,358209
1629795368990,55665,281426,358211
1629795369000,55670,281429,358223
1629795369010,55670,281427,358251
1629795369020,55673,281459,358193
1629795369030,55677,281417,358197
1629795369040,55683,281416,358144
1629795369050,55693,281413,358221
1629795369060,55693,281424,358239
1629795369070,55711,281419,358230
1629795369080,55729,281429,358198
1629795369090,55743,281487,358245
1629795369100,55753,281456,358273
1629795369110,55766,281477,358228
1629795369120,55782,281527,358239
1629795369130,55805,281515,358248
1629795369140,55814,281484,358224
1629795369150,55840,281518,358239
1629795369160,55857,281511,358293
1629795369170,55882,281541,358270
1629795369180,55902,281544,358247
1629795369190,55920,281560,358296
1629795369200,55938,281559,358305
1629795369210,55963,281552,358315
1629795369220,56002,281605,358283
1629795369230,56019,281604,358297
1629795369240,56050,281568,358347
1629795369250,56079,281592,358308
1629795369260,56095,281588,358315
1629795369270,56126,281670,358365
1629795369280,56149,281638,358345
1629795369290,56183,281632,358336
1629795369300,56212,281695,358345
1629795369310,56242,281664,358356
1629795369320,56263,281635,358336
1629795369330,56293,281673,358354
1629795369340,56323,281715,358381
1629795369350,56350,281730,358410
1629795369360,56392,281699,358422
1629795369370,56418,281730,358410
1629795369380,56443,281717,358408
1629795369390,56477,281754,358407
1629795369400,56502,281778,358427
1629795369410,56541,281731,358422
1629795369420,56565,281790,358446
1629795369430,56599,281809,358473
1629795369440,56612,281746,358424
1629795369450,56621,281741,358487
1629795369460,56607,281748,358397
1629795369470,56599,281727,358438
1629795369480,56579,281749,358433
1629795369490,56554,281703,358405
1629795369500,56531,281732,358401
1629795369510,56487,281722,358412
1629795369520,56462,281682,358370
1629795369530,56445,281675,358382
1629795369540,56417,281664,358418
1629795369550,56407,281662,358356
1629795369560,56381,281676,358398
1629795369570,56363,281672,358430
1629795369580,56351,281641,358408
1629795369590,56327,281672,358379
1629795369600,56314,281627,358364
1629795369610,56292,281626,358375
1629795369620,56281,281622,358395
1629795369630,56273,281675,358363
1629795369640,56260,281677,358369
1629795369650,56250,281649,358349
1629795369660,56246,281643,358389
1629795369670,56238,281654,358396
1629795369680,56246,281652,358383
1629795369690,56257,281627,358399
1629795369700,56264,281628,358399
1629795369710,56259,281630,358429
1629795369720,56269,281662,358400
1629795369730,56271,281693,358383
1629795369740,56275,281655,358375
1629795369750,56267,281680,358362
1629795369760,56270,281652,358415
1629795369770,56280,281632,358337
1629795369780,56270,281656,358412
1629795369790,56283,281651,358419
1629795369800,56293,281693,358376
1629795369810,56294,281655,358336
1629795369820,56299,281675,358363
1629795369830,56314,281644,358402
1629795369840,56325,281697,358409
1629795369850,56341,281727,358403
1629795369860,56348,281709,358363
1629795369870,56362,281705,358370
1629795369880,56371,281712,358377
1629795369890,56388,281739,358409
1629795369900,56415,281705,358420
1629795369910,56438,281714,358379
1629795369920,56455,281765,358393
1629795369930,56465,281758,358414
1629795369940,56481,281735,358420
1629795369950,56512,281756,358441
1629795369960,56523,281774,358434
1629795369970,56552,281817,358449
1629795369980,56577,281781,358419
1629795369990,56615,281809,358442
1629795370000,56620,281801,358455
1629795370010,56649,281850,358464
1629795370020,56669,281833,358482
1629795370030,56699,281830,358515
1629795370040,56729,281865,358540
1629795370050,56754,281835,358493
1629795370060,56793,281857,358544
1629795370070,56816,281901,358528
1629795370080,56838,281874,358485
1629795370090,56869,281895,358551
1629795370100,56893,281915,358520
1629795370110,56923,281900,358540
1629795370120,56953,281949,358550
1629795370130,56986,281961,358588
1629795370140,57012,281933,358539
1629795370150,57042,281932,358601
1629795370160,57066,281991,358552
1629795370170,57097,282010,358568
1629795370180,57141,282002,358562
1629795370190,57144,282021,358601
1629795370200,57148,281988,358578
1629795370210,57158,281986,358571
1629795370220,57154,281935,358595
1629795370230,57141,281932,358551
1629795370240,57120,281891,358568
1629795370250,57088,281925,358559
1629795370260,57048,281927,358560
1629795370270,57016,281837,358562
1629795370280,56987,281846,358518
1629795370290,56964,281883,358525
1629795370300,56935,281866,358478
1629795370310,56917,281866,358525
1629795370320,56892,281820,358521
1629795370330,56867,281786,358511
1629795370340,56843,281816,358488
1629795370350,56829,281805,358514
1629795370360,56804,281836,358494
1629795370370,56788,281764,358480
1629795370380,56769,281762,358494
1629795370390,56755,281833,358454
1629795370400,56736,281822,358445
1629795370410,56733,281761,358481
1629795370420,56732,281806,358470
1629795370430,56723,281780,358490
1629795370440,56720,281775,358499
1629795370450,56714,281795,358504
1629795370460,56717,281797,358489
1629795370470,56721,281794,358466
1629795370480,56718,281780,358492
1629795370490,56723,281843,358430
1629795370500,56724,281840,358458
1629795370510,56718,281814,358492
1629795370520,56723,281781,358520
1629795370530,56714,281772,358510
1629795370540,56714,281791,358455
1629795370550,56715,281836,358469
1629795370560,56721,281797,358486
1629795370570,56725,281795,358454
1629795370580,56735,281846,358486
1629795370590,56729,281834,358467
1629795370600,56748,281791,358505
1629795370610,56763,281811,358513
1629795370620,56763,281815,358495
1629795370630,56777,281849,358536
1629795370640,56788,281833,358508
1629795370650,56809,281834,358496
1629795370660,56817,281846,358502
1629795370670,56832,281838,358523
1629795370680,56852,281882,358504
1629795370690,56865,281840,358492
1629795370700,56884,281849,358521
1629795370710,56902,281823,358492
1629795370720,56922,281901,358545
1629795370730,56942,281891,358526
1629795370740,56962,281905,358534
1629795370750,56989,281903,358545
1629795370760,57009,281896,358495
1629795370770,57031,281937,358543
1629795370780,57056,281925,358598
1629795370790,57076,281928,358551
1629795370800,57096,281950,358549
1629795370810,57137,281965,358586
1629795370820,57144,281993,358556
1629795370830,57178,281964,358553
1629795370840,57194,281984,358598
1629795370850,57218,282015,358586
1629795370860,57242,281996,358599
1629795370870,57270,281989,358602
1629795370880,57301,282029,358565
1629795370890,57320,282035,358615
1629795370900,57349,282025,358643
1629795370910,57384,282087,358584
1629795370920,57412,282083,358625
1629795370930,57421,282036,358614
1629795370940,57428,282051,358632
1629795370950,57425,282039,358622
1629795370960,57422,282015,358601
1629795370970,57390,281971,358610
1629795370980,57363,282013,358587
1629795370990,57323,282002,358579
1629795371000,57273,281929,358562
1629795371010,57248,281900,358548
1629795371020,57210,281946,358559
1629795371030,57176,281867,358560
1629795371040,57145,281880,358529
1629795371050,57106,281869,358496
1629795371060,57068,281879,358527
1629795371070,57046,281839,358479
1629795371080,57014,281841,358508
1629795371090,56977,281868,358492
1629795371100,56950,281820,358508
1629795371110,56928,281781,358487
1629795371120,56897,281788,358510
1629795371130,56872,281814,358503
1629795371140,56854,281788,358451
1629795371150,56825,281801,358455
1629795371160,56804,281754,358432
1629795371170,56780,281776,358473
1629795371180,56769,281765,358433
1629795371190,56760,281729,358456
1629795371200,56745,281786,358455
1629795371210,56752,281761,358428
1629795371220,56737,281771,358425
1629795371230,56739,281728,358441
1629795371240,56718,281737,358443
1629795371250,56718,281751,358449
1629795371260,56717,281747,358422
1629795371270,56712,281828,358428
1629795371280,56707,281786,358459
1629795371290,56700,281804,358452
1629795371300,56693,281760,358473
1629795371310,56694,281816,358460
1629795371320,56697,281777,358415
1629795371330,56686,281740,358435
1629795371340,56701,281791,358457
1629795371350,56704,281794,358447
1629795371360,56707,281755,358485
1629795371370,56720,281781,358424
1629795371380,56728,281751,358487
1629795371390,56734,281771,358467
1629795371400,56754,281821,358437
1629795371410,56753,281797,358467
1629795371420,56776,281816,358394
1629795371430,56794,281823,358450
1629795371440,56802,281828,358457
1629795371450,56820,281831,358443
1629795371460,56860,281828,358489
1629795371470,56862,281853,358449
1629795371480,56885,281847,358480
1629795371490,56889,281864,358441
1629795371500,56910,281875,358467
1629795371510,56936,281899,358510
1629795371520,56949,281874,358481
1629795371530,56970,281907,358476
1629795371540,56989,281860,358521
1629795371550,57014,281942,358547
1629795371560,57032,281945,358477
1629795371570,57060,281945,358499
1629795371580,57078,281925,358501
1629795371590,57100,281901,358526
1629795371600,57125,281940,358506
1629795371610,57143,281966,358506
1629795371620,57184,282010,358556
1629795371630,57197,281996,358553
1629795371640,57214,281988,358561
1629795371650,57256,281975,358555
1629795371660,57282,281969,358578
1629795371670,57303,282014,358569
1629795371680,57324,282028,358583
1629795371690,57327,282005,358566
1629795371700,57342,282006,358582
1629795371710,57333,281979,358536
1629795371720,57301,281982,358535
1629795371730,57268,281953,358520
1629795371740,57236,281973,358522
1629795371750,57195,281876,358494
1629795371760,57160,281877,358520
1629795371770,57118,281872,358482
1629795371780,57080,281816,358490
1629795371790,57023,281852,358464
1629795371800,56993,281802,358422
1629795371810,56952,281823,358476
1629795371820,56910,281810,358411
1629795371830,56859,281742,358418
1629795371840,56822,281792,358446
1629795371850,56784,281752,358392
1629795371860,56739,281708,358385
1629795371870,56697,281722,358363
1629795371880,56669,281677,358394
1629795371890,56630,281685,358373
1629795371900,56604,281702,358366
1629795371910,56555,281659,358346
1629795371920,56529,281674,358318
1629795371930,56507,281677,358341
1629795371940,56489,281641,358367
1629795371950,56486,281649,358380
1629795371960,56464,281650,358331
1629795371970,56457,281688,358354
1629795371980,56445,281640,358326
1629795371990,56433,281677,358337
1629795372000,56418,281683,358329
1629795372010,56412,281693,358349
1629795372020,56398,281598,358323
1629795372030,56387,281680,358330
1629795372040,56370,281638,358342
1629795372050,56370,281655,358359
1629795372060,56358,281605,358322
1629795372070,56347,281652,358290
1629795372080,56346,281638,358282
1629795372090,56345,281636,358356
1629795372100,56349,281634,358314
1629795372110,56354,281659,358284
1629795372120,56346,281652,358298
1629795372130,56358,281661,358296
1629795372140,56363,281712,358307
1629795372150,56362,281681,358308
1629795372160,56374,281673,358262
1629795372170,56380,281684,358295
1629795372180,56394,281666,358317
1629795372190,56417,281669,358318
1629795372200,56419,281670,358325
1629795372210,56434,281667,358346
1629795372220,56442,281748,358340
1629795372230,56458,281691,358316
1629795372240,56484,281720,358342
1629795372250,56496,281687,358335
1629795372260,56518,281711,358337
1629795372270,56544,281733,358348
1629795372280,56550,281707,358341
1629795372290,56579,281767,358365
1629795372300,56604,281745,358349
1629795372310,56613,281757,358351
1629795372320,56632,281736,358358
1629795372330,56652,281784,358376
1629795372340,56680,281809,358394
1629795372350,56702,281804,358399
1629795372360,56719,281803,358379
1629795372370,56751,281830,358447
1629795372380,56762,281834,358385
1629795372390,56792,281833,358407
1629795372400,56822,281858,358405
1629795372410,56842,281841,358402
1629795372420,56865,281838,358403
1629795372430,56892,281838,358403
1629795372440,56907,281864,358421
1629795372450,56927,281872,358437
1629795372460,56925,281855,358441
1629795372470,56918,281842,358424
1629795372480,56911,281818,358394
1629795372490,56888,281824,358423
1629795372500,56850,281775,358382
1629795372510,56809,281747,358380
1629795372520,56764,281723,358362
1629795372530,56709,281680,358350
1629795372540,56663,281711,358317
1629795372550,56619,281661,358346
1629795372560,56569,281686,358290
1629795372570,56529,281635,358330
1629795372580,56487,281644,358344
1629795372590,56448,281616,358269
1629795372600,56403,281616,358286
1629795372610,56351,281583,358334
1629795372620,56309,281607,358268
1629795372630,56259,281572,358312
1629795372640,56216,281513,358243
1629795372650,56182,281535,358227
1629795372660,56136,281532,358214
1629795372670,56102,281483,358251
1629795372680,56055,281513,358226
1629795372690,56028,281477,358254
1629795372700,56005,281491,358214
1629795372710,55982,281515,358213
1629795372720,55974,281482,358235
1629795372730,55953,281451,358206
1629795372740,55937,281485,358173
1629795372750,55924,281480,358211
1629795372760,55918,281469,358194
1629795372770,55897,281467,358200
1629795372780,55889,281442,358191
1629795372790,55884,281449,358210
1629795372800,55866,281472,358174
1629795372810,55849,281432,358157
1629795372820,55839,281446,358195
1629795372830,55833,281456,358170
1629795372840,55832,281432,358180
1629795372850,55820,281423,358172
1629795372860,55815,281422,358150
1629795372870,55834,281469,358148
1629795372880,55825,281457,358156
1629795372890,55831,281451,358164
1629795372900,55829,281459,358160
1629795372910,55840,281456,358207
1629795372920,55841,281483,358177
1629795372930,55862,281453,358176
1629795372940,55882,281452,358167
1629795372950,55882,281506,358214
1629795372960,55901,281466,358185
1629795372970,55907,281537,358224
1629795372980,55925,281570,358207
1629795372990,55933,281524,358242
1629795373000,55950,281526,358238
1629795373010,55975,281532,358222
1629795373020,55989,281528,358227
1629795373030,56010,281524,358225
1629795373040,56030,281574,358225
1629795373050,56046,281578,358268
1629795373060,56079,281571,358263
1629795373070,56100,281572,358197
1629795373080,56113,281547,358236
1629795373090,56137,281574,358285
1629795373100,56152,281562,358276
1629795373110,56187,281604,358271
1629795373120,56205,281597,358287
1629795373130,56234,281641,358256
1629795373140,56258,281653,358276
1629795373150,56288,281668,358274
1629795373160,56307,281650,358299
1629795373170,56339,281640,358306
1629795373180,56366,281662,358285
1629795373190,56397,281661,358293
1629795373200,56422,281691,358305
1629795373210,56455,281731,358320
1629795373220,56478,281700,358352
1629795373230,56502,281720,358295
1629795373240,56520,281719,358349
1629795373250,56510,281707,358315
1629795373260,56493,281625,358322
1629795373270,56470,281613,358317
1629795373280,56431,281615,358320
1629795373290,56397,281611,358332
1629795373300,56361,281595,358272
1629795373310,56307,281572,358272
1629795373320,56267,281567,358265
1629795373330,56223,281501,358279
1629795373340,56181,281492,358228
1629795373350,56139,281513,358231
1629795373360,56107,281491,358179
1629795373370,56056,281463,358210
1629795373380,56023,281452,358181
1629795373390,55984,281446,358214
1629795373400,55948,281412,358187
1629795373410,55902,281412,358180
1629795373420,55862,281382,358194
1629795373430,55831,281366,358187
1629795373440,55801,281380,358168
1629795373450,55765,281327,358168
1629795373460,55742,281404,358152
1629795373470,55727,281355,358144
1629795373480,55700,281338,358162
1629795373490,55682,281388,358106
1629795373500,55675,281337,358126
1629795373510,55660,281344,358131
1629795373520,55652,281354,358127
1629795373530,55643,281346,358154
1629795373540,55635,281325,358116
1629795373550,55626,281300,358145
1629795373560,55622,281345,358132
1629795373570,55612,281279,358092
1629795373580,55600,281335,358133
1629795373590,55582,281344,358091
1629795373600,55591,281301,358075
1629795373610,55587,281299,358095
1629795373620,55574,281325,358116
1629795373630,55578,281338,358072
1629795373640,55581,281285,358108
1629795373650,55588,281347,358109
1629795373660,55600,281326,358152
1629795373670,55597,281314,358136
1629795373680,55613,281339,358063
1629795373690,55621,281317,358106
1629795373700,55632,281302,358130
1629795373710,55645,281352,358136
1629795373720,55653,281329,358136
1629795373730,55676,281310,358105
1629795373740,55676,281365,358143
1629795373750,55699,281389,358114
1629795373760,55712,281381,358163
1629795373770,55744,281355,358191
1629795373780,55757,281404,358131
1629795373790,55774,281417,358167
1629795373800,55794,281416,358199
1629795373810,55807,281414,358202
1629795373820,55837,281442,358156
1629795373830,55860,281428,358174
1629795373840,55882,281508,358188
1629795373850,55899,281448,358184
1629795373860,55923,281454,358186
1629795373870,55948,281462,358223
1629795373880,55973,281495,358255
1629795373890,55988,281473,358245
1629795373900,56012,281479,358257
1629795373910,56050,281519,358227
1629795373920,56075,281489,358236
1629795373930,56094,281499,358222
1629795373940,56120,281579,358259
1629795373950,56146,281575,358265
1629795373960,56163,281582,358245
1629795373970,56202,281573,358242
1629795373980,56224,281551,358310
1629795373990,56260,281579,358284
1629795374000,56288,281598,358327
1629795374010,56309,281614,358330
1629795374020,56337,281633,358294
1629795374030,56356,281619,358307
1629795374040,56367,281605,358313
1629795374050,56356,281592,358278
1629795374060,56358,281567,358310
1629795374070,56330,281556,358287
1629795374080,56302,281549,358301
1629795374090,56261,281520,358303
1629795374100,56217,281500,358264
1629795374110,56180,281447,358271
1629795374120,56140,281487,358283
1629795374130,56096,281451,358217
1629795374140,56060,281433,358243
1629795374150,56022,281411,358238
1629795374160,55998,281413,358186
1629795374170,55962,281366,358236
1629795374180,55929,281399,358212
1629795374190,55892,281340,358165
1629795374200,55858,281369,358158
1629795374210,55825,281371,358191
1629795374220,55795,281334,358172
1629795374230,55772,281328,358199
1629795374240,55740,281332,358179
1629795374250,55720,281314,358130
1629795374260,55695,281341,358163
1629795374270,55678,281299,358172
1629795374280,55668,281323,358175
1629795374290,55665,281359,358150
1629795374300,55655,281290,358109
1629795374310,55646,281273,358154
1629795374320,55639,281306,358180
1629795374330,55629,281309,358191
1629795374340,55617,281315,358174
1629795374350,55613,281278,358141
1629795374360,55609,281282,358150
1629795374370,55594,281307,358180
1629795374380,55603,281314,358120
1629795374390,55593,281301,358152
1629795374400,55581,281271,358153
1629795374410,55584,281278,358176
1629795374420,55578,281325,358119
1629795374430,55580,281292,358141
1629795374440,55589,281300,358147
1629795374450,55590,281329,358132
1629795374460,55594,281286,358159
1629795374470,55601,281307,358150
1629795374480,55612,281279,358145
1629795374490,55625,281303,358142
1629795374500,55631,281308,358198
1629795374510,55646,281326,358153
1629795374520,55667,281338,358164
1629795374530,55688,281359,358201
1629795374540,55700,281353,358195
1629795374550,55727,281344,358212
1629795374560,55731,281369,358228
1629795374570,55753,281363,358153
1629795374580,55781,281403,358207
1629795374590,55801,281428,358213
1629795374600,55825,281428,358233
1629795374610,55838,281399,358229
1629795374620,55861,281394,358214
1629795374630,55891,281419,358240
1629795374640,55917,281446,358236
1629795374650,55939,281430,358254
1629795374660,55953,281469,358260
1629795374670,55988,281486,358259
1629795374680,56002,281499,358272
1629795374690,56034,281499,358297
1629795374700,56057,281486,358269
1629795374710,56080,281542,358257
1629795374720,56096,281498,358270
1629795374730,56130,281541,358314
1629795374740,56160,281516,358362
1629795374750,56188,281561,358323
1629795374760,56217,281538,358309
1629795374770,56243,281594,358341
1629795374780,56283,281597,358361
1629795374790,56309,281603,358333
1629795374800,56338,281620,358348
1629795374810,56366,281665,358367
1629795374820,56394,281622,358362
1629795374830,56412,281619,358355
1629795374840,56420,281601,358371
1629795374850,56408,281597,358346
1629795374860,56389,281559,358384
1629795374870,56364,281591,358337
1629795374880,56337,281536,358295
1629795374890,56292,281494,358301
1629795374900,56270,281488,358336
1629795374910,56221,281497,358330
1629795374920,56196,281440,358280
1629795374930,56152,281447,358291
1629795374940,56122,281451,358303
1629795374950,56094,281427,358277
1629795374960,56055,281409,358281
1629795374970,56025,281399,358275
1629795374980,56001,281403,358272
1629795374990,55973,281424,358310
1629795375000,55944,281354,358219
1629795375010,55923,281359,358245
1629795375020,55903,281350,358245
1629795375030,55874,281359,358254
1629795375040,55864,281367,358233
1629795375050,55842,281349,358216
1629795375060,55836,281352,358243
1629795375070,55818,281376,358209
1629795375080,55812,281351,358198
1629795375090,55801,281362,358231
1629795375100,55800,281356,358242
1629795375110,55801,281396,358256
1629795375120,55800,281344,358283
1629795375130,55792,281317,358287
1629795375140,55794,281365,358265
1629795375150,55777,281364,358268
1629795375160,55784,281339,358231
1629795375170,55776,281359,358188
1629795375180,55765,281359,358214
1629795375190,55783,281383,358241
1629795375200,55772,281374,358240
1629795375210,55779,281345,358237
1629795375220,55790,281376,358216
1629795375230,55788,281375,358241
1629795375240,55796,281386,358224
1629795375250,55805,281386,358255
1629795375260,55816,281386,358258
1629795375270,55833,281381,358249
