timestamp,green,ir,red
1629795340006,105024,297197,410690
1629795340016,105018,297184,410664
1629795340026,105033,297195,410624
1629795340036,105054,297199,410655
1629795340046,105061,297176,410676
1629795340056,105070,297204,410630
1629795340066,105067,297147,410661
1629795340076,105067,297203,410632
1629795340086,105066,297142,410627
1629795340096,105067,297109,410611
1629795340106,105060,297156,410606
1629795340116,105038,297094,410614
1629795340126,105040,297086,410621
1629795340136,105032,297099,410638
1629795340146,105043,297134,410655
1629795340156,105043,297107,410601
1629795340166,105041,297118,410653
1629795340176,105030,297108,410630
1629795340186,105017,297111,410624
1629795340196,105022,297089,410614
1629795340206,105030,297116,410644
1629795340216,105012,297132,410639
1629795340226,105024,297052,410640
1629795340236,105030,297036,410679
1629795340246,105019,297127,410656
1629795340256,105016,297125,410659
1629795340266,105038,297112,410670
1629795340276,105035,297143,410662
1629795340286,105039,297091,410645
1629795340296,105044,297133,410641
1629795340306,105027,297111,410647
1629795340316,105051,297108,410620
1629795340326,105053,297126,410688
1629795340336,105073,297135,410685
1629795340346,105070,297151,410713
1629795340356,105077,297143,410701
1629795340366,105086,297180,410709
1629795340376,105086,297139,410698
1629795340386,105103,297108,410693
1629795340396,105106,297140,410771
1629795340406,105114,297122,410697
1629795340416,105121,297167,410793
1629795340426,105126,297129,410764
1629795340436,105148,297177,410782
1629795340446,105161,297199,410747
1629795340456,105150,297215,410743
1629795340466,105175,297224,410785
1629795340476,105188,297216,410772
1629795340486,105188,297186,410793
1629795340496,105197,297181,410805
1629795340506,105220,297207,410794
1629795340516,105229,297138,410772
1629795340526,105242,297224,410784
1629795340536,105247,297198,410816
1629795340546,105271,297257,410842
1629795340556,105268,297218,410828
1629795340566,105294,297227,410848
1629795340576,105307,297241,410837
1629795340586,105327,297236,410839
1629795340596,105339,297268,410855
1629795340606,105356,297259,410819
1629795340616,105369,297262,410895
1629795340626,105381,297256,410865
1629795340636,105397,297308,410899
1629795340646,105417,297299,410859
1629795340656,105436,297310,410941
1629795340666,105439,297328,410910
1629795340676,105462,297336,410909
1629795340686,105475,297310,410890
1629795340696,105500,297361,410943
1629795340706,105504,297338,410921
1629795340716,105521,297349,410948
1629795340726,105529,297351,410955
1629795340736,105553,297394,410968
1629795340746,105577,297344,410947
1629795340756,105604,297361,410982
1629795340766,105597,297390,410952
1629795340776,105625,297348,410956
1629795340786,105614,297427,410997
1629795340796,105636,297417,410985
1629795340806,105665,297367,410962
1629795340816,105663,297388,411023
1629795340826,105682,297373,410970
1629795340836,105672,297408,410960
1629795340846,105668,297340,410987
1629795340856,105682,297373,410994
1629795340866,105671,297339,410987
1629795340876,105675,297362,410989
1629795340886,105663,297311,410998
1629795340896,105670,297339,410997
1629795340906,105666,297342,411019
1629795340916,105667,297371,411036
1629795340926,105663,297385,411063
1629795340936,105671,297340,411083
1629795340946,105676,297361,411083
1629795340956,105679,297345,411027
1629795340966,105670,297375,411042
1629795340976,105663,297348,411064
1629795340986,105646,297355,411080
1629795340996,105668,297327,411089
1629795341006,105673,297334,411084
1629795341016,105659,297352,411062
1629795341026,105665,297344,411110
1629795341036,105676,297367,411072
1629795341046,105675,297347,411088
1629795341056,105665,297393,411123
1629795341066,105673,297392,411097
1629795341076,105689,297413,411079
1629795341086,105679,297333,411129
1629795341096,105697,297388,411133
1629795341106,105703,297400,411146
1629795341116,105696,297380,411123
1629795341126,105715,297393,411106
1629795341136,105708,297379,411132
1629795341146,105715,297417,411176
1629795341156,105726,297418,411141
1629795341166,105729,297379,411201
1629795341176,105748,297444,411186
1629795341186,105751,297395,411224
1629795341196,105744,297436,411219
1629795341206,105762,297433,411202
1629795341216,105764,297476,411167
1629795341226,105777,297434,411209
1629795341236,105789,297442,411209
1629795341246,105778,297472,411186
1629795341256,105811,297474,411225
1629795341266,105818,297434,411242
1629795341276,105819,297461,411243
1629795341286,105825,297484,411230
1629795341296,105826,297485,411207
1629795341306,105867,297510,411261
1629795341316,105854,297548,411224
1629795341326,105866,297534,411222
1629795341336,105876,297557,411225
1629795341346,105888,297536,411252
1629795341356,105899,297540,411286
1629795341366,105907,297556,411240
1629795341376,105923,297549,411260
1629795341386,105940,297540,411245
1629795341396,105941,297569,411275
1629795341406,105962,297545,411297
1629795341416,105983,297632,411290
1629795341426,105987,297629,411292
1629795341436,105990,297549,411326
1629795341446,106007,297568,411297
1629795341456,106012,297614,411287
1629795341466,106028,297595,411288
1629795341476,106034,297596,411310
1629795341486,106049,297632,411300
1629795341496,106074,297659,411288
1629795341506,106078,297605,411294
1629795341516,106089,297628,411302
1629795341526,106089,297623,411261
1629795341536,106109,297620,411310
1629795341546,106107,297615,411294
1629795341556,106123,297623,411215
1629795341566,106131,297578,411207
1629795341576,106121,297600,411166
1629795341586,106118,297542,411215
1629795341596,106120,297536,411179
1629795341606,106113,297488,411143
1629795341616,106106,297455,411171
1629795341626,106078,297425,411149
1629795341636,106065,297455,411118
1629795341646,106051,297451,411071
1629795341656,106040,297385,411036
1629795341666,106027,297400,411041
1629795341676,106006,297358,411009
1629795341686,106009,297370,410995
1629795341696,105990,297375,411015
1629795341706,105989,297378,410989
1629795341716,105975,297316,410958
1629795341726,105946,297284,410940
1629795341736,105955,297306,410950
1629795341746,105929,297293,410979
1629795341756,105928,297318,410946
1629795341766,105922,297324,410921
1629795341776,105917,297298,410943
1629795341786,105898,297339,410934
1629795341796,105907,297292,410917
1629795341806,105891,297303,410947
1629795341816,105901,297307,410967
1629795341826,105884,297316,410922
1629795341836,105884,297275,410918
1629795341846,105882,297288,410892
1629795341856,105883,297311,410889
1629795341866,105883,297315,410919
1629795341876,105892,297307,410955
1629795341886,105879,297280,410922
1629795341896,105883,297326,410934
1629795341906,105890,297295,410911
1629795341916,105891,297318,410934
1629795341926,105886,297304,410908
1629795341936,105887,297272,410957
1629795341946,105880,297285,410917
1629795341956,105880,297319,410891
1629795341966,105885,297345,410902
1629795341976,105876,297310,410943
1629795341986,105874,297269,410922
1629795341996,105883,297278,410874
1629795342006,105886,297276,410876
1629795342016,105887,297281,410871
1629795342026,105888,297268,410821
1629795342036,105874,297243,410839
1629795342046,105874,297264,410783
1629795342056,105896,297240,410773
1629795342066,105897,297252,410804
1629795342076,105897,297228,410809
1629795342086,105903,297241,410787
1629795342096,105909,297219,410777
1629795342106,105906,297246,410804
1629795342116,105938,297273,410773
1629795342126,105938,297250,410794
1629795342136,105943,297256,410814
1629795342146,105948,297247,410784
1629795342156,105957,297290,410739
1629795342166,105971,297293,410798
1629795342176,105983,297306,410744
1629795342186,105979,297260,410773
1629795342196,106017,297253,410765
1629795342206,105991,297253,410753
1629795342216,106009,297238,410769
1629795342226,106022,297259,410729
1629795342236,106036,297242,410737
1629795342246,106043,297265,410736
1629795342256,106044,297276,410726
1629795342266,106057,297309,410738
1629795342276,106073,297288,410749
1629795342286,106068,297310,410751
1629795342296,106088,297335,410741
1629795342306,106099,297314,410750
1629795342316,106108,297313,410729
1629795342326,106111,297298,410704
1629795342336,106116,297261,410720
1629795342346,106128,297253,410770
1629795342356,106124,297250,410734
1629795342366,106116,297244,410687
1629795342376,106107,297243,410656
1629795342386,106091,297192,410701
1629795342396,106065,297193,410690
1629795342406,106084,297159,410598
1629795342416,106055,297130,410613
1629795342426,106042,297127,410603
1629795342436,106041,297105,410581
1629795342446,106016,297128,410577
1629795342456,106008,297116,410616
1629795342466,105998,297062,410510
1629795342476,105985,297051,410602
1629795342486,105961,297065,410513
1629795342496,105971,297074,410501
1629795342506,105935,297009,410496
1629795342516,105922,297023,410489
1629795342526,105925,296972,410514
1629795342536,105911,297022,410487
1629795342546,105900,296979,410474
1629795342556,105890,296945,410422
1629795342566,105883,296952,410420
1629795342576,105850,296933,410445
1629795342586,105854,296961,410401
1629795342596,105842,296969,410395
1629795342606,105830,296948,410410
1629795342616,105841,296980,410398
1629795342626,105825,296970,410382
1629795342636,105820,296906,410350
1629795342646,105803,296961,410367
1629795342656,105808,296953,410379
1629795342666,105796,296927,410309
1629795342676,105787,296925,410361
1629795342686,105796,296897,410343
1629795342696,105785,296937,410332
1629795342706,105779,296888,410318
1629795342716,105776,296949,410323
1629795342726,105780,296964,410286
1629795342736,105775,296921,410345
1629795342746,105776,296914,410342
1629795342756,105769,296951,410344
1629795342766,105768,296956,410318
1629795342776,105773,296945,410330
1629795342786,105774,296924,410339
1629795342796,105777,296986,410329
1629795342806,105787,296944,410324
1629795342816,105777,296977,410354
1629795342826,105781,296988,410366
1629795342836,105790,296984,410388
1629795342846,105793,296991,410352
1629795342856,105798,296994,410324
1629795342866,105788,297018,410357
1629795342876,105804,296999,410401
1629795342886,105812,296978,410378
1629795342896,105819,296984,410396
1629795342906,105825,296971,410386
1629795342916,105835,297039,410430
1629795342926,105832,297034,410403
1629795342936,105861,297022,410407
1629795342946,105859,297031,410401
1629795342956,105872,297033,410424
1629795342966,105890,297029,410414
1629795342976,105885,297062,410409
1629795342986,105897,297028,410411
1629795342996,105900,297061,410408
1629795343006,105906,297096,410402
1629795343016,105910,297067,410412
1629795343026,105932,297081,410445
1629795343036,105950,297093,410423
1629795343046,105951,297106,410399
1629795343056,105955,297137,410391
1629795343066,105975,297104,410434
1629795343076,105977,297144,410476
1629795343086,105999,297132,410448
1629795343096,105990,297155,410499
1629795343106,106005,297182,410504
1629795343116,106003,297168,410434
1629795343126,106026,297123,410468
1629795343136,106031,297161,410475
1629795343146,106027,297123,410430
1629795343156,106029,297085,410404
1629795343166,106038,297087,410390
1629795343176,106017,297113,410391
1629795343186,106014,297074,410376
1629795343196,106019,297049,410390
1629795343206,105998,297092,410384
1629795343216,105965,297032,410389
1629795343226,105971,296999,410319
1629795343236,105943,297002,410322
1629795343246,105939,296969,410275
1629795343256,105927,296982,410310
1629795343266,105906,296973,410326
1629795343276,105897,296962,410335
1629795343286,105894,296962,410313
1629795343296,105881,296927,410326
1629795343306,105864,296929,410271
1629795343316,105849,296916,410301
1629795343326,105830,296925,410271
1629795343336,105828,296940,410263
1629795343346,105789,296876,410295
1629795343356,105795,296953,410268
1629795343366,105770,296884,410235
1629795343376,105750,296898,410253
1629795343386,105760,296940,410251
1629795343396,105747,296900,410251
1629795343406,105731,296902,410251
1629795343416,105726,296896,410261
1629795343426,105710,296872,410194
1629795343436,105711,296844,410267
1629795343446,105713,296872,410275
1629795343456,105707,296864,410243
1629795343466,105680,296881,410247
1629795343476,105690,296882,410248
1629795343486,105688,296873,410286
1629795343496,105683,296877,410247
1629795343506,105687,296883,410232
1629795343516,105689,296886,410219
1629795343526,105678,296941,410231
1629795343536,105670,296875,410239
1629795343546,105662,296911,410249
1629795343556,105658,296930,410263
1629795343566,105663,296932,410238
1629795343576,105658,296933,410267
1629795343586,105652,296914,410252
1629795343596,105651,296948,410283
1629795343606,105660,296914,410270
1629795343616,105662,296927,410293
1629795343626,105657,296923,410277
1629795343636,105660,296980,410241
1629795343646,105665,296931,410314
1629795343656,105665,296901,410277
1629795343666,105669,296913,410305
1629795343676,105684,296946,410283
1629795343686,105675,296935,410252
1629795343696,105672,296992,410250
1629795343706,105702,296978,410308
1629795343716,105706,296973,410301
1629795343726,105700,297006,410319
1629795343736,105710,296984,410308
1629795343746,105734,296982,410333
1629795343756,105720,296999,410358
1629795343766,105742,296991,410358
1629795343776,105742,296987,410330
1629795343786,105735,297035,410307
1629795343796,105753,297023,410330
1629795343806,105766,297036,410301
1629795343816,105771,297032,410358
1629795343826,105767,297034,410382
1629795343836,105778,297058,410338
1629795343846,105793,297054,410351
1629795343856,105794,297040,410393
1629795343866,105811,297079,410381
1629795343876,105812,297062,410395
1629795343886,105829,297041,410396
1629795343896,105832,297098,410352
1629795343906,105844,297073,410356
1629795343916,105862,297086,410454
1629795343926,105858,297086,410407
1629795343936,105869,297123,410455
1629795343946,105883,297136,410410
1629795343956,105892,297169,410418
1629795343966,105900,297128,410396
1629795343976,105906,297117,410394
1629795343986,105904,297108,410364
1629795343996,105923,297105,410396
1629795344006,105901,297140,410389
1629795344016,105909,297049,410402
1629795344026,105889,297041,410412
1629795344036,105896,297066,410391
1629795344046,105859,297074,410356
1629795344056,105850,297030,410411
1629795344066,105831,297069,410371
1629795344076,105815,297023,410373
1629795344086,105807,297006,410346
1629795344096,105786,296975,410329
1629795344106,105779,297004,410377
1629795344116,105767,297042,410321
1629795344126,105749,296984,410391
1629795344136,105749,296975,410336
1629795344146,105705,297000,410354
1629795344156,105688,296979,410338
1629795344166,105698,296964,410373
1629795344176,105668,296938,410350
1629795344186,105668,296958,410341
1629795344196,105648,296951,410344
1629795344206,105616,296944,410356
1629795344216,105626,296980,410349
1629795344226,105614,296952,410333
1629795344236,105606,296973,410347
1629795344246,105589,296963,410371
1629795344256,105584,296941,410324
1629795344266,105575,296941,410350
1629795344276,105571,296963,410357
1629795344286,105550,296925,410371
1629795344296,105552,296984,410345
1629795344306,105545,296938,410326
1629795344316,105527,296972,410362
1629795344326,105528,296950,410349
1629795344336,105524,296941,410369
1629795344346,105519,296949,410341
1629795344356,105505,296953,410348
1629795344366,105505,296947,410375
1629795344376,105505,296926,410401
1629795344386,105493,296927,410376
1629795344396,105509,296928,410388
1629795344406,105502,297001,410402
1629795344416,105485,296982,410439
1629795344426,105485,296976,410403
1629795344436,105488,296999,410447
1629795344446,105507,297026,410425
1629795344456,105497,296995,410394
1629795344466,105504,296983,410409
1629795344476,105508,296993,410397
1629795344486,105494,296996,410402
1629795344496,105488,297028,410415
1629795344506,105515,297045,410442
1629795344516,105496,297019,410429
1629795344526,105507,297031,410459
1629795344536,105510,297032,410451
1629795344546,105511,297060,410428
1629795344556,105519,297031,410406
1629795344566,105526,297021,410435
1629795344576,105525,297086,410480
1629795344586,105545,297092,410434
1629795344596,105547,297086,410487
1629795344606,105551,297078,410510
1629795344616,105562,297087,410514
1629795344626,105569,297065,410501
1629795344636,105554,297060,410504
1629795344646,105589,297123,410522
1629795344656,105594,297154,410510
1629795344666,105587,297104,410545
1629795344676,105605,297129,410506
1629795344686,105622,297150,410522
1629795344696,105621,297168,410530
1629795344706,105631,297157,410515
1629795344716,105646,297181,410542
1629795344726,105652,297199,410557
1629795344736,105655,297182,410521
1629795344746,105659,297193,410508
1629795344756,105678,297195,410518
1629795344766,105687,297157,410538
1629795344776,105693,297203,410524
1629795344786,105724,297181,410598
1629795344796,105725,297207,410571
1629795344806,105723,297177,410603
1629795344816,105739,297225,410622
1629795344826,105753,297249,410590
1629795344836,105767,297235,410606
1629795344846,105776,297238,410592
1629795344856,105773,297233,410608
1629795344866,105798,297195,410530
1629795344876,105785,297198,410602
1629795344886,105774,297187,410582
1629795344896,105756,297170,410603
1629795344906,105753,297152,410598
1629795344916,105738,297162,410617
1629795344926,105734,297154,410584
1629795344936,105709,297179,410580
1629795344946,105699,297151,410538
1629795344956,105672,297107,410545
1629795344966,105667,297132,410542
1629795344976,105647,297120,410536
1629795344986,105639,297085,410585
1629795344996,105622,297101,410532
1629795345006,105597,297096,410588
1629795345016,105576,297078,410541
1629795345026,105572,297111,410523
1629795345036,105562,297085,410524
1629795345046,105540,297072,410537
1629795345056,105529,297068,410505
1629795345066,105519,297065,410506
1629795345076,105513,297049,410489
1629795345086,105485,297058,410529
1629795345096,105494,297018,410494
1629795345106,105484,297050,410499
1629795345116,105465,297062,410504
1629795345126,105456,297046,410497
1629795345136,105453,297034,410552
1629795345146,105443,297065,410520
1629795345156,105448,296993,410509
1629795345166,105433,297053,410557
1629795345176,105430,297059,410571
1629795345186,105411,297076,410510
1629795345196,105428,297032,410536
1629795345206,105428,297086,410525
1629795345216,105425,297068,410534
1629795345226,105417,297078,410543
1629795345236,105419,297039,410564
1629795345246,105417,297042,410532
1629795345256,105411,297083,410545
1629795345266,105416,297101,410576
1629795345276,105399,297111,410580
1629795345286,105406,297105,410552
1629795345296,105413,297118,410575
1629795345306,105417,297100,410598
1629795345316,105428,297083,410596
1629795345326,105431,297121,410578
1629795345336,105427,297095,410588
1629795345346,105428,297115,410591
1629795345356,105436,297109,410614
1629795345366,105446,297111,410610
1629795345376,105451,297125,410600
1629795345386,105464,297118,410616
1629795345396,105469,297136,410611
1629795345406,105474,297114,410615
1629795345416,105482,297196,410666
1629795345426,105485,297126,410613
1629795345436,105501,297139,410710
1629795345446,105519,297206,410697
1629795345456,105506,297225,410690
1629795345466,105529,297241,410760
1629795345476,105521,297195,410731
1629795345486,105548,297180,410704
1629795345496,105565,297231,410709
1629795345506,105572,297252,410749
1629795345516,105586,297306,410732
1629795345526,105593,297283,410688
1629795345536,105613,297280,410740
1629795345546,105626,297267,410768
1629795345556,105621,297292,410775
1629795345566,105634,297288,410775
1629795345576,105655,297285,410798
1629795345586,105662,297287,410789
1629795345596,105681,297286,410764
1629795345606,105679,297325,410780
1629795345616,105697,297346,410785
1629795345626,105701,297358,410829
1629795345636,105735,297374,410851
1629795345646,105736,297364,410845
1629795345656,105747,297381,410853
1629795345666,105769,297380,410877
1629795345676,105774,297379,410882
1629795345686,105781,297376,410873
1629795345696,105806,297387,410861
1629795345706,105810,297375,410903
1629795345716,105825,297350,410878
1629795345726,105814,297342,410896
1629795345736,105822,297326,410877
1629795345746,105818,297361,410882
1629795345756,105816,297328,410867
1629795345766,105798,297314,410857
1629795345776,105785,297287,410857
1629795345786,105766,297269,410812
1629795345796,105770,297269,410830
1629795345806,105739,297274,410842
1629795345816,105750,297270,410835
1629795345826,105750,297311,410848
1629795345836,105737,297278,410873
1629795345846,105727,297282,410841
1629795345856,105730,297273,410882
1629795345866,105723,297253,410868
1629795345876,105706,297237,410873
1629795345886,105709,297260,410893
1629795345896,105705,297252,410834
1629795345906,105696,297293,410881
1629795345916,105687,297282,410857
1629795345926,105704,297247,410900
1629795345936,105689,297284,410874
1629795345946,105674,297248,410939
1629795345956,105678,297303,410899
1629795345966,105666,297304,410876
1629795345976,105669,297282,410894
1629795345986,105668,297268,410869
1629795345996,105678,297240,410898
1629795346006,105673,297272,410930
1629795346016,105691,297282,410946
1629795346026,105673,297279,410911
1629795346036,105673,297233,410933
1629795346046,105676,297263,410903
1629795346056,105671,297233,410931
1629795346066,105681,297291,410926
1629795346076,105680,297292,410973
1629795346086,105679,297257,410953
1629795346096,105699,297250,410998
1629795346106,105703,297280,411011
1629795346116,105703,297288,410950
1629795346126,105691,297280,410938
1629795346136,105699,297289,410968
1629795346146,105709,297270,410972
1629795346156,105723,297276,410954
1629795346166,105721,297278,410966
1629795346176,105721,297300,410981
1629795346186,105739,297294,410998
1629795346196,105741,297344,410981
1629795346206,105752,297313,411029
1629795346216,105748,297323,411021
1629795346226,105765,297306,410991
1629795346236,105780,297341,410975
1629795346246,105783,297337,411049
1629795346256,105794,297350,411000
1629795346266,105795,297318,411008
1629795346276,105812,297358,411019
1629795346286,105825,297360,411061
1629795346296,105835,297330,411045
1629795346306,105830,297367,411048
1629795346316,105852,297408,411078
1629795346326,105862,297367,411036
1629795346336,105873,297402,411036
1629795346346,105882,297350,411073
1629795346356,105892,297403,411098
1629795346366,105905,297348,411049
1629795346376,105918,297381,411070
1629795346386,105919,297411,411076
1629795346396,105944,297415,411097
1629795346406,105952,297407,411106
1629795346416,105978,297426,411147
1629795346426,105990,297405,411120
1629795346436,105979,297429,411135
1629795346446,105989,297446,411145
1629795346456,106018,297445,411078
1629795346466,106041,297453,411135
1629795346476,106053,297440,411140
1629795346486,106058,297480,411156
1629795346496,106055,297442,411155
1629795346506,106070,297468,411087
1629795346516,106058,297401,411100
1629795346526,106050,297426,411132
1629795346536,106056,297379,411079
1629795346546,106040,297365,411095
1629795346556,106049,297366,411094
1629795346566,106028,297374,411080
1629795346576,106015,297379,411094
1629795346586,106003,297342,411096
1629795346596,106006,297344,411072
1629795346606,105981,297349,411079
1629795346616,105975,297331,411080
1629795346626,105980,297334,411069
1629795346636,105971,297347,411066
1629795346646,105964,297321,411067
1629795346656,105964,297341,411101
1629795346666,105950,297322,411102
1629795346676,105927,297331,411098
1629795346686,105933,297300,411047
1629795346696,105937,297333,410982
1629795346706,105936,297323,411043
1629795346716,105925,297280,411084
1629795346726,105931,297336,411068
1629795346736,105928,297321,411050
1629795346746,105925,297309,411064
1629795346756,105929,297321,411020
1629795346766,105929,297330,411056
1629795346776,105913,297310,411036
1629795346786,105928,297291,411071
1629795346796,105934,297318,411072
1629795346806,105924,297310,411054
1629795346816,105923,297336,411019
1629795346826,105921,297316,411012
1629795346836,105923,297312,411008
1629795346846,105931,297337,411031
1629795346856,105919,297324,411057
1629795346866,105925,297318,411033
1629795346876,105927,297315,411048
1629795346886,105937,297313,411055
1629795346896,105933,297365,411017
1629795346906,105946,297358,411037
1629795346916,105941,297318,411074
1629795346926,105939,297324,411084
1629795346936,105962,297367,411058
1629795346946,105974,297325,411071
1629795346956,105959,297367,411076
1629795346966,105978,297365,411057
1629795346976,105987,297354,411062
1629795346986,105993,297360,411080
1629795346996,106008,297383,411042
1629795347006,106008,297373,411073
1629795347016,106025,297370,411131
1629795347026,106023,297373,411087
1629795347036,106037,297418,411105
1629795347046,106056,297427,411115
1629795347056,106059,297414,411081
1629795347066,106078,297385,411087
1629795347076,106088,297427,411130
1629795347086,106077,297415,411126
1629795347096,106097,297450,411138
1629795347106,106098,297448,411156
1629795347116,106113,297453,411170
1629795347126,106127,297483,411133
1629795347136,106138,297461,411140
1629795347146,106159,297468,411146
1629795347156,106172,297458,411184
1629795347166,106187,297503,411189
1629795347176,106210,297515,411162
1629795347186,106212,297534,411181
1629795347196,106228,297544,411188
1629795347206,106231,297521,411204
1629795347216,106231,297554,411242
1629795347226,106252,297553,411234
1629795347236,106273,297531,411167
1629795347246,106275,297557,411154
1629795347256,106284,297530,411214
1629795347266,106269,297467,411242
1629795347276,106264,297503,411157
1629795347286,106267,297484,411180
1629795347296,106250,297483,411198
1629795347306,106242,297478,411173
1629795347316,106230,297483,411184
1629795347326,106223,297439,411177
1629795347336,106223,297457,411167
1629795347346,106200,297437,411196
1629795347356,106205,297460,411162
1629795347366,106186,297470,411137
1629795347376,106180,297439,411148
1629795347386,106166,297421,411183
1629795347396,106156,297420,411141
1629795347406,106132,297441,411126
1629795347416,106143,297398,411137
1629795347426,106136,297433,411178
1629795347436,106125,297442,411170
1629795347446,106120,297392,411140
1629795347456,106093,297400,411165
1629795347466,106107,297392,411123
1629795347476,106095,297365,411167
1629795347486,106097,297470,411164
1629795347496,106091,297412,411167
1629795347506,106079,297422,411168
1629795347516,106074,297393,411142
1629795347526,106066,297376,411116
1629795347536,106072,297390,411106
1629795347546,106070,297415,411147
1629795347556,106066,297379,411186
1629795347566,106070,297422,411136
1629795347576,106077,297380,411165
1629795347586,106064,297402,411149
1629795347596,106064,297400,411146
1629795347606,106058,297422,411155
1629795347616,106073,297415,411132
1629795347626,106068,297419,411170
1629795347636,106073,297429,411172
1629795347646,106075,297410,411152
1629795347656,106067,297456,411148
1629795347666,106074,297447,411149
1629795347676,106081,297425,411119
1629795347686,106073,297386,411142
1629795347696,106074,297399,411147
1629795347706,106074,297432,411143
1629795347716,106094,297482,411141
1629795347726,106086,297456,411147
1629795347736,106100,297472,411179
1629795347746,106100,297485,411158
1629795347756,106111,297482,411171
1629795347766,106134,297485,411107
1629795347776,106135,297474,411181
1629795347786,106151,297505,411194
1629795347796,106156,297497,411176
1629795347806,106158,297462,411152
1629795347816,106158,297517,411184
1629795347826,106185,297507,411178
1629795347836,106191,297511,411152
1629795347846,106196,297528,411220
1629795347856,106198,297543,411193
1629795347866,106205,297558,411173
1629795347876,106240,297564,411211
1629795347886,106223,297525,411211
1629795347896,106247,297548,411174
1629795347906,106260,297580,411182
1629795347916,106284,297575,411258
1629795347926,106286,297599,411225
1629795347936,106294,297585,411188
1629795347946,106303,297560,411218
1629795347956,106322,297591,411227
1629795347966,106333,297592,411235
1629795347976,106340,297621,411231
1629795347986,106352,297604,411207
1629795347996,106360,297619,411213
1629795348006,106373,297617,411215
1629795348016,106371,297614,411214
1629795348026,106398,297642,411189
1629795348036,106373,297582,411266
1629795348046,106365,297553,411211
1629795348056,106365,297545,411226
1629795348066,106335,297542,411193
1629795348076,106334,297519,411207
1629795348086,106332,297550,411213
1629795348096,106322,297536,411212
1629795348106,106304,297487,411203
1629795348116,106299,297534,411192
1629795348126,106298,297517,411186
1629795348136,106289,297514,411179
1629795348146,106261,297496,411188
1629795348156,106246,297483,411164
1629795348166,106222,297439,411177
1629795348176,106228,297481,411133
1629795348186,106199,297494,411143
1629795348196,106195,297440,411129
1629795348206,106179,297472,411159
1629795348216,106162,297482,411110
1629795348226,106164,297416,411118
1629795348236,106154,297437,411114
1629795348246,106154,297463,411134
1629795348256,106153,297450,411130
1629795348266,106129,297462,411176
1629795348276,106133,297499,411188
1629795348286,106126,297471,411122
1629795348296,106138,297488,411145
1629795348306,106119,297441,411181
1629795348316,106139,297497,411161
1629795348326,106123,297479,411170
1629795348336,106127,297479,411183
1629795348346,106110,297508,411212
1629795348356,106108,297493,411170
1629795348366,106111,297535,411216
1629795348376,106107,297528,411182
1629795348386,106097,297510,411176
1629795348396,106126,297511,411208
1629795348406,106118,297515,411186
1629795348416,106103,297488,411172
1629795348426,106117,297513,411146
1629795348436,106122,297514,411208
1629795348446,106111,297548,411155
1629795348456,106117,297496,411167
1629795348466,106115,297549,411173
1629795348476,106115,297503,411147
1629795348486,106117,297457,411115
1629795348496,106121,297542,411142
1629795348506,106121,297526,411113
1629795348516,106125,297463,411126
1629795348526,106130,297497,411138
1629795348536,106138,297484,411112
1629795348546,106147,297477,411076
1629795348556,106146,297472,411111
1629795348566,106157,297514,411060
1629795348576,106151,297484,411033
1629795348586,106154,297442,411050
1629795348596,106157,297477,411026
1629795348606,106159,297452,411023
1629795348616,106167,297472,410973
1629795348626,106177,297496,411056
1629795348636,106185,297468,411010
1629795348646,106197,297459,410963
1629795348656,106189,297508,410953
1629795348666,106207,297512,410954
1629795348676,106227,297449,410951
1629795348686,106230,297494,410943
1629795348696,106229,297483,410936
1629795348706,106233,297499,410939
1629795348716,106248,297482,410963
1629795348726,106261,297476,410975
1629795348736,106267,297476,410960
1629795348746,106292,297469,410972
1629795348756,106297,297508,410913
1629795348766,106291,297463,410893
1629795348776,106303,297504,410909
1629795348786,106293,297454,410857
1629795348796,106288,297452,410883
1629795348806,106289,297443,410866
1629795348816,106284,297419,410848
1629795348826,106275,297383,410838
1629795348836,106269,297368,410771
1629795348846,106253,297356,410815
1629795348856,106212,297359,410750
1629795348866,106213,297333,410786
1629795348876,106211,297309,410727
1629795348886,106200,297305,410749
1629795348896,106191,297323,410752
1629795348906,106168,297305,410714
1629795348916,106159,297324,410696
1629795348926,106144,297305,410745
1629795348936,106136,297283,410732
1629795348946,106115,297303,410691
1629795348956,106103,297287,410709
1629795348966,106086,297272,410710
1629795348976,106074,297247,410678
1629795348986,106058,297255,410690
1629795348996,106040,297254,410645
1629795349006,106025,297248,410652
1629795349016,106018,297206,410640
1629795349026,106030,297183,410655
1629795349036,106020,297282,410629
1629795349046,106001,297180,410638
1629795349056,105995,297232,410631
1629795349066,105988,297230,410626
1629795349076,105994,297232,410650
1629795349086,105987,297258,410599
1629795349096,105968,297218,410715
1629795349106,105990,297212,410610
1629795349116,105985,297255,410611
1629795349126,105973,297233,410629
1629795349136,105970,297245,410633
1629795349146,105957,297256,410637
1629795349156,105969,297240,410640
1629795349166,105959,297230,410585
1629795349176,105953,297267,410643
1629795349186,105963,297220,410637
1629795349196,105967,297267,410598
1629795349206,105957,297193,410620
1629795349216,105952,297249,410597
1629795349226,105962,297241,410564
1629795349236,105954,297213,410581
1629795349246,105963,297219,410607
1629795349256,105963,297248,410546
1629795349266,105961,297205,410555
1629795349276,105972,297235,410561
1629795349286,105981,297239,410558
1629795349296,105975,297221,410525
1629795349306,105986,297208,410578
1629795349316,105973,297236,410614
1629795349326,105995,297219,410559
1629795349336,106016,297244,410553
1629795349346,106027,297291,410545
1629795349356,106031,297274,410617
1629795349366,106032,297261,410575
1629795349376,106036,297288,410556
1629795349386,106047,297332,410596
1629795349396,106060,297337,410621
1629795349406,106064,297334,410612
1629795349416,106078,297321,410641
1629795349426,106086,297391,410649
1629795349436,106075,297351,410631
1629795349446,106107,297412,410686
1629795349456,106117,297405,410684
1629795349466,106129,297409,410687
1629795349476,106132,297389,410686
1629795349486,106140,297415,410677
1629795349496,106150,297425,410656
1629795349506,106152,297443,410653
1629795349516,106169,297374,410678
1629795349526,106174,297440,410638
1629795349536,106185,297451,410687
1629795349546,106179,297460,410650
1629795349556,106199,297436,410679
1629795349566,106210,297420,410658
1629795349576,106225,297464,410678
1629795349586,106229,297434,410685
1629795349596,106233,297457,410632
1629795349606,106237,297434,410614
1629795349616,106245,297388,410586
1629795349626,106222,297378,410575
1629795349636,106212,297374,410550
1629795349646,106223,297379,410584
1629795349656,106209,297326,410548
1629795349666,106186,297270,410538
1629795349676,106178,297285,410514
1629795349686,106159,297282,410491
1629795349696,106148,297300,410458
1629795349706,106146,297298,410454
1629795349716,106120,297279,410478
1629795349726,106102,297236,410418
1629795349736,106086,297172,410450
1629795349746,106099,297240,410458
1629795349756,106097,297204,410413
1629795349766,106060,297211,410424
1629795349776,106051,297210,410401
1629795349786,106030,297130,410370
1629795349796,106024,297138,410391
1629795349806,106001,297178,410340
1629795349816,105991,297117,410300
1629795349826,105988,297131,410327
1629795349836,105968,297081,410311
1629795349846,105970,297069,410262
1629795349856,105944,297094,410205
1629795349866,105939,297020,410227
1629795349876,105924,297044,410211
1629795349886,105916,297025,410136
1629795349896,105912,297002,410142
1629795349906,105907,296976,410117
1629795349916,105897,296954,410107
1629795349926,105891,296981,410091
1629795349936,105875,296969,410032
1629795349946,105866,296941,410034
1629795349956,105869,296914,410017
1629795349966,105857,296924,409961
1629795349976,105857,296885,409959
1629795349986,105837,296839,409973
1629795349996,105831,296818,409906
1629795350006,105839,296882,409886
1629795350016,105821,296793,409844
1629795350026,105814,296820,409821
1629795350036,105817,296796,409799
1629795350046,105803,296818,409766
1629795350056,105805,296810,409764
1629795350066,105800,296825,409762
1629795350076,105804,296799,409741
1629795350086,105807,296762,409804
1629795350096,105819,296814,409749
1629795350106,105807,296809,409774
1629795350116,105808,296816,409753
1629795350126,105803,296790,409696
1629795350136,105786,296745,409695
1629795350146,105816,296743,409686
1629795350156,105807,296818,409683
1629795350166,105792,296787,409608
1629795350176,105797,296769,409595
1629795350186,105815,296754,409575
1629795350196,105790,296747,409623
1629795350206,105804,296758,409577
1629795350216,105794,296754,409546
1629795350226,105778,296729,409530
1629795350236,105777,296706,409487
1629795350246,105771,296678,409510
1629795350256,105776,296687,409416
1629795350266,105756,296675,409403
1629795350276,105757,296672,409389
1629795350286,105752,296666,409391
1629795350296,105752,296624,409372
1629795350306,105754,296626,409328
1629795350316,105743,296653,409336
1629795350326,105753,296662,409375
1629795350336,105749,296661,409373
1629795350346,105746,296663,409361
1629795350356,105750,296700,409363
1629795350366,105770,296740,409394
1629795350376,105770,296669,409397
1629795350386,105768,296734,409357
1629795350396,105773,296738,409355
1629795350406,105794,296762,409368
1629795350416,105794,296722,409378
1629795350426,105803,296810,409448
1629795350436,105830,296814,409482
1629795350446,105839,296818,409525
1629795350456,105867,296880,409569
1629795350466,105868,296882,409613
1629795350476,105878,296961,409735
1629795350486,105917,297019,409851
1629795350496,105915,297072,409952
1629795350506,105950,297182,410044
1629795350516,105959,297247,410146
1629795350526,105952,297252,410192
1629795350536,105956,297246,410127
1629795350546,105948,297249,410150
1629795350556,105933,297208,410173
1629795350566,105930,297212,410122
1629795350576,105929,297153,410091
1629795350586,105909,297115,410052
1629795350596,105924,297077,409974
1629795350606,105910,297131,409973
1629795350616,105917,297076,409968
1629795350626,105938,297123,409985
1629795350636,105936,297120,410038
1629795350646,105932,297170,410053
1629795350656,105949,297198,410119
1629795350666,105974,297191,410120
1629795350676,105970,297234,410143
1629795350686,105971,297261,410151
1629795350696,105978,297241,410144
1629795350706,105972,297249,410122
1629795350716,105963,297241,410170
1629795350726,105984,297297,410154
1629795350736,105972,297339,410171
1629795350746,105992,297347,410184
1629795350756,106002,297365,410303
1629795350766,106006,297436,410301
1629795350776,106012,297447,410376
1629795350786,106010,297533,410459
1629795350796,106018,297538,410433
1629795350806,106016,297530,410455
1629795350816,106013,297553,410493
1629795350826,106028,297582,410499
1629795350836,106017,297632,410480
1629795350846,106018,297575,410504
1629795350856,106024,297650,410504
1629795350866,106028,297626,410488
1629795350876,106024,297597,410520
1629795350886,106024,297637,410502
1629795350896,106025,297624,410507
1629795350906,106045,297665,410456
1629795350916,106041,297606,410470
1629795350926,106044,297659,410466
1629795350936,106066,297682,410450
1629795350946,106067,297680,410511
1629795350956,106077,297667,410457
1629795350966,106098,297672,410478
1629795350976,106111,297711,410471
1629795350986,106119,297707,410515
1629795350996,106119,297697,410496
1629795351006,106117,297743,410461
1629795351016,106132,297699,410464
1629795351026,106141,297763,410511
1629795351036,106150,297765,410493
1629795351046,106164,297775,410479
1629795351056,106169,297764,410479
1629795351066,106179,297773,410514
1629795351076,106188,297780,410470
1629795351086,106182,297771,410456
1629795351096,106192,297779,410426
1629795351106,106206,297738,410486
1629795351116,106199,297775,410439
1629795351126,106203,297747,410467
1629795351136,106204,297759,410415
1629795351146,106203,297775,410442
1629795351156,106230,297773,410410
1629795351166,106236,297757,410419
1629795351176,106237,297741,410413
1629795351186,106244,297765,410407
1629795351196,106245,297749,410385
1629795351206,106252,297702,410367
1629795351216,106263,297712,410328
1629795351226,106257,297707,410329
1629795351236,106269,297686,410325
1629795351246,106259,297676,410338
1629795351256,106274,297651,410329
1629795351266,106278,297710,410408
1629795351276,106305,297764,410419
1629795351286,106286,297775,410453
1629795351296,106287,297775,410426
1629795351306,106306,297783,410498
1629795351316,106312,297795,410534
1629795351326,106323,297840,410600
1629795351336,106337,297865,410647
1629795351346,106342,297855,410625
1629795351356,106364,297862,410728
1629795351366,106354,297944,410751
1629795351376,106362,297930,410783
1629795351386,106369,297995,410820
1629795351396,106374,298014,410828
1629795351406,106374,297985,410885
1629795351416,106377,298017,410926
1629795351426,106401,298049,410935
1629795351436,106400,298109,410958
1629795351446,106403,298159,411032
1629795351456,106426,298164,411106
1629795351466,106418,298161,411091
1629795351476,106405,298124,411042
1629795351486,106397,298080,410951
1629795351496,106377,298081,410977
1629795351506,106370,298089,410894
1629795351516,106348,298047,410893
1629795351526,106351,297989,410829
1629795351536,106338,298001,410816
1629795351546,106344,297976,410770
1629795351556,106326,297969,410751
1629795351566,106311,297978,410668
1629795351576,106302,297905,410683
1629795351586,106306,297951,410673
1629795351596,106298,297962,410691
1629795351606,106299,297933,410667
1629795351616,106295,297981,410725
1629795351626,106312,297958,410743
1629795351636,106328,297999,410732
1629795351646,106331,298032,410765
1629795351656,106326,297973,410717
1629795351666,106342,298006,410741
1629795351676,106336,298004,410705
1629795351686,106347,298027,410724
1629795351696,106344,297987,410725
1629795351706,106348,298038,410708
1629795351716,106358,298013,410707
1629795351726,106350,298043,410701
1629795351736,106351,298021,410642
1629795351746,106353,298040,410695
1629795351756,106374,298038,410691
1629795351766,106381,298095,410717
1629795351776,106389,298078,410689
1629795351786,106386,298087,410678
1629795351796,106388,298062,410690
1629795351806,106400,298102,410694
1629795351816,106412,298071,410698
1629795351826,106419,298116,410665
1629795351836,106416,298094,410679
1629795351846,106424,298050,410663
1629795351856,106429,298117,410681
1629795351866,106441,298071,410665
1629795351876,106436,298117,410663
1629795351886,106437,298081,410646
1629795351896,106445,298049,410593
1629795351906,106441,298070,410612
1629795351916,106442,298034,410564
1629795351926,106452,298015,410532
1629795351936,106441,298005,410497
1629795351946,106453,297955,410470
1629795351956,106452,297962,410406
1629795351966,106424,297949,410487
1629795351976,106432,297890,410376
1629795351986,106432,297895,410416
1629795351996,106415,297911,410363
1629795352006,106415,297884,410367
1629795352016,106413,297858,410352
1629795352026,106409,297846,410349
1629795352036,106393,297890,410322
1629795352046,106382,297826,410275
1629795352056,106379,297838,410306
1629795352066,106373,297826,410292
1629795352076,106367,297812,410369
1629795352086,106355,297850,410289
1629795352096,106344,297855,410288
1629795352106,106348,297807,410317
1629795352116,106354,297817,410275
1629795352126,106340,297842,410257
1629795352136,106330,297794,410294
1629795352146,106337,297819,410289
1629795352156,106355,297841,410247
1629795352166,106334,297828,410267
1629795352176,106327,297815,410271
1629795352186,106331,297824,410323
1629795352196,106330,297797,410268
1629795352206,106327,297792,410298
1629795352216,106329,297814,410276
1629795352226,106320,297839,410288
1629795352236,106326,297815,410255
1629795352246,106330,297885,410253
1629795352256,106337,297837,410270
1629795352266,106317,297816,410212
1629795352276,106328,297859,410287
1629795352286,106327,297874,410248
1629795352296,106322,297838,410236
1629795352306,106323,297865,410243
1629795352316,106328,297879,410253
1629795352326,106320,297870,410244
1629795352336,106337,297847,410274
1629795352346,106342,297843,410270
1629795352356,106325,297877,410303
1629795352366,106336,297896,410313
1629795352376,106345,297859,410262
1629795352386,106340,297871,410279
1629795352396,106344,297902,410249
1629795352406,106333,297853,410260
1629795352416,106347,297930,410229
1629795352426,106363,297876,410246
1629795352436,106350,297925,410269
1629795352446,106364,297902,410299
1629795352456,106366,297940,410281
1629795352466,106360,297941,410243
1629795352476,106365,297910,410260
1629795352486,106379,297931,410254
1629795352496,106369,297960,410244
1629795352506,106385,297923,410282
1629795352516,106398,297942,410307
1629795352526,106399,297997,410304
1629795352536,106402,297951,410281
1629795352546,106408,297968,410249
1629795352556,106411,297977,410271
1629795352566,106429,297942,410284
1629795352576,106424,297986,410301
1629795352586,106417,297978,410298
1629795352596,106430,297974,410274
1629795352606,106445,297977,410271
1629795352616,106444,298015,410268
1629795352626,106463,298008,410311
1629795352636,106470,297956,410253
1629795352646,106464,297994,410273
1629795352656,106462,297950,410185
1629795352666,106449,297978,410203
1629795352676,106450,297921,410188
1629795352686,106470,297927,410265
1629795352696,106463,297902,410177
1629795352706,106454,297899,410219
1629795352716,106458,297920,410151
1629795352726,106445,297886,410196
1629795352736,106419,297894,410160
1629795352746,106431,297889,410181
1629795352756,106436,297859,410186
1629795352766,106405,297857,410162
1629795352776,106409,297872,410184
1629795352786,106401,297834,410190
1629795352796,106387,297840,410158
1629795352806,106385,297879,410140
1629795352816,106387,297883,410168
1629795352826,106379,297862,410086
1629795352836,106367,297809,410185
1629795352846,106356,297878,410128
1629795352856,106356,297862,410162
1629795352866,106348,297838,410161
1629795352876,106349,297862,410141
1629795352886,106360,297890,410146
1629795352896,106322,297811,410183
1629795352906,106346,297846,410129
1629795352916,106338,297871,410145
1629795352926,106339,297822,410139
1629795352936,106336,297846,410142
1629795352946,106339,297824,410133
1629795352956,106350,297856,410162
1629795352966,106347,297860,410140
1629795352976,106350,297874,410155
1629795352986,106344,297870,410143
1629795352996,106344,297831,410132
1629795353006,106340,297858,410145
1629795353016,106334,297883,410127
1629795353026,106348,297843,410106
1629795353036,106337,297861,410144
1629795353046,106348,297860,410163
1629795353056,106350,297884,410165
1629795353066,106360,297896,410155
1629795353076,106364,297900,410187
1629795353086,106351,297893,410135
1629795353096,106347,297883,410150
1629795353106,106357,297896,410138
1629795353116,106354,297894,410167
1629795353126,106363,297898,410161
1629795353136,106378,297900,410161
1629795353146,106378,297892,410160
1629795353156,106382,297870,410143
1629795353166,106387,297941,410169
1629795353176,106394,297929,410152
1629795353186,106393,297911,410154
1629795353196,106395,297950,410167
1629795353206,106417,297955,410153
1629795353216,106404,297909,410163
1629795353226,106413,297966,410208
1629795353236,106427,297979,410154
1629795353246,106429,298001,410173
1629795353256,106430,297941,410152
1629795353266,106441,297990,410171
1629795353276,106444,297981,410188
1629795353286,106443,298002,410177
1629795353296,106449,297959,410142
1629795353306,106459,297935,410146
1629795353316,106474,297993,410183
1629795353326,106465,298034,410202
1629795353336,106475,297975,410146
1629795353346,106495,297999,410219
1629795353356,106499,297999,410181
1629795353366,106482,298000,410154
1629795353376,106482,297990,410151
1629795353386,106514,297968,410119
1629795353396,106513,297959,410068
1629795353406,106507,297937,410150
1629795353416,106505,297945,410164
1629795353426,106505,297923,410146
1629795353436,106499,297920,410108
1629795353446,106504,297938,410092
1629795353456,106500,297895,410111
1629795353466,106495,297905,410098
1629795353476,106480,297904,410065
1629795353486,106473,297877,410072
1629795353496,106472,297916,410064
1629795353506,106470,297919,410105
1629795353516,106465,297919,410106
1629795353526,106470,297912,410102
1629795353536,106466,297874,410128
1629795353546,106446,297914,410090
1629795353556,106426,297861,410093
1629795353566,106439,297840,410108
1629795353576,106444,297880,410056
1629795353586,106425,297890,410058
1629795353596,106423,297850,410097
1629795353606,106424,297904,410092
1629795353616,106425,297903,410078
1629795353626,106417,297887,410093
1629795353636,106411,297920,410102
1629795353646,106427,297871,410136
1629795353656,106415,297867,410086
1629795353666,106414,297842,410084
1629795353676,106409,297846,410100
1629795353686,106414,297900,410084
1629795353696,106416,297881,410132
1629795353706,106438,297897,410081
1629795353716,106430,297906,410052
1629795353726,106414,297860,410069
1629795353736,106410,297867,410065
1629795353746,106420,297872,410112
1629795353756,106432,297907,410097
1629795353766,106420,297894,410078
1629795353776,106428,297886,410082
1629795353786,106434,297870,410052
1629795353796,106428,297883,410069
1629795353806,106425,297913,410106
1629795353816,106446,297892,410117
1629795353826,106445,297892,410101
1629795353836,106441,297914,410122
1629795353846,106452,297941,410092
1629795353856,106458,297887,410115
1629795353866,106464,297930,410131
1629795353876,106463,297887,410133
1629795353886,106477,297948,410141
1629795353896,106476,297957,410156
1629795353906,106474,297937,410123
1629795353916,106500,297937,410176
1629795353926,106499,297974,410174
1629795353936,106492,297958,410119
1629795353946,106502,297991,410143
1629795353956,106498,297987,410191
1629795353966,106518,297985,410213
1629795353976,106518,297942,410137
1629795353986,106525,297986,410171
1629795353996,106527,297999,410173
1629795354006,106535,298018,410142
1629795354016,106551,297954,410179
1629795354026,106564,297980,410151
1629795354036,106577,298030,410154
1629795354046,106575,298001,410160
1629795354056,106587,298020,410203
1629795354066,106593,298026,410221
1629795354076,106608,298010,410205
1629795354086,106612,297999,410173
1629795354096,106618,298018,410188
1629795354106,106614,297980,410175
1629795354116,106623,298012,410177
1629795354126,106620,297960,410150
1629795354136,106625,297985,410112
1629795354146,106630,297969,410152
1629795354156,106624,297929,410107
1629795354166,106628,297964,410159
1629795354176,106614,297949,410122
1629795354186,106633,297889,410125
1629795354196,106591,297893,410184
1629795354206,106586,297879,410099
1629795354216,106598,297899,410112
1629795354226,106580,297898,410142
1629795354236,106563,297875,410103
1629795354246,106563,297894,410085
1629795354256,106561,297894,410086
1629795354266,106558,297868,410086
1629795354276,106544,297875,410078
1629795354286,106534,297862,410110
1629795354296,106519,297891,410099
1629795354306,106522,297822,410016
1629795354316,106521,297843,410086
1629795354326,106525,297823,410003
1629795354336,106509,297848,410078
1629795354346,106524,297854,410059
1629795354356,106502,297837,410031
1629795354366,106508,297825,410064
1629795354376,106520,297850,410056
1629795354386,106507,297851,410003
1629795354396,106503,297860,410039
1629795354406,106517,297841,410069
1629795354416,106508,297849,410045
1629795354426,106508,297844,410072
1629795354436,106504,297842,410006
1629795354446,106507,297840,410050
1629795354456,106510,297837,410014
1629795354466,106497,297852,410069
1629795354476,106507,297841,410034
1629795354486,106516,297847,410018
1629795354496,106490,297873,410055
1629795354506,106493,297833,410058
1629795354516,106503,297829,410025
1629795354526,106511,297843,410013
1629795354536,106508,297847,410012
1629795354546,106524,297828,410019
1629795354556,106512,297854,409967
1629795354566,106511,297853,410031
1629795354576,106507,297858,410022
1629795354586,106502,297854,410046
1629795354596,106512,297837,410001
1629795354606,106518,297915,410030
1629795354616,106517,297845,410013
1629795354626,106532,297850,409997
1629795354636,106531,297881,409996
1629795354646,106535,297906,410012
1629795354656,106546,297897,410009
1629795354666,106541,297863,409980
1629795354676,106557,297902,410039
1629795354686,106569,297870,410034
1629795354696,106566,297864,409978
1629795354706,106573,297882,410020
1629795354716,106576,297921,410020
1629795354726,106583,297928,410056
1629795354736,106593,297910,410003
1629795354746,106582,297948,409993
1629795354756,106612,297883,409995
1629795354766,106612,297891,410037
1629795354776,106612,297924,410004
1629795354786,106634,297919,410029
1629795354796,106629,297934,410018
1629795354806,106638,297917,410023
1629795354816,106647,297912,409994
1629795354826,106656,297920,410010
1629795354836,106645,297878,410002
1629795354846,106644,297874,409980
1629795354856,106634,297885,409942
1629795354866,106640,297890,409978
1629795354876,106636,297857,409949
1629795354886,106625,297879,409956
1629795354896,106622,297835,409964
1629795354906,106610,297810,409975
1629795354916,106591,297792,409917
1629795354926,106582,297773,409942
1629795354936,106569,297775,409906
1629795354946,106568,297749,409884
1629795354956,106550,297774,409885
1629795354966,106520,297748,409879
1629795354976,106528,297763,409841
1629795354986,106508,297768,409848
1629795354996,106495,297731,409893
1629795355006,106473,297711,409863
1629795355016,106463,297716,409824
1629795355026,106477,297708,409795
1629795355036,106448,297686,409856
1629795355046,106436,297742,409861
1629795355056,106431,297728,409889
1629795355066,106440,297710,409867
1629795355076,106430,297716,409841
1629795355086,106412,297703,409823
1629795355096,106412,297659,409835
1629795355106,106407,297689,409846
1629795355116,106411,297729,409802
1629795355126,106401,297724,409882
1629795355136,106413,297745,409846
1629795355146,106400,297729,409845
1629795355156,106404,297738,409803
1629795355166,106390,297728,409840
1629795355176,106365,297723,409827
1629795355186,106375,297722,409843
1629795355196,106368,297709,409811
1629795355206,106372,297695,409831
1629795355216,106361,297762,409824
1629795355226,106384,297744,409845
1629795355236,106378,297774,409827
1629795355246,106375,297738,409833
1629795355256,106374,297730,409853
1629795355266,106371,297744,409835
1629795355276,106366,297722,409830
1629795355286,106367,297710,409781
1629795355296,106358,297737,409805
1629795355306,106375,297756,409842
1629795355316,106375,297754,409828
1629795355326,106368,297757,409830
1629795355336,106383,297747,409811
1629795355346,106372,297716,409844
1629795355356,106386,297735,409766
1629795355366,106387,297746,409815
1629795355376,106383,297746,409793
1629795355386,106380,297734,409813
1629795355396,106398,297788,409752
1629795355406,106401,297755,409797
1629795355416,106384,297798,409769
1629795355426,106406,297727,409785
1629795355436,106404,297766,409775
1629795355446,106395,297762,409790
1629795355456,106419,297743,409767
1629795355466,106412,297752,409727
1629795355476,106424,297737,409735
1629795355486,106445,297828,409769
1629795355496,106437,297815,409775
1629795355506,106438,297799,409770
1629795355516,106450,297800,409768
1629795355526,106448,297791,409796
1629795355536,106457,297810,409780
1629795355546,106461,297780,409754
1629795355556,106462,297735,409694
1629795355566,106454,297730,409716
1629795355576,106444,297705,409706
1629795355586,106443,297718,409710
1629795355596,106441,297705,409648
1629795355606,106429,297662,409668
1629795355616,106401,297629,409700
1629795355626,106386,297636,409672
1629795355636,106373,297615,409660
1629795355646,106349,297611,409628
1629795355656,106323,297574,409606
1629795355666,106315,297589,409566
1629795355676,106307,297590,409597
1629795355686,106272,297559,409624
1629795355696,106266,297558,409576
1629795355706,106236,297524,409560
1629795355716,106223,297523,409556
1629795355726,106211,297530,409582
1629795355736,106178,297520,409547
1629795355746,106173,297535,409552
1629795355756,106167,297503,409518
1629795355766,106130,297482,409495
1629795355776,106094,297473,409532
1629795355786,106085,297510,409520
1629795355796,106074,297513,409510
1629795355806,106071,297444,409529
1629795355816,106053,297473,409555
1629795355826,106036,297486,409487
1629795355836,106015,297461,409478
1629795355846,106024,297457,409480
1629795355856,106005,297438,409519
1629795355866,105999,297464,409517
1629795355876,106000,297468,409495
1629795355886,105988,297437,409499
1629795355896,105980,297430,409486
1629795355906,105968,297464,409489
1629795355916,105968,297468,409448
1629795355926,105956,297432,409452
1629795355936,105945,297445,409444
1629795355946,105947,297475,409466
1629795355956,105925,297437,409455
1629795355966,105935,297499,409419
1629795355976,105931,297454,409490
1629795355986,105920,297478,409449
1629795355996,105913,297443,409407
1629795356006,105919,297454,409420
1629795356016,105911,297456,409465
1629795356026,105898,297462,409432
1629795356036,105907,297503,409422
1629795356046,105915,297437,409438
1629795356056,105919,297432,409440
1629795356066,105919,297447,409450
1629795356076,105919,297487,409419
1629795356086,105928,297477,409437
1629795356096,105920,297500,409398
1629795356106,105917,297498,409469
1629795356116,105926,297513,409442
1629795356126,105911,297495,409467
1629795356136,105914,297500,409387
1629795356146,105936,297459,409445
1629795356156,105926,297498,409439
1629795356166,105932,297525,409445
1629795356176,105943,297497,409446
1629795356186,105940,297499,409490
1629795356196,105932,297510,409428
1629795356206,105947,297530,409417
1629795356216,105939,297550,409442
1629795356226,105941,297532,409419
1629795356236,105942,297488,409420
1629795356246,105974,297536,409430
1629795356256,105972,297546,409479
1629795356266,105979,297532,409457
1629795356276,105990,297544,409470
1629795356286,105982,297561,409502
1629795356296,105956,297578,409453
1629795356306,105988,297539,409451
1629795356316,105974,297517,409403
1629795356326,105981,297499,409428
1629795356336,105973,297459,409366
1629795356346,105965,297464,409386
1629795356356,105944,297449,409354
1629795356366,105936,297439,409349
1629795356376,105917,297394,409309
1629795356386,105882,297395,409320
1629795356396,105870,297371,409289
1629795356406,105850,297385,409321
1629795356416,105808,297360,409289
1629795356426,105784,297344,409253
1629795356436,105776,297369,409234
1629795356446,105744,297327,409291
1629795356456,105730,297257,409291
1629795356466,105704,297319,409234
1629795356476,105657,297224,409293
1629795356486,105640,297270,409271
1629795356496,105627,297262,409220
1629795356506,105596,297241,409208
1629795356516,105571,297219,409190
1629795356526,105550,297249,409150
1629795356536,105528,297211,409212
1629795356546,105513,297186,409176
1629795356556,105492,297195,409174
1629795356566,105474,297198,409163
1629795356576,105460,297211,409159
1629795356586,105458,297213,409185
1629795356596,105425,297196,409181
1629795356606,105446,297235,409105
1629795356616,105404,297212,409115
1629795356626,105404,297192,409154
1629795356636,105386,297207,409187
1629795356646,105383,297172,409139
1629795356656,105375,297238,409133
1629795356666,105361,297194,409138
1629795356676,105347,297200,409111
1629795356686,105340,297179,409151
1629795356696,105333,297197,409131
1629795356706,105315,297190,409120
1629795356716,105313,297174,409073
1629795356726,105317,297154,409143
1629795356736,105306,297204,409135
1629795356746,105302,297179,409118
1629795356756,105299,297211,409191
1629795356766,105291,297186,409171
1629795356776,105298,297192,409193
1629795356786,105296,297214,409141
1629795356796,105285,297204,409153
1629795356806,105302,297235,409132
1629795356816,105299,297176,409088
1629795356826,105290,297197,409104
1629795356836,105290,297223,409163
1629795356846,105297,297208,409157
1629795356856,105301,297225,409136
1629795356866,105298,297220,409165
1629795356876,105294,297272,409140
1629795356886,105304,297241,409189
1629795356896,105316,297210,409154
1629795356906,105322,297282,409159
1629795356916,105324,297247,409179
1629795356926,105318,297268,409200
1629795356936,105325,297258,409173
1629795356946,105335,297230,409141
1629795356956,105349,297256,409139
1629795356966,105333,297271,409161
1629795356976,105331,297284,409189
1629795356986,105354,297274,409139
1629795356996,105354,297299,409183
1629795357006,105372,297292,409201
1629795357016,105378,297262,409199
1629795357026,105382,297344,409202
1629795357036,105383,297285,409203
1629795357046,105389,297270,409207
1629795357056,105392,297315,409215
1629795357066,105392,297348,409200
1629795357076,105398,297305,409134
1629795357086,105396,297231,409131
1629795357096,105399,297308,409142
1629795357106,105399,297287,409176
1629795357116,105380,297276,409141
1629795357126,105388,297254,409129
1629795357136,105337,297228,409109
1629795357146,105322,297218,409151
1629795357156,105310,297194,409098
1629795357166,105289,297175,409098
1629795357176,105269,297144,409098
1629795357186,105234,297155,409103
1629795357196,105222,297117,409077
1629795357206,105197,297099,409093
1629795357216,105172,297118,409053
1629795357226,105153,297130,409051
1629795357236,105136,297105,409091
1629795357246,105108,297112,409058
1629795357256,105088,297079,409053
1629795357266,105074,297068,409031
1629795357276,105048,297064,409032
1629795357286,105026,297011,408991
1629795357296,105004,297063,409028
1629795357306,104985,297057,409024
1629795357316,104969,297067,408985
1629795357326,104953,297044,409039
1629795357336,104951,297075,409044
1629795357346,104929,297066,409070
1629795357356,104914,297028,409053
1629795357366,104894,297034,409020
1629795357376,104894,297007,408979
1629795357386,104880,297069,409043
1629795357396,104880,297030,409012
1629795357406,104866,297018,409018
1629795357416,104865,297015,409062
1629795357426,104850,297010,408974
1629795357436,104845,297053,409010
1629795357446,104826,296999,408955
1629795357456,104819,297025,409034
1629795357466,104803,297021,408981
1629795357476,104811,297017,409001
1629795357486,104801,297028,408973
1629795357496,104796,297038,409041
1629795357506,104792,297046,408996
1629795357516,104797,297053,409025
1629795357526,104792,297021,408975
1629795357536,104800,297019,409021
1629795357546,104806,297041,409045
1629795357556,104809,297020,408990
1629795357566,104805,297031,409039
1629795357576,104798,297074,409047
1629795357586,104799,297039,409061
1629795357596,104806,297047,409036
1629795357606,104815,297040,409021
1629795357616,104827,297101,409033
1629795357626,104824,297060,409008
1629795357636,104834,297084,409087
1629795357646,104834,297063,409013
1629795357656,104841,297074,409060
1629795357666,104854,297063,409068
1629795357676,104847,297112,409097
1629795357686,104867,297127,409063
1629795357696,104865,297127,409101
1629795357706,104879,297096,409076
1629795357716,104888,297105,409084
1629795357726,104874,297146,409118
1629795357736,104901,297123,409097
1629795357746,104915,297091,409074
1629795357756,104911,297161,409050
1629795357766,104928,297182,409069
1629795357776,104917,297107,409107
1629795357786,104939,297145,409110
1629795357796,104938,297166,409080
1629795357806,104958,297147,409083
1629795357816,104962,297184,409122
1629795357826,104966,297150,409135
1629795357836,104973,297206,409144
1629795357846,104987,297160,409081
1629795357856,105000,297222,409141
1629795357866,104996,297190,409147
1629795357876,105008,297197,409087
1629795357886,105002,297121,409108
1629795357896,105001,297136,409104
1629795357906,105015,297084,409049
1629795357916,104995,297126,409088
1629795357926,104985,297052,409102
1629795357936,104961,297062,409034
1629795357946,104959,297085,409079
1629795357956,104925,297046,409086
1629795357966,104910,297057,409010
1629795357976,104882,297015,409039
1629795357986,104857,297023,409016
1629795357996,104845,297030,409000
1629795358006,104831,296980,409007
1629795358016,104826,296994,409004
1629795358026,104805,296968,409019
1629795358036,104792,296992,408978
1629795358046,104748,296960,408978
1629795358056,104743,296937,409010
1629795358066,104709,296974,408968
1629795358076,104702,296990,408979
1629795358086,104670,296920,408960
1629795358096,104664,296908,408996
1629795358106,104651,296938,408924
1629795358116,104654,296932,408967
1629795358126,104634,296930,408956
1629795358136,104636,296919,408980
1629795358146,104627,296903,408894
1629795358156,104620,296881,408945
1629795358166,104605,296899,408920
1629795358176,104598,296931,408938
1629795358186,104587,296926,408986
1629795358196,104576,296888,408909
1629795358206,104581,296877,408939
1629795358216,104564,296872,408961
1629795358226,104568,296887,408947
1629795358236,104557,296879,408947
1629795358246,104533,296876,409005
1629795358256,104531,296892,408955
1629795358266,104547,296876,408963
1629795358276,104538,296877,408961
1629795358286,104540,296873,408967
1629795358296,104536,296896,408958
1629795358306,104541,296939,408971
1629795358316,104543,296920,408970
1629795358326,104536,296892,408973
1629795358336,104543,296896,408970
1629795358346,104543,296917,408979
1629795358356,104542,296915,408974
1629795358366,104553,296915,408950
1629795358376,104561,296916,408983
1629795358386,104563,296939,409022
1629795358396,104561,296900,409008
1629795358406,104556,296914,408974
1629795358416,104562,296918,408980
1629795358426,104590,296952,408980
1629795358436,104572,296929,408982
1629795358446,104594,296974,409014
1629795358456,104600,296964,408975
1629795358466,104618,296959,408979
1629795358476,104609,296977,409007
1629795358486,104602,296965,409005
1629795358496,104632,296980,409024
1629795358506,104641,296933,409018
1629795358516,104649,296980,409034
1629795358526,104651,296998,409000
1629795358536,104667,297003,409037
1629795358546,104668,297027,409041
1629795358556,104673,297002,409038
1629795358566,104693,297009,409011
1629795358576,104692,296980,409042
1629795358586,104701,297050,409065
1629795358596,104711,297008,409051
1629795358606,104715,297031,409110
1629795358616,104741,297059,409068
1629795358626,104733,297092,409056
1629795358636,104754,297062,409069
1629795358646,104769,297086,409058
1629795358656,104782,297086,409094
1629795358666,104792,297116,409132
1629795358676,104792,297104,409036
1629795358686,104796,297096,409072
1629795358696,104804,297078,409074
1629795358706,104809,297049,409049
1629795358716,104811,297023,409043
1629795358726,104797,297020,409032
1629795358736,104780,297030,409052
1629795358746,104767,296983,409038
1629795358756,104766,296922,409055
1629795358766,104748,296943,409040
1629795358776,104733,296981,409056
1629795358786,104710,296963,409011
1629795358796,104707,296957,409050
1629795358806,104694,296938,409019
1629795358816,104672,296955,409020
1629795358826,104661,296923,409061
1629795358836,104655,296930,409031
1629795358846,104630,296951,409074
1629795358856,104617,296940,409020
1629795358866,104619,296919,409050
1629795358876,104603,296924,409014
1629795358886,104596,296946,409014
1629795358896,104580,296936,409048
1629795358906,104579,296928,409031
1629795358916,104568,296933,409083
1629795358926,104566,296965,409050
1629795358936,104579,296951,409111
1629795358946,104560,296951,409124
1629795358956,104549,297010,409103
1629795358966,104555,296986,409182
1629795358976,104552,297000,409200
1629795358986,104565,296988,409141
1629795358996,104570,297002,409150
1629795359006,104561,297025,409212
1629795359016,104566,297014,409219
1629795359026,104571,297031,409248
1629795359036,104579,297061,409213
1629795359046,104568,297044,409266
1629795359056,104574,297076,409261
1629795359066,104578,297079,409278
1629795359076,104580,297032,409279
1629795359086,104588,297111,409329
1629795359096,104597,297082,409298
1629795359106,104589,297090,409290
1629795359116,104614,297098,409327
1629795359126,104602,297128,409333
1629795359136,104622,297141,409333
1629795359146,104628,297146,409368
1629795359156,104636,297102,409420
1629795359166,104654,297175,409384
1629795359176,104649,297197,409349
1629795359186,104669,297193,409380
1629795359196,104671,297163,409400
1629795359206,104682,297229,409425
1629795359216,104686,297253,409389
1629795359226,104692,297196,409460
1629795359236,104711,297234,409430
1629795359246,104719,297233,409483
1629795359256,104717,297271,409447
1629795359266,104752,297276,409464
1629795359276,104740,297235,409482
1629795359286,104751,297280,409498
1629795359296,104766,297311,409486
1629795359306,104759,297332,409478
1629795359316,104783,297271,409500
1629795359326,104796,297276,409518
1629795359336,104806,297292,409507
1629795359346,104812,297290,409445
1629795359356,104849,297319,409465
1629795359366,104840,297288,409503
1629795359376,104845,297306,409498
1629795359386,104879,297327,409479
1629795359396,104890,297323,409526
1629795359406,104893,297359,409456
1629795359416,104901,297361,409494
1629795359426,104924,297342,409483
1629795359436,104932,297370,409495
1629795359446,104940,297374,409521
1629795359456,104950,297390,409566
1629795359466,104976,297360,409530
1629795359476,104986,297383,409582
1629795359486,104999,297416,409537
1629795359496,105018,297409,409589
1629795359506,105012,297383,409570
1629795359516,105018,297396,409608
1629795359526,105026,297413,409585
1629795359536,105042,297377,409558
1629795359546,105027,297344,409540
1629795359556,105013,297344,409537
1629795359566,105008,297357,409585
1629795359576,105006,297353,409564
1629795359586,105000,297346,409564
1629795359596,104992,297350,409616
1629795359606,104971,297327,409551
1629795359616,104962,297326,409587
1629795359626,104951,297328,409563
1629795359636,104950,297320,409549
1629795359646,104944,297330,409592
1629795359656,104942,297308,409564
1629795359666,104934,297303,409588
1629795359676,104918,297331,409596
1629795359686,104903,297269,409547
1629795359696,104911,297332,409590
1629795359706,104894,297317,409602
1629795359716,104902,297297,409578
1629795359726,104882,297301,409565
1629795359736,104876,297349,409594
1629795359746,104888,297331,409631
1629795359756,104879,297366,409585
1629795359766,104880,297306,409616
1629795359776,104879,297282,409590
1629795359786,104896,297336,409649
1629795359796,104893,297365,409627
1629795359806,104889,297378,409618
1629795359816,104896,297379,409618
1629795359826,104892,297369,409632
1629795359836,104899,297336,409637
1629795359846,104892,297356,409626
1629795359856,104921,297344,409666
1629795359866,104912,297386,409636
1629795359876,104911,297355,409613
1629795359886,104913,297397,409620
1629795359896,104919,297382,409658
1629795359906,104926,297422,409637
1629795359916,104932,297392,409646
1629795359926,104936,297385,409649
1629795359936,104937,297406,409681
1629795359946,104949,297399,409694
1629795359956,104957,297433,409668
1629795359966,104966,297458,409685
1629795359976,104978,297451,409712
1629795359986,104981,297432,409689
1629795359996,104980,297464,409742
1629795360006,105002,297479,409689
1629795360016,104993,297483,409702
1629795360026,105029,297463,409750
1629795360036,105033,297501,409759
1629795360046,105041,297478,409727
1629795360056,105059,297506,409745
1629795360066,105062,297472,409713
1629795360076,105073,297497,409749
1629795360086,105083,297554,409738
1629795360096,105090,297499,409765
1629795360106,105109,297530,409758
1629795360116,105123,297508,409749
1629795360126,105121,297540,409738
1629795360136,105138,297568,409750
1629795360146,105152,297583,409747
1629795360156,105164,297569,409770
1629795360166,105185,297571,409759
1629795360176,105175,297580,409788
1629795360186,105200,297580,409784
1629795360196,105202,297614,409775
1629795360206,105231,297584,409769
1629795360216,105237,297614,409803
1629795360226,105246,297640,409824
1629795360236,105263,297628,409788
1629795360246,105272,297624,409836
1629795360256,105304,297676,409853
1629795360266,105304,297667,409850
1629795360276,105333,297673,409860
1629795360286,105341,297657,409829
1629795360296,105351,297680,409855
1629795360306,105349,297633,409813
1629795360316,105361,297651,409800
1629795360326,105369,297605,409837
1629795360336,105388,297621,409838
1629795360346,105380,297627,409811
1629795360356,105383,297591,409842
1629795360366,105370,297618,409794
1629795360376,105375,297548,409811
1629795360386,105364,297576,409801
1629795360396,105348,297580,409774
1629795360406,105351,297562,409788
1629795360416,105340,297573,409802
1629795360426,105350,297582,409789
1629795360436,105355,297582,409802
1629795360446,105341,297569,409803
1629795360456,105334,297570,409765
1629795360466,105344,297557,409834
1629795360476,105336,297555,409809
1629795360486,105331,297534,409814
1629795360496,105333,297561,409818
1629795360506,105310,297566,409743
1629795360516,105319,297582,409860
1629795360526,105315,297576,409750
1629795360536,105345,297569,409794
1629795360546,105340,297614,409811
1629795360556,105354,297596,409825
1629795360566,105333,297565,409796
1629795360576,105352,297573,409795
1629795360586,105342,297573,409815
1629795360596,105345,297565,409821
1629795360606,105352,297647,409855
1629795360616,105365,297594,409837
1629795360626,105376,297573,409840
1629795360636,105378,297599,409857
1629795360646,105386,297601,409828
1629795360656,105412,297621,409850
1629795360666,105399,297618,409839
1629795360676,105411,297623,409898
1629795360686,105419,297620,409883
1629795360696,105429,297675,409831
1629795360706,105436,297645,409907
1629795360716,105443,297632,409904
1629795360726,105452,297674,409881
1629795360736,105471,297677,409895
1629795360746,105462,297695,409911
1629795360756,105458,297686,409903
1629795360766,105494,297703,409888
1629795360776,105498,297688,409908
1629795360786,105501,297659,409916
1629795360796,105521,297712,409906
1629795360806,105543,297715,409908
1629795360816,105545,297710,409937
1629795360826,105544,297700,409915
1629795360836,105559,297744,409941
1629795360846,105574,297761,409927
1629795360856,105587,297734,409956
1629795360866,105595,297720,409928
1629795360876,105619,297732,409960
1629795360886,105628,297766,409997
1629795360896,105627,297805,410006
1629795360906,105656,297784,410016
1629795360916,105677,297794,410014
1629795360926,105677,297793,409995
1629795360936,105690,297809,409950
1629795360946,105711,297803,409977
1629795360956,105730,297773,410024
1629795360966,105738,297797,410022
1629795360976,105761,297823,410018
1629795360986,105758,297805,410021
1629795360996,105778,297840,409968
1629795361006,105790,297798,410005
1629795361016,105836,297868,410043
1629795361026,105825,297856,409996
1629795361036,105840,297872,410080
1629795361046,105855,297870,410038
1629795361056,105884,297889,410070
1629795361066,105886,297909,410045
1629795361076,105903,297892,410053
1629795361086,105930,297933,410085
1629795361096,105945,297977,410122
1629795361106,105946,297886,410082
1629795361116,105968,297922,410075
1629795361126,105963,297934,410054
1629795361136,105972,297906,410075
1629795361146,105992,297922,410086
1629795361156,105985,297889,410082
1629795361166,105972,297847,410021
1629795361176,105984,297837,410009
1629795361186,105994,297837,410027
1629795361196,105995,297866,410037
1629795361206,105985,297809,410058
1629795361216,105989,297836,410029
1629795361226,105986,297824,410001
1629795361236,105987,297845,409993
1629795361246,105976,297846,410043
1629795361256,105993,297821,410038
1629795361266,105988,297816,410001
1629795361276,105982,297860,410053
1629795361286,105995,297823,410060
1629795361296,105991,297864,410015
1629795361306,106004,297792,410034
1629795361316,106003,297802,410056
1629795361326,106022,297834,410054
1629795361336,106011,297851,410056
1629795361346,106001,297838,410057
1629795361356,106014,297842,410052
1629795361366,106020,297822,410049
1629795361376,106018,297847,410068
1629795361386,106002,297860,410049
1629795361396,106027,297807,410012
1629795361406,106034,297866,410016
1629795361416,106030,297801,410018
1629795361426,106057,297806,410119
1629795361436,106071,297837,410068
1629795361446,106067,297864,410025
1629795361456,106069,297858,410032
1629795361466,106070,297865,410078
1629795361476,106068,297867,410040
1629795361486,106099,297874,410062
1629795361496,106105,297883,410063
1629795361506,106110,297918,410055
1629795361516,106115,297872,410054
1629795361526,106121,297881,410097
1629795361536,106131,297893,410071
1629795361546,106146,297898,410054
1629795361556,106152,297898,410053
1629795361566,106165,297898,410087
1629795361576,106171,297885,410131
1629795361586,106189,297914,410112
1629795361596,106195,297927,410105
1629795361606,106190,297923,410115
1629795361616,106198,297916,410075
1629795361626,106207,297939,410042
1629795361636,106241,297910,410076
1629795361646,106240,297976,410076
1629795361656,106262,297914,410097
1629795361666,106256,297950,410081
1629795361676,106285,297975,410114
1629795361686,106288,297962,410061
1629795361696,106297,297966,410105
1629795361706,106307,297967,410085
1629795361716,106326,297974,410119
1629795361726,106341,297991,410082
1629795361736,106353,297987,410124
1629795361746,106360,297973,410081
1629795361756,106370,297965,410147
1629795361766,106396,298006,410112
1629795361776,106405,298013,410128
1629795361786,106418,298018,410169
1629795361796,106429,298015,410094
1629795361806,106434,297993,410152
1629795361816,106429,297997,410086
1629795361826,106447,298040,410151
1629795361836,106466,298034,410139
1629795361846,106480,298002,410115
1629795361856,106496,298012,410135
1629795361866,106519,298049,410132
1629795361876,106523,298069,410126
1629795361886,106535,298076,410172
1629795361896,106543,298023,410122
1629795361906,106556,298059,410104
1629795361916,106563,298024,410128
1629795361926,106570,298040,410101
1629795361936,106588,298044,410061
1629795361946,106593,298063,410084
1629795361956,106582,298025,410086
1629795361966,106599,297995,410088
1629795361976,106600,297940,410059
1629795361986,106600,297986,410126
1629795361996,106603,297983,410039
1629795362006,106601,297959,410042
1629795362016,106612,297950,410059
1629795362026,106608,297920,410033
1629795362036,106598,297906,409996
1629795362046,106592,297919,410010
1629795362056,106617,297917,409960
1629795362066,106606,297923,409997
1629795362076,106618,297878,410029
1629795362086,106599,297923,410010
1629795362096,106614,297906,410031
1629795362106,106606,297912,410016
1629795362116,106619,297886,409964
1629795362126,106620,297917,409984
1629795362136,106632,297879,410004
1629795362146,106616,297901,409967
1629795362156,106629,297910,409975
1629795362166,106649,297929,409977
1629795362176,106634,297880,410006
1629795362186,106639,297889,409994
1629795362196,106645,297901,410028
1629795362206,106641,297874,409960
1629795362216,106669,297864,409957
1629795362226,106661,297904,410017
1629795362236,106680,297910,410030
1629795362246,106677,297892,409963
1629795362256,106691,297897,409974
1629795362266,106689,297907,410000
1629795362276,106692,297916,409961
1629795362286,106715,297863,409976
1629795362296,106712,297868,409954
1629795362306,106708,297859,409957
1629795362316,106729,297925,409912
1629795362326,106728,297900,409946
1629795362336,106748,297883,409963
1629795362346,106744,297877,410013
1629795362356,106760,297899,410015
1629795362366,106768,297903,409988
1629795362376,106766,297892,409972
1629795362386,106781,297904,409951
1629795362396,106801,297926,409990
1629795362406,106811,297910,410013
1629795362416,106815,297914,409992
1629795362426,106829,297943,409986
1629795362436,106834,297941,410005
1629795362446,106843,297948,409964
1629795362456,106844,297984,409979
1629795362466,106865,297906,409994
1629795362476,106863,297926,410010
1629795362486,106884,297911,410039
1629795362496,106883,297949,410019
1629795362506,106911,297932,410004
1629795362516,106917,297929,410036
1629795362526,106928,297946,409988
1629795362536,106939,297916,410004
1629795362546,106971,297973,410021
1629795362556,106993,297926,410057
1629795362566,106957,297981,410070
1629795362576,106984,297952,410037
1629795362586,106991,297946,410029
1629795362596,106998,297967,410078
1629795362606,107017,297939,410001
1629795362616,107031,297969,410026
1629795362626,107035,298008,410028
1629795362636,107041,297978,410053
1629795362646,107058,297946,410017
1629795362656,107064,297983,410049
1629795362666,107072,297994,410056
1629795362676,107094,297970,410033
1629795362686,107110,298009,410035
1629795362696,107114,298001,410015
1629795362706,107120,297973,410018
1629795362716,107129,297940,410028
1629795362726,107132,297930,410015
1629795362736,107132,297931,410040
1629795362746,107147,297868,410017
1629795362756,107132,297938,410031
1629795362766,107145,297919,410015
1629795362776,107142,297895,410007
1629795362786,107153,297913,410019
1629795362796,107133,297890,410016
1629795362806,107141,297873,410003
1629795362816,107143,297842,409994
1629795362826,107132,297864,409981
1629795362836,107149,297863,409936
1629795362846,107137,297822,409937
1629795362856,107129,297870,409918
1629795362866,107130,297867,409959
1629795362876,107133,297837,409883
1629795362886,107141,297827,409898
1629795362896,107142,297857,409932
1629795362906,107132,297847,409926
1629795362916,107155,297835,409941
1629795362926,107137,297878,409960
1629795362936,107144,297839,409961
1629795362946,107157,297825,409923
1629795362956,107159,297808,409902
1629795362966,107161,297827,409963
1629795362976,107140,297900,409944
1629795362986,107155,297875,409958
1629795362996,107167,297894,409936
1629795363006,107163,297868,409961
1629795363016,107172,297866,409919
1629795363026,107195,297866,409922
1629795363036,107180,297889,409877
1629795363046,107169,297843,409921
1629795363056,107182,297846,409899
1629795363066,107168,297844,409911
1629795363076,107192,297818,409940
1629795363086,107196,297853,409938
1629795363096,107213,297895,409939
1629795363106,107205,297861,409966
1629795363116,107223,297822,409840
1629795363126,107216,297875,409910
1629795363136,107220,297843,409899
1629795363146,107237,297862,409884
1629795363156,107242,297836,409887
1629795363166,107240,297911,409902
1629795363176,107235,297860,409940
1629795363186,107247,297903,409849
1629795363196,107244,297904,409901
1629795363206,107253,297888,409908
1629795363216,107270,297893,409911
1629795363226,107279,297908,409893
1629795363236,107279,297876,409935
1629795363246,107278,297911,409895
1629795363256,107292,297900,409939
1629795363266,107318,297932,409931
1629795363276,107308,297922,409915
1629795363286,107314,297958,409901
1629795363296,107320,297937,409888
1629795363306,107338,297889,409906
1629795363316,107343,297947,409884
1629795363326,107340,297940,409921
1629795363336,107353,297946,409910
1629795363346,107371,297903,409905
1629795363356,107377,297965,409924
1629795363366,107383,297971,409962
1629795363376,107385,297983,409936
1629795363386,107410,297981,409963
1629795363396,107407,297966,409930
1629795363406,107420,297995,409908
1629795363416,107421,297982,409949
1629795363426,107434,297983,409906
1629795363436,107453,297993,409934
1629795363446,107461,297983,409904
1629795363456,107445,297966,409904
1629795363466,107443,297909,409897
1629795363476,107446,297929,409899
1629795363486,107433,297908,409875
1629795363496,107438,297897,409827
1629795363506,107419,297859,409876
1629795363516,107409,297856,409809
1629795363526,107393,297857,409796
1629795363536,107387,297891,409819
1629795363546,107374,297844,409815
1629795363556,107387,297843,409826
1629795363566,107379,297856,409788
1629795363576,107357,297791,409797
1629795363586,107363,297822,409805
1629795363596,107342,297836,409791
1629795363606,107330,297851,409740
1629795363616,107329,297815,409763
1629795363626,107319,297830,409766
1629795363636,107310,297821,409760
1629795363646,107296,297841,409788
1629795363656,107298,297807,409780
1629795363666,107287,297780,409796
1629795363676,107291,297821,409819
1629795363686,107287,297815,409759
1629795363696,107299,297776,409813
1629795363706,107271,297801,409852
1629795363716,107276,297757,409741
1629795363726,107262,297807,409768
1629795363736,107262,297781,409731
1629795363746,107248,297811,409759
1629795363756,107241,297819,409754
1629795363766,107250,297758,409734
1629795363776,107254,297783,409794
1629795363786,107231,297779,409740
1629795363796,107230,297812,409713
1629795363806,107234,297805,409751
1629795363816,107234,297770,409740
1629795363826,107211,297777,409714
1629795363836,107231,297810,409739
1629795363846,107216,297788,409738
1629795363856,107218,297780,409721
1629795363866,107219,297803,409693
1629795363876,107210,297843,409747
1629795363886,107213,297821,409728
1629795363896,107210,297833,409750
1629795363906,107209,297793,409697
1629795363916,107203,297812,409681
1629795363926,107207,297823,409732
1629795363936,107217,297801,409686
1629795363946,107222,297825,409700
1629795363956,107221,297803,409661
1629795363966,107219,297802,409725
1629795363976,107226,297791,409715
1629795363986,107228,297831,409673
1629795363996,107234,297829,409693
1629795364006,107241,297848,409699
1629795364016,107246,297824,409689
1629795364026,107251,297853,409670
1629795364036,107251,297842,409683
1629795364046,107248,297850,409678
1629795364056,107272,297835,409685
1629795364066,107280,297865,409717
1629795364076,107270,297858,409749
1629795364086,107279,297843,409690
1629795364096,107283,297872,409661
1629795364106,107275,297857,409694
1629795364116,107301,297874,409624
1629795364126,107292,297887,409674
1629795364136,107297,297867,409693
1629795364146,107308,297913,409666
1629795364156,107320,297849,409657
1629795364166,107322,297882,409665
1629795364176,107323,297900,409671
1629795364186,107320,297885,409652
1629795364196,107331,297840,409650
1629795364206,107318,297867,409634
1629795364216,107324,297854,409653
1629795364226,107306,297863,409609
1629795364236,107330,297762,409612
1629795364246,107290,297756,409631
1629795364256,107284,297770,409591
1629795364266,107263,297758,409559
1629795364276,107249,297743,409530
1629795364286,107229,297743,409563
1629795364296,107201,297678,409536
1629795364306,107188,297718,409527
1629795364316,107179,297691,409513
1629795364326,107179,297745,409538
1629795364336,107154,297698,409527
1629795364346,107132,297668,409547
1629795364356,107108,297653,409473
1629795364366,107070,297659,409425
1629795364376,107062,297635,409429
1629795364386,107035,297636,409493
1629795364396,107003,297635,409407
1629795364406,106984,297617,409453
1629795364416,106978,297570,409418
1629795364426,106975,297589,409421
1629795364436,106946,297645,409443
1629795364446,106928,297617,409407
1629795364456,106922,297565,409454
1629795364466,106905,297582,409432
1629795364476,106889,297602,409401
1629795364486,106875,297600,409453
1629795364496,106863,297558,409396
1629795364506,106867,297586,409445
1629795364516,106833,297606,409394
1629795364526,106823,297555,409373
1629795364536,106809,297586,409403
1629795364546,106805,297551,409395
1629795364556,106791,297582,409412
1629795364566,106787,297564,409405
1629795364576,106764,297573,409406
1629795364586,106748,297564,409405
1629795364596,106745,297548,409399
1629795364606,106726,297537,409371
1629795364616,106720,297539,409430
1629795364626,106708,297566,409405
1629795364636,106692,297526,409379
1629795364646,106686,297549,409378
1629795364656,106682,297555,409420
1629795364666,106680,297560,409367
1629795364676,106675,297518,409353
1629795364686,106682,297551,409380
1629795364696,106682,297566,409361
1629795364706,106668,297594,409410
1629795364716,106680,297585,409400
1629795364726,106666,297579,409378
1629795364736,106679,297560,409420
1629795364746,106664,297617,409385
1629795364756,106671,297618,409408
1629795364766,106671,297608,409383
1629795364776,106676,297591,409359
1629795364786,106671,297624,409395
1629795364796,106673,297601,409414
1629795364806,106669,297606,409370
1629795364816,106683,297587,409387
1629795364826,106669,297620,409423
1629795364836,106671,297630,409407
1629795364846,106675,297600,409371
1629795364856,106676,297621,409446
1629795364866,106676,297613,409429
1629795364876,106671,297632,409395
1629795364886,106695,297644,409368
1629795364896,106707,297670,409392
1629795364906,106696,297698,409371
1629795364916,106690,297626,409458
1629795364926,106712,297682,409412
1629795364936,106707,297693,409419
1629795364946,106717,297666,409397
1629795364956,106729,297680,409411
1629795364966,106718,297640,409394
1629795364976,106726,297693,409396
1629795364986,106701,297653,409380
1629795364996,106701,297620,409359
1629795365006,106687,297567,409338
1629795365016,106673,297580,409356
1629795365026,106659,297572,409321
1629795365036,106647,297553,409281
1629795365046,106580,297492,409316
1629795365056,106578,297540,409245
1629795365066,106563,297553,409294
1629795365076,106536,297478,409278
1629795365086,106504,297475,409241
1629795365096,106480,297436,409252
1629795365106,106460,297431,409257
1629795365116,106429,297447,409225
1629795365126,106402,297451,409224
1629795365136,106384,297404,409224
1629795365146,106353,297407,409212
1629795365156,106319,297390,409169
1629795365166,106287,297403,409197
1629795365176,106271,297360,409179
1629795365186,106226,297333,409155
1629795365196,106219,297343,409167
1629795365206,106197,297346,409183
1629795365216,106180,297394,409158
1629795365226,106150,297358,409177
1629795365236,106134,297360,409180
1629795365246,106111,297323,409149
1629795365256,106092,297351,409183
1629795365266,106090,297346,409166
1629795365276,106053,297275,409141
1629795365286,106041,297341,409196
1629795365296,106027,297323,409145
1629795365306,106005,297300,409139
1629795365316,106000,297328,409154
1629795365326,105978,297294,409155
1629795365336,105967,297282,409168
1629795365346,105963,297321,409186
1629795365356,105919,297277,409131
1629795365366,105923,297321,409188
1629795365376,105903,297296,409174
1629795365386,105905,297361,409152
1629795365396,105886,297316,409121
1629795365406,105874,297302,409117
1629795365416,105859,297311,409126
1629795365426,105851,297287,409140
1629795365436,105849,297353,409164
1629795365446,105850,297282,409184
1629795365456,105840,297348,409158
1629795365466,105817,297320,409156
1629795365476,105826,297317,409141
1629795365486,105820,297336,409135
1629795365496,105819,297321,409136
1629795365506,105805,297310,409124
1629795365516,105802,297335,409137
1629795365526,105798,297315,409135
1629795365536,105803,297303,409164
1629795365546,105791,297328,409122
1629795365556,105793,297374,409143
1629795365566,105793,297297,409140
1629795365576,105802,297288,409096
1629795365586,105793,297333,409131
1629795365596,105792,297318,409123
1629795365606,105803,297335,409100
1629795365616,105793,297322,409107
1629795365626,105790,297361,409158
1629795365636,105810,297379,409096
1629795365646,105796,297377,409070
1629795365656,105802,297344,409133
1629795365666,105808,297374,409093
1629795365676,105808,297398,409092
1629795365686,105811,297342,409146
1629795365696,105822,297364,409113
1629795365706,105809,297358,409107
1629795365716,105828,297393,409145
1629795365726,105828,297375,409135
1629795365736,105825,297393,409106
1629795365746,105838,297359,409060
1629795365756,105840,297388,409097
1629795365766,105856,297398,409167
1629795365776,105859,297422,409119
1629795365786,105868,297423,409134
1629795365796,105858,297359,409130
1629795365806,105873,297379,409129
1629795365816,105865,297420,409092
1629795365826,105876,297432,409102
1629795365836,105887,297362,409069
1629795365846,105885,297357,409026
1629795365856,105840,297321,409085
1629795365866,105830,297330,409020
1629795365876,105811,297274,409010
1629795365886,105774,297244,408967
1629795365896,105745,297217,408954
1629795365906,105724,297236,408955
1629795365916,105698,297207,408939
1629795365926,105675,297198,408878
1629795365936,105633,297173,408905
1629795365946,105603,297148,408820
1629795365956,105579,297125,408889
1629795365966,105553,297098,408837
1629795365976,105514,297110,408857
1629795365986,105491,297096,408887
1629795365996,105454,297071,408798
1629795366006,105418,297115,408830
1629795366016,105393,297065,408802
1629795366026,105364,297049,408805
1629795366036,105345,297051,408803
1629795366046,105315,297056,408788
1629795366056,105307,297048,408772
1629795366066,105272,297029,408784
1629795366076,105264,297042,408778
1629795366086,105238,297038,408762
1629795366096,105220,297048,408776
1629795366106,105224,297081,408781
1629795366116,105195,297042,408735
1629795366126,105195,297047,408741
1629795366136,105183,297033,408824
1629795366146,105160,297059,408793
1629795366156,105139,297018,408763
1629795366166,105122,297015,408736
1629795366176,105100,297017,408770
1629795366186,105094,297071,408748
1629795366196,105081,297020,408774
1629795366206,105069,297025,408777
1629795366216,105060,297044,408806
1629795366226,105044,297035,408771
1629795366236,105035,297035,408777
1629795366246,105040,297033,408790
1629795366256,105017,297047,408812
1629795366266,105005,297075,408772
1629795366276,105003,297014,408810
1629795366286,104995,297037,408786
1629795366296,105001,297063,408784
1629795366306,104984,297081,408772
1629795366316,104977,297073,408812
1629795366326,104977,297052,408786
1629795366336,104987,297089,408793
1629795366346,104984,297080,408782
1629795366356,104983,297091,408796
1629795366366,104972,297087,408823
1629795366376,104978,297066,408780
1629795366386,104975,297097,408821
1629795366396,104985,297062,408779
1629795366406,104983,297108,408859
1629795366416,104983,297157,408850
1629795366426,104987,297121,408869
1629795366436,104985,297134,408871
1629795366446,104986,297172,408823
1629795366456,104992,297141,408886
1629795366466,104998,297146,408904
1629795366476,105000,297181,408878
1629795366486,105011,297168,408940
1629795366496,105002,297213,408924
1629795366506,105031,297200,408881
1629795366516,105041,297217,408910
1629795366526,105030,297250,408907
1629795366536,105039,297216,408937
1629795366546,105061,297191,408953
1629795366556,105068,297237,408935
1629795366566,105077,297232,408951
1629795366576,105080,297260,408969
1629795366586,105097,297283,408971
1629795366596,105090,297302,408986
1629795366606,105110,297308,409033
1629795366616,105113,297324,409030
1629795366626,105131,297323,409042
1629795366636,105142,297302,409064
1629795366646,105170,297377,409106
1629795366656,105156,297368,409064
1629795366666,105168,297420,409084
1629795366676,105185,297434,409141
1629795366686,105199,297409,409117
1629795366696,105220,297430,409167
1629795366706,105217,297426,409145
1629795366716,105224,297383,409113
1629795366726,105235,297432,409099
1629795366736,105240,297386,409136
1629795366746,105225,297390,409109
1629795366756,105204,297399,409056
1629795366766,105200,297342,409092
1629795366776,105175,297318,409106
1629795366786,105168,297363,409116
1629795366796,105139,297358,409147
1629795366806,105116,297360,409104
1629795366816,105098,297352,409110
1629795366826,105084,297340,409109
1629795366836,105069,297347,409131
1629795366846,105063,297317,409117
1629795366856,105052,297322,409131
1629795366866,105026,297381,409108
1629795366876,105002,297342,409069
1629795366886,104992,297301,409120
1629795366896,104961,297309,409120
1629795366906,104958,297321,409061
1629795366916,104940,297353,409102
1629795366926,104915,297335,409110
1629795366936,104901,297316,409108
1629795366946,104896,297342,409158
1629795366956,104897,297359,409141
1629795366966,104856,297318,409140
1629795366976,104876,297330,409164
1629795366986,104853,297316,409171
1629795366996,104857,297322,409133
1629795367006,104842,297364,409151
1629795367016,104854,297292,409187
1629795367026,104834,297362,409201
1629795367036,104832,297328,409168
1629795367046,104819,297394,409181
1629795367056,104810,297348,409193
1629795367066,104799,297366,409166
1629795367076,104798,297322,409199
1629795367086,104790,297400,409233
1629795367096,104800,297352,409204
1629795367106,104779,297332,409224
1629795367116,104766,297352,409219
1629795367126,104774,297343,409205
1629795367136,104780,297379,409223
1629795367146,104782,297357,409155
1629795367156,104773,297384,409229
1629795367166,104773,297353,409199
1629795367176,104768,297415,409221
1629795367186,104786,297396,409223
1629795367196,104772,297395,409214
1629795367206,104778,297411,409215
1629795367216,104771,297401,409228
1629795367226,104778,297422,409264
1629795367236,104788,297441,409266
1629795367246,104779,297402,409240
1629795367256,104794,297413,409257
1629795367266,104806,297427,409247
1629795367276,104810,297437,409270
1629795367286,104829,297455,409330
1629795367296,104813,297475,409320
1629795367306,104845,297466,409347
1629795367316,104839,297509,409322
1629795367326,104865,297479,409360
1629795367336,104877,297520,409373
1629795367346,104881,297536,409335
1629795367356,104893,297576,409347
1629795367366,104903,297574,409348
1629795367376,104909,297572,409380
1629795367386,104924,297599,409398
1629795367396,104921,297591,409389
1629795367406,104949,297603,409384
1629795367416,104962,297637,409384
1629795367426,104964,297644,409405
1629795367436,104972,297669,409450
1629795367446,104984,297647,409488
1629795367456,105001,297646,409525
1629795367466,105010,297683,409493
1629795367476,105025,297676,409426
1629795367486,105034,297685,409508
1629795367496,105035,297664,409490
1629795367506,105057,297702,409457
1629795367516,105065,297707,409503
1629795367526,105071,297698,409482
1629795367536,105088,297745,409508
1629795367546,105103,297768,409530
1629795367556,105107,297781,409522
1629795367566,105129,297734,409556
1629795367576,105148,297748,409526
1629795367586,105145,297761,409559
1629795367596,105152,297754,409497
1629795367606,105159,297744,409555
1629795367616,105163,297718,409521
1629795367626,105175,297685,409494
1629795367636,105174,297711,409528
1629795367646,105158,297665,409511
1629795367656,105165,297696,409516
1629795367666,105137,297688,409455
1629795367676,105135,297659,409486
1629795367686,105104,297688,409479
1629795367696,105116,297671,409451
1629795367706,105104,297655,409480
1629795367716,105081,297654,409493
1629795367726,105087,297674,409486
1629795367736,105075,297666,409473
1629795367746,105051,297636,409489
1629795367756,105063,297642,409480
1629795367766,105037,297625,409455
1629795367776,105048,297594,409463
1629795367786,105026,297633,409492
1629795367796,105029,297613,409522
1629795367806,105022,297595,409489
1629795367816,105007,297674,409480
1629795367826,105003,297644,409484
1629795367836,105002,297652,409470
1629795367846,105014,297662,409504
1629795367856,105007,297641,409485
1629795367866,105005,297653,409501
1629795367876,105003,297667,409492
1629795367886,105004,297668,409531
1629795367896,105015,297679,409447
1629795367906,105015,297641,409506
1629795367916,105012,297694,409561
1629795367926,105009,297710,409517
1629795367936,105038,297712,409537
1629795367946,105007,297659,409579
1629795367956,105031,297710,409552
1629795367966,105038,297673,409559
1629795367976,105053,297639,409540
1629795367986,105044,297689,409555
1629795367996,105054,297707,409559
1629795368006,105045,297748,409610
1629795368016,105062,297694,409574
1629795368026,105055,297743,409591
1629795368036,105085,297716,409586
1629795368046,105087,297725,409599
1629795368056,105091,297723,409595
1629795368066,105087,297708,409595
1629795368076,105103,297740,409518
1629795368086,105108,297722,409550
1629795368096,105119,297739,409608
1629795368106,105138,297734,409538
1629795368116,105128,297712,409561
1629795368126,105158,297756,409562
1629795368136,105162,297731,409566
1629795368146,105169,297750,409584
1629795368156,105180,297800,409559
1629795368166,105211,297780,409567
1629795368176,105209,297766,409570
1629795368186,105220,297786,409586
1629795368196,105246,297787,409645
1629795368206,105255,297807,409617
1629795368216,105273,297840,409596
1629795368226,105277,297821,409658
1629795368236,105297,297836,409646
1629795368246,105312,297845,409659
1629795368256,105331,297837,409617
1629795368266,105336,297831,409656
1629795368276,105350,297834,409720
1629795368286,105378,297884,409671
1629795368296,105380,297862,409612
1629795368306,105384,297894,409690
1629795368316,105416,297900,409714
1629795368326,105422,297913,409643
1629795368336,105436,297934,409711
1629795368346,105445,297941,409663
1629795368356,105469,297960,409725
1629795368366,105480,297928,409717
1629795368376,105494,297912,409754
1629795368386,105504,297946,409732
1629795368396,105519,297973,409774
1629795368406,105541,298038,409759
1629795368416,105561,297942,409776
1629795368426,105571,297981,409750
1629795368436,105588,297978,409794
1629795368446,105587,297945,409762
1629795368456,105587,297947,409729
1629795368466,105615,297964,409741
1629795368476,105608,297945,409776
1629795368486,105605,297966,409730
1629795368496,105609,297968,409721
1629795368506,105619,297944,409708
1629795368516,105613,297903,409707
1629795368526,105604,297895,409721
1629795368536,105610,297904,409729
1629795368546,105599,297921,409711
1629795368556,105620,297916,409712
1629795368566,105609,297935,409754
1629795368576,105611,297917,409698
1629795368586,105608,297934,409746
1629795368596,105613,297921,409733
1629795368606,105602,297942,409778
1629795368616,105614,297901,409720
1629795368626,105623,297940,409753
1629795368636,105620,297878,409775
1629795368646,105598,297875,409813
1629795368656,105618,297903,409762
1629795368666,105624,297913,409730
1629795368676,105629,297938,409743
1629795368686,105630,297924,409780
1629795368696,105632,297903,409755
1629795368706,105650,297936,409743
1629795368716,105646,297935,409792
1629795368726,105646,297918,409754
1629795368736,105658,297889,409785
1629795368746,105667,297948,409799
1629795368756,105671,297945,409797
1629795368766,105687,297946,409802
1629795368776,105689,297970,409796
1629795368786,105699,297946,409828
1629795368796,105704,297972,409797
1629795368806,105720,297980,409790
1629795368816,105713,297978,409846
1629795368826,105732,297975,409836
1629795368836,105729,298008,409842
1629795368846,105742,297986,409794
1629795368856,105758,297954,409832
1629795368866,105764,297996,409832
1629795368876,105780,297970,409886
1629795368886,105788,297942,409849
1629795368896,105796,298004,409848
1629795368906,105809,298028,409896
1629795368916,105824,297969,409876
1629795368926,105829,298057,409904
1629795368936,105846,298030,409833
1629795368946,105853,298043,409873
1629795368956,105891,298090,409886
1629795368966,105882,297999,409844
1629795368976,105899,298021,409877
1629795368986,105907,298034,409873
1629795368996,105937,298087,409888
1629795369006,105941,298088,409907
1629795369016,105961,298044,409911
1629795369026,105979,298074,409893
1629795369036,105993,298078,409927
1629795369046,106012,298074,409947
1629795369056,106023,298091,409951
1629795369066,106032,298093,409941
1629795369076,106059,298109,409957
1629795369086,106062,298103,409954
1629795369096,106081,298122,409990
1629795369106,106093,298113,409954
1629795369116,106115,298104,409964
1629795369126,106126,298115,409994
1629795369136,106141,298124,409974
1629795369146,106162,298141,409957
1629795369156,106175,298116,410021
1629795369166,106193,298151,410033
1629795369176,106197,298147,410035
1629795369186,106221,298150,410011
1629795369196,106234,298153,410063
1629795369206,106258,298181,410040
1629795369216,106265,298203,410052
1629795369226,106286,298228,410016
1629795369236,106287,298228,410056
1629795369246,106295,298185,410034
1629795369256,106335,298206,410022
1629795369266,106325,298186,410016
1629795369276,106335,298117,410056
1629795369286,106331,298121,410043
1629795369296,106342,298112,410018
1629795369306,106351,298133,410004
1629795369316,106355,298139,410030
1629795369326,106355,298133,410046
1629795369336,106366,298116,410029
1629795369346,106358,298168,410002
1629795369356,106390,298134,410039
1629795369366,106379,298123,410052
1629795369376,106379,298145,410014
1629795369386,106390,298099,410005
1629795369396,106385,298133,410025
1629795369406,106407,298130,410043
1629795369416,106403,298138,410022
1629795369426,106412,298131,410039
1629795369436,106406,298109,410023
1629795369446,106411,298119,410036
1629795369456,106420,298116,410076
1629795369466,106431,298161,410035
1629795369476,106438,298112,410069
1629795369486,106444,298140,410073
1629795369496,106443,298134,410055
1629795369506,106462,298175,410086
1629795369516,106472,298168,410090
1629795369526,106489,298155,410106
1629795369536,106499,298159,410051
1629795369546,106502,298170,410047
1629795369556,106487,298144,410056
1629795369566,106515,298162,410124
1629795369576,106524,298188,410102
1629795369586,106535,298193,410111
1629795369596,106547,298179,410103
1629795369606,106554,298200,410127
1629795369616,106561,298174,410162
1629795369626,106579,298240,410097
1629795369636,106580,298195,410135
1629795369646,106602,298193,410136
1629795369656,106602,298196,410126
1629795369666,106618,298187,410140
1629795369676,106635,298200,410140
1629795369686,106651,298219,410152
1629795369696,106650,298200,410133
1629795369706,106658,298242,410212
1629795369716,106676,298221,410174
1629795369726,106706,298217,410134
1629795369736,106689,298219,410181
1629795369746,106712,298265,410207
1629795369756,106726,298297,410183
1629795369766,106758,298257,410206
1629795369776,106743,298240,410207
1629795369786,106765,298280,410227
1629795369796,106784,298279,410200
1629795369806,106799,298265,410229
1629795369816,106808,298263,410253
1629795369826,106827,298315,410223
1629795369836,106824,298336,410214
1629795369846,106849,298332,410215
1629795369856,106870,298310,410284
1629795369866,106869,298295,410223
1629795369876,106872,298291,410263
1629795369886,106894,298300,410249
1629795369896,106913,298356,410227
1629795369906,106924,298283,410251
1629795369916,106931,298364,410242
1629795369926,106954,298366,410314
1629795369936,106984,298392,410271
1629795369946,106992,298383,410318
1629795369956,106998,298333,410284
1629795369966,107022,298384,410311
1629795369976,107025,298375,410322
1629795369986,107021,298312,410286
1629795369996,107048,298382,410268
1629795370006,107067,298373,410294
1629795370016,107059,298335,410323
1629795370026,107051,298307,410252
1629795370036,107064,298273,410245
1629795370046,107065,298263,410215
1629795370056,107071,298275,410172
1629795370066,107066,298299,410217
1629795370076,107066,298267,410222
1629795370086,107071,298238,410237
1629795370096,107070,298287,410236
1629795370106,107074,298245,410180
1629795370116,107077,298251,410241
1629795370126,107080,298233,410198
1629795370136,107076,298214,410206
1629795370146,107082,298261,410170
1629795370156,107098,298206,410169
1629795370166,107088,298230,410204
1629795370176,107098,298222,410200
1629795370186,107081,298232,410220
1629795370196,107085,298239,410208
1629795370206,107099,298243,410238
1629795370216,107106,298233,410212
1629795370226,107090,298255,410281
1629795370236,107117,298276,410244
1629795370246,107110,298237,410235
1629795370256,107123,298233,410197
1629795370266,107121,298225,410198
1629795370276,107122,298237,410201
1629795370286,107138,298243,410221
1629795370296,107144,298221,410238
1629795370306,107148,298246,410180
1629795370316,107152,298282,410195
1629795370326,107156,298247,410192
1629795370336,107153,298215,410220
1629795370346,107170,298253,410221
1629795370356,107183,298250,410244
1629795370366,107184,298246,410222
1629795370376,107193,298229,410230
1629795370386,107183,298270,410282
1629795370396,107197,298257,410265
1629795370406,107205,298275,410229
1629795370416,107216,298288,410201
1629795370426,107211,298283,410254
1629795370436,107229,298282,410250
1629795370446,107239,298220,410261
1629795370456,107253,298281,410232
1629795370466,107265,298296,410269
1629795370476,107255,298284,410216
1629795370486,107270,298335,410266
1629795370496,107282,298294,410248
1629795370506,107293,298295,410270
1629795370516,107290,298291,410250
1629795370526,107307,298307,410266
1629795370536,107324,298294,410229
1629795370546,107324,298337,410272
1629795370556,107343,298329,410245
1629795370566,107349,298335,410303
1629795370576,107354,298320,410241
1629795370586,107358,298279,410248
1629795370596,107390,298308,410263
1629795370606,107384,298383,410285
1629795370616,107400,298368,410259
1629795370626,107399,298314,410261
1629795370636,107416,298368,410314
1629795370646,107435,298368,410299
1629795370656,107439,298390,410302
1629795370666,107453,298358,410330
1629795370676,107463,298370,410302
1629795370686,107475,298377,410321
1629795370696,107489,298396,410301
1629795370706,107489,298363,410290
1629795370716,107505,298345,410263
1629795370726,107499,298352,410309
1629795370736,107503,298378,410270
1629795370746,107507,298345,410212
1629795370756,107521,298312,410274
1629795370766,107516,298307,410252
1629795370776,107503,298328,410214
1629795370786,107520,298285,410208
1629795370796,107498,298274,410207
1629795370806,107501,298299,410207
1629795370816,107497,298286,410158
1629795370826,107483,298281,410175
1629795370836,107486,298264,410170
1629795370846,107483,298268,410166
1629795370856,107489,298298,410174
1629795370866,107476,298265,410151
1629795370876,107470,298260,410174
1629795370886,107469,298217,410126
1629795370896,107456,298263,410182
1629795370906,107461,298232,410189
1629795370916,107440,298248,410148
1629795370926,107440,298192,410082
1629795370936,107439,298235,410173
1629795370946,107427,298189,410119
1629795370956,107432,298189,410137
1629795370966,107425,298232,410116
1629795370976,107429,298207,410104
1629795370986,107418,298255,410141
1629795370996,107430,298246,410137
1629795371006,107433,298245,410115
1629795371016,107413,298199,410071
1629795371026,107426,298185,410105
1629795371036,107407,298217,410121
1629795371046,107413,298183,410126
1629795371056,107412,298242,410117
1629795371066,107417,298200,410134
1629795371076,107414,298205,410153
1629795371086,107413,298199,410112
1629795371096,107401,298210,410090
1629795371106,107403,298208,410078
1629795371116,107409,298226,410086
1629795371126,107412,298221,410138
1629795371136,107416,298213,410094
1629795371146,107411,298239,410090
1629795371156,107416,298240,410087
1629795371166,107407,298181,410115
1629795371176,107435,298244,410086
1629795371186,107433,298236,410035
1629795371196,107444,298202,410069
1629795371206,107450,298194,410086
1629795371216,107431,298228,410079
1629795371226,107438,298236,410116
1629795371236,107434,298228,410036
1629795371246,107455,298256,410108
1629795371256,107458,298258,410085
1629795371266,107466,298245,410078
1629795371276,107456,298245,410077
1629795371286,107479,298271,410105
1629795371296,107475,298284,410139
1629795371306,107478,298266,410117
1629795371316,107492,298238,410070
1629795371326,107502,298300,410109
1629795371336,107515,298291,410072
1629795371346,107515,298273,410121
1629795371356,107516,298323,410071
1629795371366,107528,298293,410122
1629795371376,107507,298301,410064
1629795371386,107532,298260,410081
1629795371396,107545,298311,410064
1629795371406,107547,298284,410067
1629795371416,107562,298333,410105
1629795371426,107554,298324,410096
1629795371436,107566,298341,410110
1629795371446,107564,298320,410103
1629795371456,107575,298346,410095
1629795371466,107598,298339,410085
1629795371476,107587,298308,410101
1629795371486,107592,298288,410074
1629795371496,107597,298287,410046
1629795371506,107597,298280,410064
1629795371516,107602,298281,410049
1629795371526,107596,298249,410032
1629795371536,107574,298257,409993
1629795371546,107572,298277,410071
1629795371556,107556,298243,409975
1629795371566,107553,298180,409983
1629795371576,107546,298191,409972
1629795371586,107528,298213,409983
1629795371596,107529,298190,409978
1629795371606,107517,298159,409962
1629795371616,107496,298164,409970
1629795371626,107484,298170,409946
1629795371636,107465,298150,409979
1629795371646,107457,298107,409949
1629795371656,107462,298157,409953
1629795371666,107443,298115,409951
1629795371676,107403,298124,409942
1629795371686,107404,298128,409914
1629795371696,107393,298102,409938
1629795371706,107365,298077,409894
1629795371716,107355,298077,409944
1629795371726,107344,298106,409883
1629795371736,107332,298060,409927
1629795371746,107327,298110,409882
1629795371756,107331,298085,409945
1629795371766,107312,298103,409880
1629795371776,107306,298086,409866
1629795371786,107301,298087,409861
1629795371796,107309,298120,409837
1629795371806,107301,298105,409882
1629795371816,107273,298104,409860
1629795371826,107262,298061,409851
1629795371836,107251,298078,409874
1629795371846,107254,298108,409916
1629795371856,107245,298112,409858
1629795371866,107250,298078,409846
1629795371876,107241,298047,409866
1629795371886,107227,298072,409884
1629795371896,107236,298095,409834
1629795371906,107239,298113,409826
1629795371916,107228,298097,409858
1629795371926,107213,298119,409850
1629795371936,107222,298064,409877
1629795371946,107220,298095,409897
1629795371956,107211,298096,409897
1629795371966,107219,298118,409900
1629795371976,107230,298135,409912
1629795371986,107194,298137,409848
1629795371996,107220,298130,409845
1629795372006,107214,298095,409847
1629795372016,107245,298074,409851
1629795372026,107226,298136,409831
1629795372036,107230,298112,409894
1629795372046,107241,298127,409878
1629795372056,107246,298159,409861
1629795372066,107235,298167,409862
1629795372076,107236,298205,409886
1629795372086,107238,298199,409851
1629795372096,107243,298178,409882
1629795372106,107251,298145,409865
1629795372116,107268,298183,409861
1629795372126,107262,298192,409913
1629795372136,107264,298213,409956
1629795372146,107275,298203,409870
1629795372156,107280,298243,409917
1629795372166,107291,298230,409929
1629795372176,107295,298250,409914
1629795372186,107290,298224,409941
1629795372196,107295,298273,409931
1629795372206,107322,298263,409966
1629795372216,107321,298284,409955
1629795372226,107328,298284,409961
1629795372236,107338,298292,409963
1629795372246,107344,298191,409927
1629795372256,107345,298218,409947
1629795372266,107332,298245,409941
1629795372276,107318,298209,409907
1629795372286,107324,298222,409945
1629795372296,107315,298221,409936
1629795372306,107310,298185,409903
1629795372316,107299,298208,409896
1629795372326,107275,298168,409911
1629795372336,107271,298136,409879
1629795372346,107245,298129,409830
1629795372356,107222,298148,409870
1629795372366,107191,298145,409816
1629795372376,107194,298115,409821
1629795372386,107148,298118,409849
1629795372396,107134,298098,409867
1629795372406,107113,298035,409799
1629795372416,107099,298096,409823
1629795372426,107080,298074,409816
1629795372436,107055,298057,409753
1629795372446,107021,298014,409747
1629795372456,107007,298059,409768
1629795372466,106968,298027,409771
1629795372476,106949,298028,409788
1629795372486,106935,298025,409751
1629795372496,106925,298002,409782
1629795372506,106909,297966,409745
1629795372516,106906,298032,409685
1629795372526,106870,298006,409702
1629795372536,106860,298029,409708
1629795372546,106851,298020,409745
1629795372556,106830,298027,409728
1629795372566,106811,298035,409694
1629795372576,106806,298019,409750
1629795372586,106787,297980,409702
1629795372596,106787,297980,409714
1629795372606,106777,297975,409716
1629795372616,106772,298010,409739
1629795372626,106766,297969,409672
1629795372636,106737,297953,409690
1629795372646,106734,297997,409698
1629795372656,106722,297984,409708
1629795372666,106705,297967,409627
1629795372676,106700,297968,409630
1629795372686,106696,297960,409662
1629795372696,106683,297998,409681
1629795372706,106691,297990,409712
1629795372716,106694,297998,409679
1629795372726,106685,297998,409697
1629795372736,106686,297989,409676
1629795372746,106673,297982,409685
1629795372756,106670,297997,409682
1629795372766,106666,297997,409640
1629795372776,106676,297996,409706
1629795372786,106695,297999,409634
1629795372796,106675,298015,409670
1629795372806,106676,298026,409658
1629795372816,106668,298027,409687
1629795372826,106668,298017,409633
1629795372836,106669,298027,409666
1629795372846,106668,298027,409693
1629795372856,106660,298028,409671
1629795372866,106683,298055,409610
1629795372876,106686,298026,409663
1629795372886,106670,298054,409690
1629795372896,106678,298045,409622
1629795372906,106692,298043,409651
1629795372916,106707,298102,409644
1629795372926,106686,298042,409661
1629795372936,106683,298030,409680
1629795372946,106701,298049,409650
1629795372956,106715,298092,409663
1629795372966,106712,298082,409688
1629795372976,106710,298071,409633
1629795372986,106719,298076,409679
1629795372996,106715,298107,409663
1629795373006,106747,298086,409666
1629795373016,106740,298070,409644
1629795373026,106734,298031,409610
1629795373036,106727,298015,409655
1629795373046,106728,298023,409621
1629795373056,106730,298033,409589
1629795373066,106710,298031,409585
1629795373076,106686,298006,409574
1629795373086,106675,298008,409541
1629795373096,106650,297932,409528
1629795373106,106627,297952,409516
1629795373116,106601,297968,409501
1629795373126,106571,297896,409513
1629795373136,106558,297912,409529
1629795373146,106545,297918,409491
1629795373156,106517,297905,409482
1629795373166,106491,297859,409477
1629795373176,106471,297894,409468
1629795373186,106454,297854,409486
1629795373196,106415,297852,409454
1629795373206,106394,297846,409471
1629795373216,106368,297876,409463
1629795373226,106341,297846,409428
1629795373236,106325,297842,409422
1629795373246,106299,297815,409449
1629795373256,106270,297819,409425
1629795373266,106260,297812,409409
1629795373276,106229,297838,409410
1629795373286,106219,297799,409458
1629795373296,106189,297807,409402
1629795373306,106201,297838,409391
1629795373316,106189,297829,409399
1629795373326,106159,297826,409403
1629795373336,106146,297803,409363
1629795373346,106147,297781,409395
1629795373356,106128,297824,409402
1629795373366,106116,297770,409376
1629795373376,106106,297780,409390
1629795373386,106088,297830,409403
1629795373396,106084,297766,409388
1629795373406,106070,297779,409390
1629795373416,106070,297783,409388
1629795373426,106050,297781,409347
1629795373436,106059,297780,409411
1629795373446,106052,297818,409394
1629795373456,106057,297785,409422
1629795373466,106032,297788,409416
1629795373476,106028,297811,409392
1629795373486,106021,297810,409370
1629795373496,106015,297806,409378
1629795373506,106027,297830,409425
1629795373516,106027,297789,409357
1629795373526,106024,297812,409372
1629795373536,106022,297855,409444
1629795373546,106023,297850,409388
1629795373556,106030,297851,409400
1629795373566,106039,297832,409387
1629795373576,106036,297814,409467
1629795373586,106029,297846,409430
1629795373596,106041,297855,409454
1629795373606,106043,297878,409421
1629795373616,106050,297843,409436
1629795373626,106054,297866,409424
1629795373636,106048,297907,409397
1629795373646,106063,297913,409451
1629795373656,106067,297888,409480
1629795373666,106083,297875,409466
1629795373676,106072,297906,409464
1629795373686,106083,297898,409456
1629795373696,106081,297906,409461
1629795373706,106086,297915,409434
1629795373716,106090,297922,409455
1629795373726,106099,297932,409444
1629795373736,106112,297968,409480
1629795373746,106120,297979,409448
1629795373756,106141,297926,409464
1629795373766,106128,297960,409464
1629795373776,106144,297939,409483
1629795373786,106153,298009,409502
1629795373796,106168,298004,409519
1629795373806,106172,298007,409518
1629795373816,106172,297998,409535
1629795373826,106175,297959,409524
1629795373836,106175,298011,409518
1629795373846,106165,297954,409492
1629795373856,106168,297935,409499
1629795373866,106156,297959,409469
1629795373876,106148,297932,409501
1629795373886,106127,297928,409484
1629795373896,106119,297933,409464
1629795373906,106089,297901,409495
1629795373916,106072,297904,409473
1629795373926,106051,297887,409474
1629795373936,106039,297897,409482
1629795373946,106013,297874,409466
1629795373956,105977,297860,409432
1629795373966,105957,297877,409477
1629795373976,105943,297873,409443
1629795373986,105920,297841,409453
1629795373996,105894,297865,409421
1629795374006,105880,297880,409423
1629795374016,105854,297823,409424
1629795374026,105824,297818,409449
1629795374036,105818,297831,409431
1629795374046,105799,297812,409437
1629795374056,105790,297804,409407
1629795374066,105770,297781,409465
1629795374076,105766,297809,409488
1629795374086,105743,297847,409414
1629795374096,105721,297791,409458
1629795374106,105738,297816,409445
1629795374116,105724,297793,409445
1629795374126,105719,297824,409419
1629795374136,105698,297781,409489
1629795374146,105699,297814,409470
1629795374156,105691,297839,409443
1629795374166,105678,297834,409437
1629795374176,105671,297846,409485
1629795374186,105646,297857,409443
1629795374196,105653,297842,409447
1629795374206,105649,297829,409438
1629795374216,105639,297827,409478
1629795374226,105635,297805,409470
1629795374236,105637,297869,409419
1629795374246,105637,297810,409459
1629795374256,105623,297846,409441
1629795374266,105627,297868,409475
