timestamp,ecg_waveform
1629894289782,2044
1629894289786,2042
1629894289790,2041
1629894289794,2040
1629894289798,2039
1629894289802,2038
1629894289806,2037
1629894289810,2036
1629894289814,2036
1629894289818,2035
1629894289822,2035
1629894289826,2036
1629894289830,2036
1629894289834,2037
1629894289838,2037
1629894289842,2038
1629894289846,2038
1629894289850,2039
1629894289854,2040
1629894289858,2040
1629894289862,2041
1629894289866,2042
1629894289870,2042
1629894289874,2042
1629894289878,2043
1629894289882,2043
1629894289886,2043
1629894289890,2043
1629894289894,2043
1629894289898,2043
1629894289902,2043
1629894289906,2043
1629894289910,2043
1629894289914,2043
1629894289918,2043
1629894289922,2042
1629894289926,2041
1629894289930,2040
1629894289934,2040
1629894289938,2040
1629894289942,2040
1629894289946,2040
1629894289950,2040
1629894289954,2039
1629894289958,2038
1629894289962,2038
1629894289966,2037
1629894289970,2036
1629894289974,2036
1629894289978,2036
1629894289982,2036
1629894289986,2036
1629894289990,2036
1629894289994,2036
1629894289998,2036
1629894290002,2036
1629894290006,2036
1629894290010,2036
1629894290014,2036
1629894290018,2037
1629894290022,2038
1629894290026,2038
1629894290030,2039
1629894290034,2038
1629894290038,2038
1629894290042,2037
1629894290046,2036
1629894290050,2036
1629894290054,2036
1629894290058,2037
1629894290062,2038
1629894290066,2038
1629894290070,2039
1629894290074,2039
1629894290078,2038
1629894290082,2038
1629894290086,2037
1629894290090,2037
1629894290094,2038
1629894290098,2039
1629894290102,2039
1629894290106,2039
1629894290110,2039
1629894290114,2038
1629894290118,2038
1629894290122,2038
1629894290126,2038
1629894290130,2038
1629894290134,2038
1629894290138,2037
1629894290142,2037
1629894290146,2037
1629894290150,2036
1629894290154,2036
1629894290158,2037
1629894290162,2038
1629894290166,2038
1629894290170,2040
1629894290174,2041
1629894290178,2043
1629894290182,2046
1629894290186,2048
1629894290190,2050
1629894290194,2051
1629894290198,2051
1629894290202,2050
1629894290206,2048
1629894290210,2048
1629894290214,2046
1629894290218,2043
1629894290222,2042
1629894290226,2041
1629894290230,2040
1629894290234,2040
1629894290238,2039
1629894290242,2038
1629894290246,2037
1629894290250,2037
1629894290254,2037
1629894290258,2037
1629894290262,2038
1629894290266,2038
1629894290270,2039
1629894290274,2040
1629894290278,2041
1629894290282,2041
1629894290286,2036
1629894290290,2028
1629894290294,2019
1629894290298,2014
1629894290302,2022
1629894290306,2052
1629894290310,2115
1629894290314,2194
1629894290318,2263
1629894290322,2287
1629894290326,2249
1629894290330,2160
1629894290334,2056
1629894290338,1980
1629894290342,1952
1629894290346,1969
1629894290350,2007
1629894290354,2039
1629894290358,2051
1629894290362,2047
1629894290366,2039
1629894290370,2035
1629894290374,2033
1629894290378,2034
1629894290382,2035
1629894290386,2037
1629894290390,2038
1629894290394,2039
1629894290398,2039
1629894290402,2040
1629894290406,2040
1629894290410,2041
1629894290414,2041
1629894290418,2042
1629894290422,2043
1629894290426,2045
1629894290430,2046
1629894290434,2047
1629894290438,2047
1629894290442,2047
1629894290446,2047
1629894290450,2048
1629894290454,2048
1629894290458,2048
1629894290462,2049
1629894290466,2050
1629894290470,2051
1629894290474,2052
1629894290478,2054
1629894290482,2057
1629894290486,2059
1629894290490,2061
1629894290494,2061
1629894290498,2061
1629894290502,2062
1629894290506,2063
1629894290510,2066
1629894290514,2068
1629894290518,2071
1629894290522,2073
1629894290526,2075
1629894290530,2077
1629894290534,2079
1629894290538,2082
1629894290542,2086
1629894290546,2089
1629894290550,2092
1629894290554,2094
1629894290558,2096
1629894290562,2096
1629894290566,2097
1629894290570,2098
1629894290574,2099
1629894290578,2099
1629894290582,2099
1629894290586,2098
1629894290590,2097
1629894290594,2096
1629894290598,2094
1629894290602,2091
1629894290606,2087
1629894290610,2083
1629894290614,2078
1629894290618,2072
1629894290622,2067
1629894290626,2062
1629894290630,2058
1629894290634,2054
1629894290638,2050
1629894290642,2047
1629894290646,2042
1629894290650,2038
1629894290654,2035
1629894290658,2033
1629894290662,2033
1629894290666,2032
1629894290670,2031
1629894290674,2029
1629894290678,2027
1629894290682,2025
1629894290686,2024
1629894290690,2025
1629894290694,2025
1629894290698,2027
1629894290702,2028
1629894290706,2029
1629894290710,2029
1629894290714,2030
1629894290718,2030
1629894290722,2030
1629894290726,2030
1629894290730,2030
1629894290734,2031
1629894290738,2031
1629894290742,2032
1629894290746,2033
1629894290750,2034
1629894290754,2035
1629894290758,2036
1629894290762,2036
1629894290766,2035
1629894290770,2034
1629894290774,2033
1629894290778,2033
1629894290782,2033
1629894290786,2033
1629894290790,2034
1629894290794,2034
1629894290798,2033
1629894290802,2032
1629894290806,2032
1629894290810,2031
1629894290814,2031
1629894290818,2031
1629894290822,2032
1629894290826,2032
1629894290830,2032
1629894290834,2032
1629894290838,2031
1629894290842,2031
1629894290846,2031
1629894290850,2032
1629894290854,2033
1629894290858,2034
1629894290862,2035
1629894290866,2034
1629894290870,2033
1629894290874,2032
1629894290878,2032
1629894290882,2032
1629894290886,2032
1629894290890,2032
1629894290894,2032
1629894290898,2032
1629894290902,2033
1629894290906,2034
1629894290910,2035
1629894290914,2036
1629894290918,2036
1629894290922,2036
1629894290926,2035
1629894290930,2036
1629894290934,2036
1629894290938,2036
1629894290942,2037
1629894290946,2037
1629894290950,2038
1629894290954,2038
1629894290958,2039
1629894290962,2039
1629894290966,2038
1629894290970,2038
1629894290974,2038
1629894290978,2037
1629894290982,2038
1629894290986,2037
1629894290990,2037
1629894290994,2038
1629894290998,2038
1629894291002,2039
1629894291006,2040
1629894291010,2041
1629894291014,2043
1629894291018,2045
1629894291022,2048
1629894291026,2050
1629894291030,2052
1629894291034,2053
1629894291038,2053
1629894291042,2051
1629894291046,2049
1629894291050,2048
1629894291054,2046
1629894291058,2044
1629894291062,2043
1629894291066,2042
1629894291070,2041
1629894291074,2041
1629894291078,2039
1629894291082,2038
1629894291086,2037
1629894291090,2036
1629894291094,2036
1629894291098,2038
1629894291102,2040
1629894291106,2041
1629894291110,2043
1629894291114,2044
1629894291118,2043
1629894291122,2040
1629894291126,2032
1629894291130,2023
1629894291134,2018
1629894291138,2021
1629894291142,2045
1629894291146,2098
1629894291150,2175
1629894291154,2247
1629894291158,2283
1629894291162,2259
1629894291166,2178
1629894291170,2072
1629894291174,1985
1629894291178,1945
1629894291182,1955
1629894291186,1993
1629894291190,2031
1629894291194,2050
1629894291198,2048
1629894291202,2042
1629894291206,2036
1629894291210,2033
1629894291214,2033
1629894291218,2035
1629894291222,2037
1629894291226,2038
1629894291230,2039
1629894291234,2039
1629894291238,2039
1629894291242,2040
1629894291246,2040
1629894291250,2041
1629894291254,2041
1629894291258,2042
1629894291262,2044
1629894291266,2044
1629894291270,2044
1629894291274,2045
1629894291278,2047
1629894291282,2048
1629894291286,2051
1629894291290,2054
1629894291294,2057
1629894291298,2059
1629894291302,2060
1629894291306,2061
1629894291310,2062
1629894291314,2063
1629894291318,2064
1629894291322,2065
1629894291326,2066
1629894291330,2067
1629894291334,2069
1629894291338,2071
1629894291342,2073
1629894291346,2075
1629894291350,2077
1629894291354,2079
1629894291358,2081
1629894291362,2083
1629894291366,2086
1629894291370,2088
1629894291374,2091
1629894291378,2094
1629894291382,2097
1629894291386,2100
1629894291390,2102
1629894291394,2104
1629894291398,2105
1629894291402,2106
1629894291406,2107
1629894291410,2108
1629894291414,2109
1629894291418,2109
1629894291422,2109
1629894291426,2108
1629894291430,2107
1629894291434,2105
1629894291438,2102
1629894291442,2098
1629894291446,2093
1629894291450,2088
1629894291454,2083
1629894291458,2077
1629894291462,2073
1629894291466,2069
1629894291470,2065
1629894291474,2062
1629894291478,2058
1629894291482,2055
1629894291486,2051
1629894291490,2048
1629894291494,2045
1629894291498,2042
1629894291502,2041
1629894291506,2041
1629894291510,2040
1629894291514,2040
1629894291518,2039
1629894291522,2038
1629894291526,2038
1629894291530,2038
1629894291534,2039
1629894291538,2040
1629894291542,2041
1629894291546,2042
1629894291550,2043
1629894291554,2044
1629894291558,2044
1629894291562,2045
1629894291566,2046
1629894291570,2046
1629894291574,2047
1629894291578,2048
1629894291582,2048
1629894291586,2049
1629894291590,2049
1629894291594,2050
1629894291598,2049
1629894291602,2048
1629894291606,2048
1629894291610,2047
1629894291614,2047
1629894291618,2047
1629894291622,2047
1629894291626,2046
1629894291630,2046
1629894291634,2045
1629894291638,2045
1629894291642,2044
1629894291646,2043
1629894291650,2042
1629894291654,2041
1629894291658,2040
1629894291662,2040
1629894291666,2040
1629894291670,2040
1629894291674,2040
1629894291678,2040
1629894291682,2039
1629894291686,2039
1629894291690,2038
1629894291694,2038
1629894291698,2038
1629894291702,2038
1629894291706,2038
1629894291710,2038
1629894291714,2039
1629894291718,2039
1629894291722,2039
1629894291726,2038
1629894291730,2037
1629894291734,2037
1629894291738,2037
1629894291742,2038
1629894291746,2038
1629894291750,2039
1629894291754,2039
1629894291758,2039
1629894291762,2038
1629894291766,2038
1629894291770,2038
1629894291774,2038
1629894291778,2039
1629894291782,2039
1629894291786,2040
1629894291790,2040
1629894291794,2040
1629894291798,2040
1629894291802,2041
1629894291806,2040
1629894291810,2040
1629894291814,2040
1629894291818,2040
1629894291822,2041
1629894291826,2041
1629894291830,2041
1629894291834,2041
1629894291838,2042
1629894291842,2042
1629894291846,2042
1629894291850,2043
1629894291854,2043
1629894291858,2042
1629894291862,2043
1629894291866,2043
1629894291870,2043
1629894291874,2044
1629894291878,2044
1629894291882,2044
1629894291886,2044
1629894291890,2044
1629894291894,2044
1629894291898,2044
1629894291902,2045
1629894291906,2046
1629894291910,2046
1629894291914,2046
1629894291918,2046
1629894291922,2046
1629894291926,2045
1629894291930,2046
1629894291934,2046
1629894291938,2046
1629894291942,2047
1629894291946,2047
1629894291950,2046
1629894291954,2046
1629894291958,2045
1629894291962,2044
1629894291966,2044
1629894291970,2044
1629894291974,2045
1629894291978,2047
1629894291982,2049
1629894291986,2051
1629894291990,2054
1629894291994,2057
1629894291998,2059
1629894292002,2060
1629894292006,2060
1629894292010,2060
1629894292014,2059
1629894292018,2058
1629894292022,2058
1629894292026,2057
1629894292030,2055
1629894292034,2053
1629894292038,2051
1629894292042,2050
1629894292046,2049
1629894292050,2048
1629894292054,2048
1629894292058,2048
1629894292062,2048
1629894292066,2048
1629894292070,2048
1629894292074,2048
1629894292078,2048
1629894292082,2048
1629894292086,2049
1629894292090,2050
1629894292094,2048
1629894292098,2043
1629894292102,2034
1629894292106,2027
1629894292110,2028
1629894292114,2048
1629894292118,2097
1629894292122,2175
1629894292126,2258
1629894292130,2312
1629894292134,2309
1629894292138,2243
1629894292142,2140
1629894292146,2045
1629894292150,1990
1629894292154,1985
1629894292158,2012
1629894292162,2044
1629894292166,2061
1629894292170,2059
1629894292174,2051
1629894292178,2046
1629894292182,2044
1629894292186,2044
1629894292190,2044
1629894292194,2045
1629894292198,2045
1629894292202,2045
1629894292206,2046
1629894292210,2046
1629894292214,2047
1629894292218,2048
1629894292222,2048
1629894292226,2049
1629894292230,2050
1629894292234,2051
1629894292238,2052
1629894292242,2053
1629894292246,2053
1629894292250,2053
1629894292254,2054
1629894292258,2055
1629894292262,2057
1629894292266,2058
1629894292270,2059
1629894292274,2060
1629894292278,2062
1629894292282,2062
1629894292286,2062
1629894292290,2063
1629894292294,2063
1629894292298,2065
1629894292302,2066
1629894292306,2068
1629894292310,2070
1629894292314,2071
1629894292318,2073
1629894292322,2074
1629894292326,2076
1629894292330,2077
1629894292334,2079
1629894292338,2082
1629894292342,2084
1629894292346,2086
1629894292350,2089
1629894292354,2092
1629894292358,2094
1629894292362,2096
1629894292366,2098
1629894292370,2100
1629894292374,2102
1629894292378,2104
1629894292382,2105
1629894292386,2106
1629894292390,2107
1629894292394,2108
1629894292398,2108
1629894292402,2107
1629894292406,2105
1629894292410,2103
1629894292414,2101
1629894292418,2097
1629894292422,2094
1629894292426,2090
1629894292430,2086
1629894292434,2082
1629894292438,2077
1629894292442,2073
1629894292446,2068
1629894292450,2064
1629894292454,2061
1629894292458,2057
1629894292462,2054
1629894292466,2052
1629894292470,2049
1629894292474,2048
1629894292478,2047
1629894292482,2046
1629894292486,2046
1629894292490,2045
1629894292494,2043
1629894292498,2042
1629894292502,2042
1629894292506,2042
1629894292510,2043
1629894292514,2044
1629894292518,2044
1629894292522,2044
1629894292526,2044
1629894292530,2044
1629894292534,2045
1629894292538,2045
1629894292542,2046
1629894292546,2047
1629894292550,2048
1629894292554,2048
1629894292558,2048
1629894292562,2048
1629894292566,2048
1629894292570,2048
1629894292574,2048
1629894292578,2049
1629894292582,2049
1629894292586,2049
1629894292590,2049
1629894292594,2048
1629894292598,2048
1629894292602,2048
1629894292606,2047
1629894292610,2046
1629894292614,2046
1629894292618,2045
1629894292622,2045
1629894292626,2045
1629894292630,2046
1629894292634,2046
1629894292638,2045
1629894292642,2044
1629894292646,2043
1629894292650,2042
1629894292654,2041
1629894292658,2041
1629894292662,2042
1629894292666,2042
1629894292670,2042
1629894292674,2042
1629894292678,2041
1629894292682,2041
1629894292686,2040
1629894292690,2040
1629894292694,2040
1629894292698,2041
1629894292702,2042
1629894292706,2042
1629894292710,2043
1629894292714,2043
1629894292718,2042
1629894292722,2042
1629894292726,2042
1629894292730,2043
1629894292734,2043
1629894292738,2044
1629894292742,2044
1629894292746,2044
1629894292750,2044
1629894292754,2044
1629894292758,2043
1629894292762,2043
1629894292766,2042
1629894292770,2042
1629894292774,2042
1629894292778,2042
1629894292782,2042
1629894292786,2042
1629894292790,2043
1629894292794,2044
1629894292798,2045
1629894292802,2045
1629894292806,2045
1629894292810,2044
1629894292814,2044
1629894292818,2044
1629894292822,2045
1629894292826,2045
1629894292830,2046
1629894292834,2046
1629894292838,2046
1629894292842,2045
1629894292846,2045
1629894292850,2045
1629894292854,2045
1629894292858,2045
1629894292862,2045
1629894292866,2046
1629894292870,2046
1629894292874,2046
1629894292878,2046
1629894292882,2046
1629894292886,2046
1629894292890,2046
1629894292894,2046
1629894292898,2047
1629894292902,2047
1629894292906,2047
1629894292910,2047
1629894292914,2048
1629894292918,2048
1629894292922,2048
1629894292926,2048
1629894292930,2048
1629894292934,2048
1629894292938,2048
1629894292942,2048
1629894292946,2048
1629894292950,2049
1629894292954,2049
1629894292958,2049
1629894292962,2049
1629894292966,2049
1629894292970,2049
1629894292974,2049
1629894292978,2049
1629894292982,2050
1629894292986,2050
1629894292990,2050
1629894292994,2051
1629894292998,2051
1629894293002,2051
1629894293006,2050
1629894293010,2050
1629894293014,2051
1629894293018,2051
1629894293022,2052
1629894293026,2053
1629894293030,2053
1629894293034,2052
1629894293038,2052
1629894293042,2052
1629894293046,2051
1629894293050,2052
1629894293054,2053
1629894293058,2053
1629894293062,2052
1629894293066,2051
1629894293070,2049
1629894293074,2049
1629894293078,2049
1629894293082,2049
1629894293086,2051
1629894293090,2052
1629894293094,2054
1629894293098,2057
1629894293102,2060
1629894293106,2062
1629894293110,2063
1629894293114,2063
1629894293118,2062
1629894293122,2061
1629894293126,2059
1629894293130,2058
1629894293134,2057
1629894293138,2055
1629894293142,2054
1629894293146,2053
1629894293150,2053
1629894293154,2052
1629894293158,2051
1629894293162,2050
1629894293166,2049
1629894293170,2049
1629894293174,2048
1629894293178,2048
1629894293182,2048
1629894293186,2049
1629894293190,2051
1629894293194,2053
1629894293198,2053
1629894293202,2048
1629894293206,2040
1629894293210,2032
1629894293214,2029
1629894293218,2040
1629894293222,2077
1629894293226,2145
1629894293230,2227
1629894293234,2292
1629894293238,2308
1629894293242,2263
1629894293246,2170
1629894293250,2068
1629894293254,1999
1629894293258,1978
1629894293262,1998
1629894293266,2033
1629894293270,2058
1629894293274,2064
1629894293278,2057
1629894293282,2050
1629894293286,2046
1629894293290,2045
1629894293294,2045
1629894293298,2046
1629894293302,2046
1629894293306,2047
1629894293310,2048
1629894293314,2048
1629894293318,2048
1629894293322,2049
1629894293326,2049
1629894293330,2050
1629894293334,2050
1629894293338,2051
1629894293342,2052
1629894293346,2052
1629894293350,2053
1629894293354,2054
1629894293358,2055
1629894293362,2056
1629894293366,2057
1629894293370,2059
1629894293374,2060
1629894293378,2062
1629894293382,2062
1629894293386,2062
1629894293390,2063
1629894293394,2063
1629894293398,2064
1629894293402,2065
1629894293406,2066
1629894293410,2067
1629894293414,2067
1629894293418,2068
1629894293422,2070
1629894293426,2072
1629894293430,2075
1629894293434,2077
1629894293438,2079
1629894293442,2080
1629894293446,2082
1629894293450,2084
1629894293454,2086
1629894293458,2089
1629894293462,2092
1629894293466,2095
1629894293470,2097
1629894293474,2099
1629894293478,2100
1629894293482,2101
1629894293486,2102
1629894293490,2102
1629894293494,2101
1629894293498,2101
1629894293502,2102
1629894293506,2102
1629894293510,2101
1629894293514,2100
1629894293518,2097
1629894293522,2094
1629894293526,2091
1629894293530,2088
1629894293534,2085
1629894293538,2081
1629894293542,2078
1629894293546,2073
1629894293550,2069
1629894293554,2065
1629894293558,2062
1629894293562,2058
1629894293566,2054
1629894293570,2051
1629894293574,2048
1629894293578,2046
1629894293582,2045
1629894293586,2045
1629894293590,2045
1629894293594,2045
1629894293598,2043
1629894293602,2042
1629894293606,2041
1629894293610,2041
1629894293614,2041
1629894293618,2041
1629894293622,2042
1629894293626,2041
1629894293630,2042
1629894293634,2042
1629894293638,2043
1629894293642,2043
1629894293646,2043
1629894293650,2043
1629894293654,2044
1629894293658,2045
1629894293662,2046
1629894293666,2047
1629894293670,2048
1629894293674,2047
1629894293678,2046
1629894293682,2045
1629894293686,2044
1629894293690,2044
1629894293694,2043
1629894293698,2044
1629894293702,2044
1629894293706,2044
1629894293710,2043
1629894293714,2042
1629894293718,2040
1629894293722,2039
1629894293726,2038
1629894293730,2038
1629894293734,2039
1629894293738,2038
1629894293742,2038
1629894293746,2037
1629894293750,2036
1629894293754,2036
1629894293758,2036
1629894293762,2036
1629894293766,2035
1629894293770,2035
1629894293774,2035
1629894293778,2036
1629894293782,2036
1629894293786,2036
1629894293790,2035
1629894293794,2035
1629894293798,2034
1629894293802,2034
1629894293806,2034
1629894293810,2034
1629894293814,2035
1629894293818,2035
1629894293822,2036
1629894293826,2036
1629894293830,2036
1629894293834,2036
1629894293838,2035
1629894293842,2035
1629894293846,2035
1629894293850,2035
1629894293854,2035
1629894293858,2036
1629894293862,2037
1629894293866,2037
1629894293870,2037
1629894293874,2036
1629894293878,2036
1629894293882,2035
1629894293886,2035
1629894293890,2035
1629894293894,2036
1629894293898,2037
1629894293902,2038
1629894293906,2038
1629894293910,2038
1629894293914,2038
1629894293918,2037
1629894293922,2037
1629894293926,2037
1629894293930,2037
1629894293934,2038
1629894293938,2039
1629894293942,2040
1629894293946,2040
1629894293950,2040
1629894293954,2040
1629894293958,2039
1629894293962,2039
1629894293966,2039
1629894293970,2040
1629894293974,2040
1629894293978,2040
1629894293982,2040
1629894293986,2039
1629894293990,2040
1629894293994,2040
1629894293998,2041
1629894294002,2042
1629894294006,2042
1629894294010,2042
1629894294014,2042
1629894294018,2043
1629894294022,2043
1629894294026,2044
1629894294030,2044
1629894294034,2044
1629894294038,2043
1629894294042,2043
1629894294046,2043
1629894294050,2043
1629894294054,2044
1629894294058,2044
1629894294062,2045
1629894294066,2044
1629894294070,2044
1629894294074,2044
1629894294078,2043
1629894294082,2043
1629894294086,2042
1629894294090,2043
1629894294094,2044
1629894294098,2046
1629894294102,2048
1629894294106,2049
1629894294110,2051
1629894294114,2052
1629894294118,2053
1629894294122,2053
1629894294126,2053
1629894294130,2054
1629894294134,2055
1629894294138,2055
1629894294142,2054
1629894294146,2052
1629894294150,2050
1629894294154,2048
1629894294158,2047
1629894294162,2046
1629894294166,2045
1629894294170,2045
1629894294174,2044
1629894294178,2044
1629894294182,2044
1629894294186,2045
1629894294190,2046
1629894294194,2046
1629894294198,2046
1629894294202,2047
1629894294206,2048
1629894294210,2048
1629894294214,2044
1629894294218,2036
1629894294222,2028
1629894294226,2023
1629894294230,2032
1629894294234,2063
1629894294238,2126
1629894294242,2203
1629894294246,2267
1629894294250,2286
1629894294254,2246
1629894294258,2157
1629894294262,2057
1629894294266,1984
1629894294270,1960
1629894294274,1978
1629894294278,2015
1629894294282,2047
1629894294286,2058
1629894294290,2055
1629894294294,2049
1629894294298,2047
1629894294302,2045
1629894294306,2045
1629894294310,2046
1629894294314,2047
1629894294318,2047
1629894294322,2048
1629894294326,2048
1629894294330,2048
1629894294334,2048
1629894294338,2050
1629894294342,2051
1629894294346,2052
1629894294350,2054
1629894294354,2054
1629894294358,2055
1629894294362,2055
1629894294366,2054
1629894294370,2055
1629894294374,2056
1629894294378,2057
1629894294382,2059
1629894294386,2061
1629894294390,2062
1629894294394,2063
1629894294398,2063
1629894294402,2064
1629894294406,2065
1629894294410,2065
1629894294414,2066
1629894294418,2067
1629894294422,2069
1629894294426,2070
1629894294430,2073
1629894294434,2074
1629894294438,2076
1629894294442,2078
1629894294446,2079
1629894294450,2080
1629894294454,2082
1629894294458,2084
1629894294462,2087
1629894294466,2090
1629894294470,2092
1629894294474,2094
1629894294478,2096
1629894294482,2098
1629894294486,2100
1629894294490,2102
1629894294494,2103
1629894294498,2104
1629894294502,2105
1629894294506,2107
1629894294510,2108
1629894294514,2108
1629894294518,2107
1629894294522,2104
1629894294526,2101
1629894294530,2097
1629894294534,2094
1629894294538,2091
1629894294542,2088
1629894294546,2085
1629894294550,2082
1629894294554,2078
1629894294558,2073
1629894294562,2068
1629894294566,2062
1629894294570,2058
1629894294574,2055
1629894294578,2052
1629894294582,2050
1629894294586,2048
1629894294590,2046
1629894294594,2044
1629894294598,2043
1629894294602,2042
1629894294606,2042
1629894294610,2041
1629894294614,2041
1629894294618,2040
1629894294622,2041
1629894294626,2041
1629894294630,2041
1629894294634,2041
1629894294638,2041
1629894294642,2042
1629894294646,2042
1629894294650,2043
1629894294654,2044
1629894294658,2044
1629894294662,2045
1629894294666,2046
1629894294670,2047
1629894294674,2048
1629894294678,2048
1629894294682,2047
1629894294686,2046
1629894294690,2046
1629894294694,2046
1629894294698,2046
1629894294702,2047
1629894294706,2047
1629894294710,2047
1629894294714,2047
1629894294718,2046
1629894294722,2045
1629894294726,2044
1629894294730,2044
1629894294734,2043
1629894294738,2042
1629894294742,2042
1629894294746,2042
1629894294750,2042
1629894294754,2041
1629894294758,2041
1629894294762,2040
1629894294766,2039
1629894294770,2039
1629894294774,2039
1629894294778,2039
1629894294782,2040
1629894294786,2040
1629894294790,2040
1629894294794,2040
1629894294798,2039
1629894294802,2039
1629894294806,2039
1629894294810,2039
1629894294814,2040
1629894294818,2040
1629894294822,2040
1629894294826,2040
1629894294830,2041
1629894294834,2041
1629894294838,2041
1629894294842,2040
1629894294846,2040
1629894294850,2040
1629894294854,2039
1629894294858,2040
1629894294862,2040
1629894294866,2041
1629894294870,2042
1629894294874,2042
1629894294878,2042
1629894294882,2042
1629894294886,2042
1629894294890,2042
1629894294894,2042
1629894294898,2042
1629894294902,2043
1629894294906,2043
1629894294910,2043
1629894294914,2043
1629894294918,2043
1629894294922,2043
1629894294926,2043
1629894294930,2044
1629894294934,2044
1629894294938,2044
1629894294942,2044
1629894294946,2044
1629894294950,2044
1629894294954,2045
1629894294958,2045
1629894294962,2045
1629894294966,2045
1629894294970,2045
1629894294974,2046
1629894294978,2047
1629894294982,2047
1629894294986,2048
1629894294990,2048
1629894294994,2048
1629894294998,2048
1629894295002,2047
1629894295006,2047
1629894295010,2047
1629894295014,2047
1629894295018,2048
1629894295022,2048
1629894295026,2048
1629894295030,2048
1629894295034,2048
1629894295038,2048
1629894295042,2048
1629894295046,2048
1629894295050,2048
1629894295054,2048
1629894295058,2048
1629894295062,2048
1629894295066,2049
1629894295070,2049
1629894295074,2048
1629894295078,2048
1629894295082,2048
1629894295086,2047
1629894295090,2048
1629894295094,2048
1629894295098,2050
1629894295102,2052
1629894295106,2054
1629894295110,2056
1629894295114,2058
1629894295118,2058
1629894295122,2059
1629894295126,2059
1629894295130,2059
1629894295134,2058
1629894295138,2057
1629894295142,2056
1629894295146,2054
1629894295150,2053
1629894295154,2052
1629894295158,2052
1629894295162,2051
1629894295166,2050
1629894295170,2049
1629894295174,2048
1629894295178,2048
1629894295182,2048
1629894295186,2048
1629894295190,2049
1629894295194,2050
1629894295198,2050
1629894295202,2052
1629894295206,2052
1629894295210,2049
1629894295214,2042
1629894295218,2033
1629894295222,2028
1629894295226,2032
1629894295230,2054
1629894295234,2108
1629894295238,2186
1629894295242,2264
1629894295246,2308
1629894295250,2295
1629894295254,2223
1629894295258,2121
1629894295262,2032
1629894295266,1985
1629894295270,1987
1629894295274,2017
1629894295278,2049
1629894295282,2064
1629894295286,2061
1629894295290,2052
1629894295294,2047
1629894295298,2045
1629894295302,2045
1629894295306,2046
1629894295310,2046
1629894295314,2047
1629894295318,2047
1629894295322,2048
1629894295326,2048
1629894295330,2048
1629894295334,2049
1629894295338,2049
1629894295342,2050
1629894295346,2051
1629894295350,2053
1629894295354,2054
1629894295358,2055
1629894295362,2055
1629894295366,2055
1629894295370,2055
1629894295374,2056
1629894295378,2057
1629894295382,2058
1629894295386,2059
1629894295390,2061
1629894295394,2062
1629894295398,2063
1629894295402,2064
1629894295406,2065
1629894295410,2066
1629894295414,2068
1629894295418,2069
1629894295422,2071
1629894295426,2073
1629894295430,2074
1629894295434,2075
1629894295438,2077
1629894295442,2078
1629894295446,2079
1629894295450,2081
1629894295454,2083
1629894295458,2085
1629894295462,2088
1629894295466,2091
1629894295470,2093
1629894295474,2096
1629894295478,2098
1629894295482,2100
1629894295486,2102
1629894295490,2103
1629894295494,2104
1629894295498,2105
1629894295502,2106
1629894295506,2106
1629894295510,2107
1629894295514,2107
1629894295518,2106
1629894295522,2104
1629894295526,2101
1629894295530,2099
1629894295534,2096
1629894295538,2093
1629894295542,2089
1629894295546,2085
1629894295550,2080
1629894295554,2076
1629894295558,2071
1629894295562,2067
1629894295566,2063
1629894295570,2059
1629894295574,2056
1629894295578,2053
1629894295582,2050
1629894295586,2048
1629894295590,2047
1629894295594,2045
1629894295598,2044
1629894295602,2043
1629894295606,2042
1629894295610,2042
1629894295614,2041
1629894295618,2040
1629894295622,2040
1629894295626,2040
1629894295630,2041
1629894295634,2042
1629894295638,2042
1629894295642,2043
1629894295646,2042
1629894295650,2042
1629894295654,2043
1629894295658,2043
1629894295662,2044
1629894295666,2045
1629894295670,2046
1629894295674,2047
1629894295678,2047
1629894295682,2047
1629894295686,2047
1629894295690,2047
1629894295694,2047
1629894295698,2047
1629894295702,2047
1629894295706,2047
1629894295710,2047
1629894295714,2046
1629894295718,2047
1629894295722,2046
1629894295726,2046
1629894295730,2045
1629894295734,2044
1629894295738,2043
1629894295742,2043
1629894295746,2043
1629894295750,2043
1629894295754,2042
1629894295758,2041
1629894295762,2040
1629894295766,2040
1629894295770,2040
1629894295774,2040
1629894295778,2040
1629894295782,2040
1629894295786,2041
1629894295790,2041
1629894295794,2041
1629894295798,2040
1629894295802,2040
1629894295806,2039
1629894295810,2040
1629894295814,2040
1629894295818,2040
1629894295822,2041
1629894295826,2040
1629894295830,2040
1629894295834,2040
1629894295838,2040
1629894295842,2040
1629894295846,2039
1629894295850,2040
1629894295854,2040
1629894295858,2040
1629894295862,2041
1629894295866,2041
1629894295870,2041
1629894295874,2040
1629894295878,2040
1629894295882,2040
1629894295886,2039
1629894295890,2039
1629894295894,2040
1629894295898,2040
1629894295902,2040
1629894295906,2041
1629894295910,2041
1629894295914,2041
1629894295918,2041
1629894295922,2041
1629894295926,2041
1629894295930,2041
1629894295934,2041
1629894295938,2041
1629894295942,2042
1629894295946,2042
1629894295950,2043
1629894295954,2043
1629894295958,2042
1629894295962,2042
1629894295966,2041
1629894295970,2041
1629894295974,2042
1629894295978,2043
1629894295982,2044
1629894295986,2044
1629894295990,2044
1629894295994,2044
1629894295998,2044
1629894296002,2044
1629894296006,2044
1629894296010,2044
1629894296014,2044
1629894296018,2044
1629894296022,2044
1629894296026,2045
1629894296030,2045
1629894296034,2046
1629894296038,2046
1629894296042,2046
1629894296046,2045
1629894296050,2045
1629894296054,2045
1629894296058,2045
1629894296062,2045
1629894296066,2045
1629894296070,2045
1629894296074,2045
1629894296078,2045
1629894296082,2045
1629894296086,2044
1629894296090,2044
1629894296094,2044
1629894296098,2046
1629894296102,2048
1629894296106,2049
1629894296110,2052
1629894296114,2054
1629894296118,2055
1629894296122,2055
1629894296126,2055
1629894296130,2055
1629894296134,2055
1629894296138,2055
1629894296142,2054
1629894296146,2053
1629894296150,2052
1629894296154,2050
1629894296158,2049
1629894296162,2048
1629894296166,2047
1629894296170,2046
1629894296174,2046
1629894296178,2046
1629894296182,2047
1629894296186,2047
1629894296190,2047
1629894296194,2047
1629894296198,2047
1629894296202,2048
1629894296206,2048
1629894296210,2047
1629894296214,2042
1629894296218,2033
1629894296222,2026
1629894296226,2025
1629894296230,2039
1629894296234,2079
1629894296238,2150
1629894296242,2232
1629894296246,2296
1629894296250,2310
1629894296254,2263
1629894296258,2169
1629894296262,2071
1629894296266,2004
1629894296270,1986
1629894296274,2005
1629894296278,2038
1629894296282,2058
1629894296286,2060
1629894296290,2051
1629894296294,2045
1629894296298,2042
1629894296302,2042
1629894296306,2042
1629894296310,2043
1629894296314,2044
1629894296318,2045
1629894296322,2045
1629894296326,2044
1629894296330,2045
1629894296334,2045
1629894296338,2046
1629894296342,2046
1629894296346,2048
1629894296350,2048
1629894296354,2048
1629894296358,2049
1629894296362,2049
1629894296366,2049
1629894296370,2050
1629894296374,2051
1629894296378,2053
1629894296382,2054
1629894296386,2056
1629894296390,2057
1629894296394,2058
1629894296398,2059
1629894296402,2060
1629894296406,2060
1629894296410,2060
1629894296414,2062
1629894296418,2063
1629894296422,2065
1629894296426,2067
1629894296430,2069
1629894296434,2070
1629894296438,2071
1629894296442,2072
1629894296446,2074
1629894296450,2076
1629894296454,2079
1629894296458,2081
1629894296462,2083
1629894296466,2085
1629894296470,2088
1629894296474,2090
1629894296478,2093
1629894296482,2095
1629894296486,2097
1629894296490,2098
1629894296494,2099
1629894296498,2100
1629894296502,2101
1629894296506,2102
1629894296510,2103
1629894296514,2103
1629894296518,2103
1629894296522,2102
1629894296526,2100
1629894296530,2097
1629894296534,2094
1629894296538,2091
1629894296542,2088
1629894296546,2084
1629894296550,2079
1629894296554,2075
1629894296558,2070
1629894296562,2066
1629894296566,2062
1629894296570,2058
1629894296574,2054
1629894296578,2051
1629894296582,2048
1629894296586,2047
1629894296590,2045
1629894296594,2043
1629894296598,2042
1629894296602,2041
1629894296606,2039
1629894296610,2039
1629894296614,2039
1629894296618,2039
1629894296622,2039
1629894296626,2039
1629894296630,2039
1629894296634,2039
1629894296638,2039
1629894296642,2039
1629894296646,2039
1629894296650,2040
1629894296654,2041
1629894296658,2042
1629894296662,2043
1629894296666,2043
1629894296670,2043
1629894296674,2043
1629894296678,2043
1629894296682,2043
1629894296686,2043
1629894296690,2043
1629894296694,2043
1629894296698,2042
1629894296702,2042
1629894296706,2042
1629894296710,2042
1629894296714,2042
1629894296718,2042
1629894296722,2042
1629894296726,2041
1629894296730,2041
1629894296734,2040
1629894296738,2039
1629894296742,2039
1629894296746,2039
1629894296750,2039
1629894296754,2038
1629894296758,2038
1629894296762,2037
1629894296766,2037
1629894296770,2036
1629894296774,2036
1629894296778,2037
1629894296782,2037
1629894296786,2037
1629894296790,2036
1629894296794,2036
1629894296798,2035
1629894296802,2035
1629894296806,2035
1629894296810,2035
1629894296814,2036
1629894296818,2036
1629894296822,2036
1629894296826,2037
1629894296830,2037
1629894296834,2038
1629894296838,2037
1629894296842,2037
1629894296846,2036
1629894296850,2035
1629894296854,2035
1629894296858,2036
1629894296862,2036
1629894296866,2037
1629894296870,2037
1629894296874,2037
1629894296878,2038
1629894296882,2038
1629894296886,2038
1629894296890,2038
1629894296894,2039
1629894296898,2038
1629894296902,2038
1629894296906,2038
1629894296910,2038
1629894296914,2038
1629894296918,2039
1629894296922,2039
1629894296926,2038
1629894296930,2038
1629894296934,2038
1629894296938,2038
1629894296942,2039
1629894296946,2039
1629894296950,2040
1629894296954,2040
1629894296958,2040
1629894296962,2039
1629894296966,2039
1629894296970,2039
1629894296974,2040
1629894296978,2041
1629894296982,2042
1629894296986,2042
1629894296990,2041
1629894296994,2041
1629894296998,2041
1629894297002,2042
1629894297006,2042
1629894297010,2042
1629894297014,2041
1629894297018,2041
1629894297022,2042
1629894297026,2042
1629894297030,2042
1629894297034,2042
1629894297038,2042
1629894297042,2042
1629894297046,2041
1629894297050,2042
1629894297054,2042
1629894297058,2043
1629894297062,2043
1629894297066,2044
1629894297070,2044
1629894297074,2044
1629894297078,2044
1629894297082,2043
1629894297086,2042
1629894297090,2042
1629894297094,2041
1629894297098,2041
1629894297102,2041
1629894297106,2042
1629894297110,2044
1629894297114,2046
1629894297118,2048
1629894297122,2050
1629894297126,2052
1629894297130,2053
1629894297134,2053
1629894297138,2053
1629894297142,2052
1629894297146,2052
1629894297150,2052
1629894297154,2052
1629894297158,2051
1629894297162,2049
1629894297166,2048
1629894297170,2047
1629894297174,2046
1629894297178,2045
1629894297182,2045
1629894297186,2044
1629894297190,2043
1629894297194,2042
1629894297198,2042
1629894297202,2042
1629894297206,2041
1629894297210,2041
1629894297214,2042
1629894297218,2043
1629894297222,2045
1629894297226,2045
1629894297230,2041
1629894297234,2033
1629894297238,2025
1629894297242,2022
1629894297246,2031
1629894297250,2064
1629894297254,2128
1629894297258,2206
1629894297262,2269
1629894297266,2287
1629894297270,2246
1629894297274,2157
1629894297278,2057
1629894297282,1987
1629894297286,1965
1629894297290,1984
1629894297294,2020
1629894297298,2048
1629894297302,2057
1629894297306,2052
1629894297310,2046
1629894297314,2042
1629894297318,2040
1629894297322,2040
1629894297326,2040
1629894297330,2041
1629894297334,2041
1629894297338,2042
1629894297342,2043
1629894297346,2044
1629894297350,2045
1629894297354,2046
1629894297358,2047
1629894297362,2047
1629894297366,2047
1629894297370,2048
1629894297374,2048
1629894297378,2050
1629894297382,2051
1629894297386,2052
1629894297390,2053
1629894297394,2053
1629894297398,2054
1629894297402,2055
1629894297406,2056
1629894297410,2057
1629894297414,2058
1629894297418,2060
1629894297422,2061
1629894297426,2062
1629894297430,2064
1629894297434,2065
1629894297438,2066
1629894297442,2067
1629894297446,2068
1629894297450,2070
1629894297454,2072
1629894297458,2074
1629894297462,2077
1629894297466,2079
1629894297470,2080
1629894297474,2082
1629894297478,2084
1629894297482,2086
1629894297486,2088
1629894297490,2090
1629894297494,2092
1629894297498,2095
1629894297502,2098
1629894297506,2100
1629894297510,2102
1629894297514,2103
1629894297518,2103
1629894297522,2103
1629894297526,2103
1629894297530,2103
1629894297534,2103
1629894297538,2103
1629894297542,2101
1629894297546,2098
1629894297550,2095
1629894297554,2092
1629894297558,2089
1629894297562,2085
1629894297566,2081
1629894297570,2077
1629894297574,2072
1629894297578,2068
1629894297582,2063
1629894297586,2059
1629894297590,2055
1629894297594,2051
1629894297598,2048
1629894297602,2046
1629894297606,2044
1629894297610,2042
1629894297614,2041
1629894297618,2040
1629894297622,2040
1629894297626,2039
1629894297630,2039
1629894297634,2039
1629894297638,2039
1629894297642,2039
1629894297646,2039
1629894297650,2039
1629894297654,2039
1629894297658,2040
1629894297662,2040
1629894297666,2041
1629894297670,2041
1629894297674,2042
1629894297678,2042
1629894297682,2042
1629894297686,2042
1629894297690,2043
1629894297694,2043
1629894297698,2043
1629894297702,2044
1629894297706,2044
1629894297710,2044
1629894297714,2044
1629894297718,2044
1629894297722,2043
1629894297726,2042
1629894297730,2041
1629894297734,2041
1629894297738,2040
1629894297742,2040
1629894297746,2040
1629894297750,2039
1629894297754,2039
1629894297758,2038
1629894297762,2037
1629894297766,2037
1629894297770,2036
1629894297774,2036
1629894297778,2036
1629894297782,2036
1629894297786,2036
1629894297790,2036
1629894297794,2036
1629894297798,2035
1629894297802,2035
1629894297806,2035
1629894297810,2035
1629894297814,2035
1629894297818,2034
1629894297822,2034
1629894297826,2034
1629894297830,2035
1629894297834,2035
1629894297838,2036
1629894297842,2036
1629894297846,2036
1629894297850,2035
1629894297854,2035
1629894297858,2035
1629894297862,2036
1629894297866,2036
1629894297870,2036
1629894297874,2037
1629894297878,2037
1629894297882,2037
1629894297886,2037
1629894297890,2037
1629894297894,2037
1629894297898,2037
1629894297902,2038
1629894297906,2039
1629894297910,2039
1629894297914,2040
1629894297918,2040
1629894297922,2040
1629894297926,2040
1629894297930,2040
1629894297934,2039
1629894297938,2039
1629894297942,2040
1629894297946,2040
1629894297950,2041
1629894297954,2041
1629894297958,2041
1629894297962,2041
1629894297966,2041
1629894297970,2041
1629894297974,2041
1629894297978,2041
1629894297982,2041
1629894297986,2040
1629894297990,2040
1629894297994,2041
1629894297998,2042
1629894298002,2044
1629894298006,2047
1629894298010,2049
1629894298014,2052
1629894298018,2054
1629894298022,2055
1629894298026,2054
1629894298030,2053
1629894298034,2053
1629894298038,2052
1629894298042,2052
1629894298046,2052
1629894298050,2050
1629894298054,2049
1629894298058,2047
1629894298062,2046
1629894298066,2045
1629894298070,2045
1629894298074,2044
1629894298078,2043
1629894298082,2043
1629894298086,2042
1629894298090,2042
1629894298094,2042
1629894298098,2042
1629894298102,2043
1629894298106,2043
1629894298110,2044
1629894298114,2045
1629894298118,2046
1629894298122,2045
1629894298126,2039
1629894298130,2030
1629894298134,2022
1629894298138,2021
1629894298142,2036
1629894298146,2077
1629894298150,2148
1629894298154,2227
1629894298158,2283
1629894298162,2287
1629894298166,2230
1629894298170,2131
1629894298174,2033
1629894298178,1971
1629894298182,1961
1629894298186,1988
1629894298190,2027
1629894298194,2053
1629894298198,2059
1629894298202,2053
1629894298206,2047
1629894298210,2043
1629894298214,2042
1629894298218,2043
1629894298222,2045
1629894298226,2046
1629894298230,2046
1629894298234,2046
1629894298238,2047
1629894298242,2048
1629894298246,2048
1629894298250,2048
1629894298254,2049
1629894298258,2050
1629894298262,2051
1629894298266,2052
1629894298270,2053
1629894298274,2054
1629894298278,2056
1629894298282,2056
1629894298286,2057
1629894298290,2057
1629894298294,2058
1629894298298,2059
1629894298302,2060
1629894298306,2062
1629894298310,2063
1629894298314,2065
1629894298318,2065
1629894298322,2066
1629894298326,2066
1629894298330,2068
1629894298334,2069
1629894298338,2071
1629894298342,2073
1629894298346,2075
1629894298350,2077
1629894298354,2079
1629894298358,2081
1629894298362,2082
1629894298366,2084
1629894298370,2085
1629894298374,2088
1629894298378,2091
1629894298382,2094
1629894298386,2097
1629894298390,2100
1629894298394,2102
1629894298398,2104
1629894298402,2105
1629894298406,2106
1629894298410,2107
1629894298414,2108
1629894298418,2108
1629894298422,2108
1629894298426,2108
1629894298430,2106
1629894298434,2104
1629894298438,2102
1629894298442,2099
1629894298446,2095
1629894298450,2090
1629894298454,2085
1629894298458,2080
1629894298462,2076
1629894298466,2072
1629894298470,2068
1629894298474,2063
1629894298478,2059
1629894298482,2055
1629894298486,2050
1629894298490,2048
1629894298494,2045
1629894298498,2043
1629894298502,2041
1629894298506,2040
1629894298510,2040
1629894298514,2039
1629894298518,2038
1629894298522,2038
1629894298526,2036
1629894298530,2036
1629894298534,2035
1629894298538,2036
1629894298542,2036
1629894298546,2037
1629894298550,2038
1629894298554,2039
1629894298558,2039
1629894298562,2040
1629894298566,2040
1629894298570,2041
1629894298574,2042
1629894298578,2042
1629894298582,2043
1629894298586,2044
1629894298590,2045
1629894298594,2045
1629894298598,2045
1629894298602,2045
1629894298606,2045
1629894298610,2045
1629894298614,2045
1629894298618,2044
1629894298622,2043
1629894298626,2043
1629894298630,2043
1629894298634,2043
1629894298638,2042
1629894298642,2042
1629894298646,2041
1629894298650,2040
1629894298654,2040
1629894298658,2039
1629894298662,2040
1629894298666,2040
1629894298670,2040
1629894298674,2039
1629894298678,2038
1629894298682,2037
1629894298686,2037
1629894298690,2037
1629894298694,2037
1629894298698,2038
1629894298702,2038
1629894298706,2039
1629894298710,2039
1629894298714,2038
1629894298718,2038
1629894298722,2037
1629894298726,2037
1629894298730,2037
1629894298734,2037
1629894298738,2038
1629894298742,2038
1629894298746,2038
1629894298750,2038
1629894298754,2038
1629894298758,2038
1629894298762,2039
1629894298766,2038
1629894298770,2038
1629894298774,2039
1629894298778,2039
1629894298782,2039
1629894298786,2039
1629894298790,2040
1629894298794,2040
1629894298798,2039
1629894298802,2039
1629894298806,2039
1629894298810,2039
1629894298814,2040
1629894298818,2040
1629894298822,2041
1629894298826,2041
1629894298830,2041
1629894298834,2041
1629894298838,2041
1629894298842,2041
1629894298846,2041
1629894298850,2041
1629894298854,2041
1629894298858,2041
1629894298862,2042
1629894298866,2042
1629894298870,2042
1629894298874,2042
1629894298878,2042
1629894298882,2042
1629894298886,2042
1629894298890,2042
1629894298894,2043
1629894298898,2043
1629894298902,2043
1629894298906,2044
1629894298910,2044
1629894298914,2043
1629894298918,2043
1629894298922,2043
1629894298926,2042
1629894298930,2042
1629894298934,2043
1629894298938,2044
1629894298942,2046
1629894298946,2048
1629894298950,2052
1629894298954,2055
1629894298958,2057
1629894298962,2057
1629894298966,2056
1629894298970,2055
1629894298974,2054
1629894298978,2053
1629894298982,2054
1629894298986,2054
1629894298990,2053
1629894298994,2052
1629894298998,2050
1629894299002,2048
1629894299006,2046
1629894299010,2045
1629894299014,2045
1629894299018,2045
1629894299022,2045
1629894299026,2045
1629894299030,2045
1629894299034,2045
1629894299038,2045
1629894299042,2044
1629894299046,2044
1629894299050,2045
1629894299054,2047
1629894299058,2047
1629894299062,2045
1629894299066,2039
1629894299070,2029
1629894299074,2023
1629894299078,2024
1629894299082,2044
1629894299086,2093
1629894299090,2169
1629894299094,2251
1629894299098,2304
1629894299102,2301
1629894299106,2236
1629894299110,2134
1629894299114,2040
1629894299118,1985
1629894299122,1980
1629894299126,2007
1629894299130,2041
1629894299134,2059
1629894299138,2058
1629894299142,2050
1629894299146,2046
1629894299150,2043
1629894299154,2043
1629894299158,2044
1629894299162,2044
1629894299166,2044
1629894299170,2044
1629894299174,2045
1629894299178,2046
1629894299182,2047
1629894299186,2048
1629894299190,2048
1629894299194,2049
1629894299198,2049
1629894299202,2049
1629894299206,2050
1629894299210,2051
1629894299214,2052
1629894299218,2053
1629894299222,2054
1629894299226,2055
1629894299230,2056
1629894299234,2057
1629894299238,2058
1629894299242,2059
1629894299246,2060
1629894299250,2061
1629894299254,2062
1629894299258,2064
1629894299262,2065
1629894299266,2067
1629894299270,2068
1629894299274,2069
1629894299278,2071
1629894299282,2072
1629894299286,2074
1629894299290,2075
1629894299294,2077
1629894299298,2079
1629894299302,2081
1629894299306,2083
1629894299310,2085
1629894299314,2088
1629894299318,2090
1629894299322,2093
1629894299326,2094
1629894299330,2096
1629894299334,2099
1629894299338,2101
1629894299342,2103
1629894299346,2104
1629894299350,2105
1629894299354,2106
1629894299358,2106
1629894299362,2106
1629894299366,2105
1629894299370,2105
1629894299374,2104
1629894299378,2102
1629894299382,2099
1629894299386,2096
1629894299390,2092
1629894299394,2088
1629894299398,2084
1629894299402,2080
1629894299406,2076
1629894299410,2072
1629894299414,2068
1629894299418,2063
1629894299422,2059
1629894299426,2055
1629894299430,2052
1629894299434,2049
1629894299438,2048
1629894299442,2046
1629894299446,2044
1629894299450,2043
1629894299454,2042
1629894299458,2042
1629894299462,2042
1629894299466,2042
1629894299470,2042
1629894299474,2042
1629894299478,2042
1629894299482,2042
1629894299486,2041
1629894299490,2041
1629894299494,2041
1629894299498,2042
1629894299502,2043
1629894299506,2044
1629894299510,2045
1629894299514,2046
1629894299518,2046
1629894299522,2046
1629894299526,2045
1629894299530,2046
1629894299534,2046
1629894299538,2047
1629894299542,2047
1629894299546,2047
1629894299550,2047
1629894299554,2047
1629894299558,2046
1629894299562,2046
1629894299566,2045
1629894299570,2044
1629894299574,2044
1629894299578,2043
1629894299582,2043
1629894299586,2043
1629894299590,2043
1629894299594,2043
1629894299598,2042
1629894299602,2041
1629894299606,2040
1629894299610,2039
1629894299614,2039
1629894299618,2039
1629894299622,2039
1629894299626,2039
1629894299630,2039
1629894299634,2039
1629894299638,2039
1629894299642,2038
1629894299646,2038
1629894299650,2038
1629894299654,2038
1629894299658,2038
1629894299662,2038
1629894299666,2038
1629894299670,2039
1629894299674,2039
1629894299678,2039
1629894299682,2039
1629894299686,2039
1629894299690,2039
1629894299694,2039
1629894299698,2039
1629894299702,2039
1629894299706,2040
1629894299710,2040
1629894299714,2040
1629894299718,2040
1629894299722,2040
1629894299726,2040
1629894299730,2040
1629894299734,2040
1629894299738,2040
1629894299742,2040
1629894299746,2041
1629894299750,2041
1629894299754,2041
1629894299758,2041
1629894299762,2041
1629894299766,2041
1629894299770,2041
1629894299774,2040
1629894299778,2040
1629894299782,2040
1629894299786,2041
1629894299790,2041
1629894299794,2041
1629894299798,2042
1629894299802,2042
1629894299806,2042
1629894299810,2042
1629894299814,2042
1629894299818,2043
1629894299822,2043
1629894299826,2043
1629894299830,2044
1629894299834,2044
1629894299838,2044
1629894299842,2044
1629894299846,2044
1629894299850,2044
1629894299854,2044
1629894299858,2044
1629894299862,2044
1629894299866,2044
1629894299870,2045
1629894299874,2045
1629894299878,2044
1629894299882,2044
1629894299886,2043
1629894299890,2043
1629894299894,2044
1629894299898,2045
1629894299902,2047
1629894299906,2049
1629894299910,2052
1629894299914,2055
1629894299918,2056
1629894299922,2057
1629894299926,2056
1629894299930,2055
1629894299934,2054
1629894299938,2054
1629894299942,2054
1629894299946,2054
1629894299950,2053
1629894299954,2052
1629894299958,2050
1629894299962,2049
1629894299966,2048
1629894299970,2047
1629894299974,2046
1629894299978,2045
1629894299982,2045
1629894299986,2045
1629894299990,2045
1629894299994,2045
1629894299998,2044
1629894300002,2044
1629894300006,2044
1629894300010,2044
1629894300014,2045
1629894300018,2047
1629894300022,2047
1629894300026,2043
1629894300030,2035
1629894300034,2027
1629894300038,2022
1629894300042,2030
1629894300046,2061
1629894300050,2124
1629894300054,2206
1629894300058,2279
1629894300062,2310
1629894300066,2279
1629894300070,2195
1629894300074,2091
1629894300078,2012
1629894300082,1980
1629894300086,1992
1629894300090,2024
1629894300094,2051
1629894300098,2060
1629894300102,2055
1629894300106,2048
1629894300110,2044
1629894300114,2042
1629894300118,2041
1629894300122,2041
1629894300126,2041
1629894300130,2042
1629894300134,2043
1629894300138,2044
1629894300142,2046
1629894300146,2047
1629894300150,2047
1629894300154,2048
1629894300158,2048
1629894300162,2048
1629894300166,2049
1629894300170,2049
1629894300174,2050
1629894300178,2051
1629894300182,2052
1629894300186,2053
1629894300190,2055
1629894300194,2056
1629894300198,2057
1629894300202,2058
1629894300206,2059
1629894300210,2060
1629894300214,2060
1629894300218,2061
1629894300222,2063
1629894300226,2065
1629894300230,2067
1629894300234,2068
1629894300238,2069
1629894300242,2069
1629894300246,2070
1629894300250,2071
1629894300254,2073
1629894300258,2075
1629894300262,2078
1629894300266,2080
1629894300270,2083
1629894300274,2085
1629894300278,2088
1629894300282,2091
1629894300286,2093
1629894300290,2095
1629894300294,2097
1629894300298,2099
1629894300302,2101
1629894300306,2102
1629894300310,2103
1629894300314,2104
1629894300318,2104
1629894300322,2105
1629894300326,2104
1629894300330,2104
1629894300334,2103
1629894300338,2102
1629894300342,2099
1629894300346,2096
1629894300350,2092
1629894300354,2088
1629894300358,2084
1629894300362,2080
1629894300366,2075
1629894300370,2071
1629894300374,2067
1629894300378,2064
1629894300382,2060
1629894300386,2056
1629894300390,2052
1629894300394,2049
1629894300398,2047
1629894300402,2045
1629894300406,2043
1629894300410,2041
1629894300414,2040
1629894300418,2040
1629894300422,2040
1629894300426,2039
1629894300430,2039
1629894300434,2039
1629894300438,2038
1629894300442,2038
1629894300446,2038
1629894300450,2038
1629894300454,2039
1629894300458,2039
1629894300462,2040
1629894300466,2041
1629894300470,2041
1629894300474,2042
1629894300478,2042
1629894300482,2043
1629894300486,2043
1629894300490,2042
1629894300494,2042
1629894300498,2042
1629894300502,2043
1629894300506,2044
1629894300510,2044
1629894300514,2044
1629894300518,2043
1629894300522,2042
1629894300526,2041
1629894300530,2041
1629894300534,2042
1629894300538,2042
1629894300542,2042
1629894300546,2041
1629894300550,2040
1629894300554,2040
1629894300558,2039
1629894300562,2038
1629894300566,2037
1629894300570,2037
1629894300574,2036
1629894300578,2036
1629894300582,2037
1629894300586,2037
1629894300590,2037
1629894300594,2037
1629894300598,2036
1629894300602,2036
1629894300606,2035
1629894300610,2035
1629894300614,2035
1629894300618,2036
1629894300622,2037
1629894300626,2038
1629894300630,2038
1629894300634,2038
1629894300638,2037
1629894300642,2036
1629894300646,2035
1629894300650,2035
1629894300654,2036
1629894300658,2037
1629894300662,2038
1629894300666,2038
1629894300670,2038
1629894300674,2038
1629894300678,2037
1629894300682,2036
1629894300686,2036
1629894300690,2036
1629894300694,2037
1629894300698,2038
1629894300702,2040
1629894300706,2040
1629894300710,2041
1629894300714,2040
1629894300718,2039
1629894300722,2039
1629894300726,2038
1629894300730,2038
1629894300734,2038
1629894300738,2038
1629894300742,2039
1629894300746,2040
1629894300750,2041
1629894300754,2041
1629894300758,2041
1629894300762,2041
1629894300766,2040
1629894300770,2041
1629894300774,2041
1629894300778,2041
1629894300782,2042
1629894300786,2043
1629894300790,2043
1629894300794,2042
1629894300798,2042
1629894300802,2041
1629894300806,2040
1629894300810,2040
1629894300814,2041
1629894300818,2042
1629894300822,2042
1629894300826,2043
1629894300830,2042
1629894300834,2042
1629894300838,2042
1629894300842,2044
1629894300846,2047
1629894300850,2050
1629894300854,2054
1629894300858,2056
1629894300862,2056
1629894300866,2055
1629894300870,2054
1629894300874,2052
1629894300878,2052
1629894300882,2051
1629894300886,2050
1629894300890,2048
1629894300894,2047
1629894300898,2046
1629894300902,2044
1629894300906,2044
1629894300910,2043
1629894300914,2043
1629894300918,2043
1629894300922,2043
1629894300926,2042
1629894300930,2042
1629894300934,2042
1629894300938,2042
1629894300942,2041
1629894300946,2042
1629894300950,2043
1629894300954,2045
1629894300958,2046
1629894300962,2043
1629894300966,2035
1629894300970,2025
1629894300974,2019
1629894300978,2023
1629894300982,2050
1629894300986,2111
1629894300990,2190
1629894300994,2259
1629894300998,2287
1629894301002,2253
1629894301006,2167
1629894301010,2064
1629894301014,1985
1629894301018,1955
1629894301022,1970
1629894301026,2008
1629894301030,2043
1629894301034,2058
1629894301038,2056
1629894301042,2049
1629894301046,2045
1629894301050,2042
1629894301054,2041
1629894301058,2041
1629894301062,2043
1629894301066,2044
1629894301070,2046
1629894301074,2047
1629894301078,2047
1629894301082,2048
1629894301086,2048
1629894301090,2048
1629894301094,2048
1629894301098,2050
1629894301102,2051
1629894301106,2053
1629894301110,2054
1629894301114,2055
1629894301118,2056
1629894301122,2056
1629894301126,2057
1629894301130,2058
1629894301134,2059
1629894301138,2059
1629894301142,2060
1629894301146,2061
1629894301150,2062
1629894301154,2063
1629894301158,2064
1629894301162,2066
1629894301166,2068
1629894301170,2069
1629894301174,2071
1629894301178,2072
1629894301182,2073
1629894301186,2075
1629894301190,2077
1629894301194,2080
1629894301198,2082
1629894301202,2084
1629894301206,2085
1629894301210,2086
1629894301214,2089
1629894301218,2091
1629894301222,2095
1629894301226,2098
1629894301230,2100
1629894301234,2102
1629894301238,2104
1629894301242,2105
1629894301246,2106
1629894301250,2106
1629894301254,2105
1629894301258,2105
1629894301262,2104
1629894301266,2104
1629894301270,2103
1629894301274,2102
1629894301278,2100
1629894301282,2097
1629894301286,2093
1629894301290,2089
1629894301294,2084
1629894301298,2079
1629894301302,2075
1629894301306,2071
1629894301310,2066
1629894301314,2062
1629894301318,2059
1629894301322,2055
1629894301326,2051
1629894301330,2049
1629894301334,2048
1629894301338,2046
1629894301342,2045
1629894301346,2044
1629894301350,2043
1629894301354,2042
1629894301358,2042
1629894301362,2041
1629894301366,2041
1629894301370,2040
1629894301374,2040
1629894301378,2041
1629894301382,2041
1629894301386,2042
1629894301390,2043
1629894301394,2044
1629894301398,2045
1629894301402,2046
1629894301406,2046
1629894301410,2046
1629894301414,2046
1629894301418,2046
1629894301422,2046
1629894301426,2047
1629894301430,2048
1629894301434,2048
1629894301438,2048
1629894301442,2047
1629894301446,2047
1629894301450,2046
1629894301454,2046
1629894301458,2046
1629894301462,2046
1629894301466,2046
1629894301470,2045
1629894301474,2044
1629894301478,2043
1629894301482,2043
1629894301486,2042
1629894301490,2042
1629894301494,2042
1629894301498,2042
1629894301502,2042
1629894301506,2042
1629894301510,2042
1629894301514,2041
1629894301518,2040
1629894301522,2039
1629894301526,2039
1629894301530,2039
1629894301534,2039
1629894301538,2039
1629894301542,2039
1629894301546,2039
1629894301550,2040
1629894301554,2040
1629894301558,2040
1629894301562,2040
1629894301566,2039
1629894301570,2039
1629894301574,2039
1629894301578,2039
1629894301582,2040
1629894301586,2040
1629894301590,2041
1629894301594,2041
1629894301598,2041
1629894301602,2040
1629894301606,2040
1629894301610,2040
1629894301614,2040
1629894301618,2040
1629894301622,2041
1629894301626,2041
1629894301630,2041
1629894301634,2042
1629894301638,2042
1629894301642,2042
1629894301646,2042
1629894301650,2042
1629894301654,2042
1629894301658,2042
1629894301662,2043
1629894301666,2043
1629894301670,2044
1629894301674,2045
1629894301678,2045
1629894301682,2044
1629894301686,2043
1629894301690,2043
1629894301694,2044
1629894301698,2044
1629894301702,2045
1629894301706,2045
1629894301710,2046
1629894301714,2047
1629894301718,2047
1629894301722,2047
1629894301726,2046
1629894301730,2046
1629894301734,2046
1629894301738,2047
1629894301742,2048
1629894301746,2048
1629894301750,2048
1629894301754,2048
1629894301758,2047
1629894301762,2047
1629894301766,2046
1629894301770,2046
1629894301774,2046
1629894301778,2046
1629894301782,2047
1629894301786,2048
1629894301790,2051
1629894301794,2054
1629894301798,2057
1629894301802,2059
1629894301806,2060
1629894301810,2059
1629894301814,2058
1629894301818,2057
1629894301822,2057
1629894301826,2057
1629894301830,2058
1629894301834,2057
1629894301838,2056
1629894301842,2054
1629894301846,2051
1629894301850,2049
1629894301854,2048
1629894301858,2048
1629894301862,2048
1629894301866,2048
1629894301870,2048
1629894301874,2048
1629894301878,2048
1629894301882,2048
1629894301886,2048
1629894301890,2047
1629894301894,2047
1629894301898,2048
1629894301902,2049
1629894301906,2050
1629894301910,2047
1629894301914,2039
1629894301918,2029
1629894301922,2024
1629894301926,2031
1629894301930,2061
1629894301934,2123
1629894301938,2206
1629894301942,2279
1629894301946,2311
1629894301950,2280
1629894301954,2195
1629894301958,2090
1629894301962,2009
1629894301966,1975
1629894301970,1988
1629894301974,2023
1629894301978,2053
1629894301982,2065
1629894301986,2059
1629894301990,2051
1629894301994,2047
1629894301998,2045
1629894302002,2045
1629894302006,2046
1629894302010,2047
1629894302014,2047
1629894302018,2048
1629894302022,2048
1629894302026,2049
1629894302030,2049
1629894302034,2050
1629894302038,2051
1629894302042,2051
1629894302046,2052
1629894302050,2052
1629894302054,2053
1629894302058,2054
1629894302062,2056
1629894302066,2057
1629894302070,2058
1629894302074,2059
1629894302078,2060
1629894302082,2060
1629894302086,2060
1629894302090,2061
1629894302094,2062
1629894302098,2064
1629894302102,2065
1629894302106,2067
1629894302110,2069
1629894302114,2070
1629894302118,2071
1629894302122,2071
1629894302126,2072
1629894302130,2073
1629894302134,2076
1629894302138,2078
1629894302142,2080
1629894302146,2083
1629894302150,2085
1629894302154,2087
1629894302158,2089
1629894302162,2091
1629894302166,2092
1629894302170,2094
1629894302174,2096
1629894302178,2098
1629894302182,2101
1629894302186,2103
1629894302190,2105
1629894302194,2106
1629894302198,2107
1629894302202,2107
1629894302206,2107
1629894302210,2106
1629894302214,2105
1629894302218,2104
1629894302222,2103
1629894302226,2101
1629894302230,2099
1629894302234,2095
1629894302238,2091
1629894302242,2087
1629894302246,2081
1629894302250,2077
1629894302254,2072
1629894302258,2068
1629894302262,2064
1629894302266,2061
1629894302270,2058
1629894302274,2054
1629894302278,2052
1629894302282,2049
1629894302286,2047
1629894302290,2045
1629894302294,2043
1629894302298,2042
1629894302302,2042
1629894302306,2041
1629894302310,2041
1629894302314,2041
1629894302318,2042
1629894302322,2041
1629894302326,2041
1629894302330,2041
1629894302334,2041
1629894302338,2042
1629894302342,2043
1629894302346,2044
1629894302350,2045
1629894302354,2045
1629894302358,2046
1629894302362,2045
1629894302366,2045
1629894302370,2046
1629894302374,2047
1629894302378,2048
1629894302382,2048
1629894302386,2048
1629894302390,2048
1629894302394,2048
1629894302398,2048
1629894302402,2047
1629894302406,2047
1629894302410,2047
1629894302414,2047
1629894302418,2046
1629894302422,2046
1629894302426,2045
1629894302430,2045
1629894302434,2045
1629894302438,2045
1629894302442,2044
1629894302446,2043
1629894302450,2042
1629894302454,2041
1629894302458,2041
1629894302462,2042
1629894302466,2042
1629894302470,2042
1629894302474,2042
1629894302478,2041
1629894302482,2041
1629894302486,2041
1629894302490,2040
1629894302494,2039
1629894302498,2039
1629894302502,2040
1629894302506,2041
1629894302510,2042
1629894302514,2042
1629894302518,2040
1629894302522,2040
1629894302526,2039
1629894302530,2040
1629894302534,2040
1629894302538,2040
1629894302542,2041
1629894302546,2041
1629894302550,2041
1629894302554,2041
1629894302558,2041
1629894302562,2041
1629894302566,2041
1629894302570,2041
1629894302574,2042
1629894302578,2042
1629894302582,2042
1629894302586,2042
1629894302590,2042
1629894302594,2042
1629894302598,2042
1629894302602,2042
1629894302606,2042
1629894302610,2042
1629894302614,2042
1629894302618,2042
1629894302622,2043
1629894302626,2043
1629894302630,2044
1629894302634,2044
1629894302638,2044
1629894302642,2043
1629894302646,2043
1629894302650,2043
1629894302654,2043
1629894302658,2043
1629894302662,2044
1629894302666,2044
1629894302670,2045
1629894302674,2045
1629894302678,2044
1629894302682,2044
1629894302686,2044
1629894302690,2044
1629894302694,2044
1629894302698,2044
1629894302702,2045
1629894302706,2045
1629894302710,2045
1629894302714,2046
1629894302718,2046
1629894302722,2046
1629894302726,2046
1629894302730,2046
1629894302734,2045
1629894302738,2045
1629894302742,2045
1629894302746,2046
1629894302750,2046
1629894302754,2046
1629894302758,2046
1629894302762,2045
1629894302766,2044
1629894302770,2044
1629894302774,2044
1629894302778,2044
1629894302782,2045
1629894302786,2047
1629894302790,2049
1629894302794,2052
1629894302798,2055
1629894302802,2057
1629894302806,2058
1629894302810,2057
1629894302814,2056
1629894302818,2055
1629894302822,2054
1629894302826,2055
1629894302830,2055
1629894302834,2055
1629894302838,2053
1629894302842,2052
1629894302846,2049
1629894302850,2048
1629894302854,2047
1629894302858,2046
1629894302862,2046
1629894302866,2046
1629894302870,2046
1629894302874,2046
1629894302878,2046
1629894302882,2046
1629894302886,2045
1629894302890,2045
1629894302894,2045
1629894302898,2047
1629894302902,2048
1629894302906,2048
1629894302910,2046
1629894302914,2038
1629894302918,2028
1629894302922,2022
1629894302926,2026
1629894302930,2049
1629894302934,2105
1629894302938,2186
1629894302942,2265
1629894302946,2310
1629894302950,2296
1629894302954,2223
1629894302958,2119
1629894302962,2030
1629894302966,1984
1629894302970,1986
1629894302974,2016
1629894302978,2047
1629894302982,2061
1629894302986,2057
1629894302990,2049
1629894302994,2044
1629894302998,2042
1629894303002,2042
1629894303006,2043
1629894303010,2043
1629894303014,2044
1629894303018,2044
1629894303022,2044
1629894303026,2045
1629894303030,2046
1629894303034,2047
1629894303038,2048
1629894303042,2048
1629894303046,2048
1629894303050,2048
1629894303054,2049
1629894303058,2049
1629894303062,2051
1629894303066,2052
1629894303070,2054
1629894303074,2055
1629894303078,2056
1629894303082,2057
1629894303086,2057
1629894303090,2057
1629894303094,2058
1629894303098,2059
1629894303102,2061
1629894303106,2063
1629894303110,2064
1629894303114,2065
1629894303118,2066
1629894303122,2067
1629894303126,2068
1629894303130,2070
1629894303134,2071
1629894303138,2073
1629894303142,2075
1629894303146,2077
1629894303150,2079
1629894303154,2081
1629894303158,2083
1629894303162,2085
1629894303166,2087
1629894303170,2089
1629894303174,2091
1629894303178,2094
1629894303182,2096
1629894303186,2098
1629894303190,2100
1629894303194,2102
1629894303198,2103
1629894303202,2103
1629894303206,2103
1629894303210,2103
1629894303214,2103
1629894303218,2102
1629894303222,2101
1629894303226,2099
1629894303230,2096
1629894303234,2093
1629894303238,2089
1629894303242,2085
1629894303246,2080
1629894303250,2076
1629894303254,2072
1629894303258,2068
1629894303262,2064
1629894303266,2061
1629894303270,2058
1629894303274,2055
1629894303278,2052
1629894303282,2049
1629894303286,2047
1629894303290,2045
1629894303294,2043
1629894303298,2043
1629894303302,2042
1629894303306,2042
1629894303310,2042
1629894303314,2041
1629894303318,2041
1629894303322,2040
1629894303326,2040
1629894303330,2040
1629894303334,2041
1629894303338,2041
1629894303342,2041
1629894303346,2042
1629894303350,2042
1629894303354,2043
1629894303358,2043
1629894303362,2044
1629894303366,2044
1629894303370,2044
1629894303374,2045
1629894303378,2045
1629894303382,2045
1629894303386,2045
1629894303390,2045
1629894303394,2045
1629894303398,2045
1629894303402,2045
1629894303406,2044
1629894303410,2044
1629894303414,2043
1629894303418,2043
1629894303422,2043
1629894303426,2044
1629894303430,2043
1629894303434,2043
1629894303438,2042
1629894303442,2041
1629894303446,2039
1629894303450,2038
1629894303454,2037
1629894303458,2037
1629894303462,2037
1629894303466,2038
1629894303470,2039
1629894303474,2039
1629894303478,2038
1629894303482,2038
1629894303486,2037
1629894303490,2036
1629894303494,2036
1629894303498,2036
1629894303502,2036
1629894303506,2037
1629894303510,2038
1629894303514,2038
1629894303518,2038
1629894303522,2037
1629894303526,2036
1629894303530,2036
1629894303534,2036
1629894303538,2036
1629894303542,2037
1629894303546,2038
1629894303550,2038
1629894303554,2038
1629894303558,2038
1629894303562,2038
1629894303566,2037
1629894303570,2037
1629894303574,2037
1629894303578,2038
1629894303582,2038
1629894303586,2038
1629894303590,2038
1629894303594,2038
1629894303598,2038
1629894303602,2039
1629894303606,2039
1629894303610,2039
1629894303614,2040
1629894303618,2040
1629894303622,2040
1629894303626,2040
1629894303630,2040
1629894303634,2039
1629894303638,2039
1629894303642,2039
1629894303646,2039
1629894303650,2040
1629894303654,2040
1629894303658,2040
1629894303662,2040
1629894303666,2040
1629894303670,2040
1629894303674,2041
1629894303678,2041
1629894303682,2041
1629894303686,2041
1629894303690,2041
1629894303694,2041
1629894303698,2041
1629894303702,2042
1629894303706,2042
1629894303710,2042
1629894303714,2042
1629894303718,2042
1629894303722,2042
1629894303726,2042
1629894303730,2042
1629894303734,2042
1629894303738,2042
1629894303742,2042
1629894303746,2042
1629894303750,2043
1629894303754,2043
1629894303758,2044
1629894303762,2044
1629894303766,2044
1629894303770,2043
1629894303774,2043
1629894303778,2043
1629894303782,2044
1629894303786,2044
1629894303790,2045
1629894303794,2045
1629894303798,2045
1629894303802,2044
1629894303806,2043
1629894303810,2042
1629894303814,2041
1629894303818,2042
1629894303822,2043
1629894303826,2043
1629894303830,2044
1629894303834,2046
1629894303838,2047
1629894303842,2049
1629894303846,2051
1629894303850,2053
1629894303854,2054
1629894303858,2054
1629894303862,2054
1629894303866,2054
1629894303870,2054
1629894303874,2054
1629894303878,2053
1629894303882,2052
1629894303886,2049
1629894303890,2048
1629894303894,2046
1629894303898,2044
1629894303902,2044
1629894303906,2043
1629894303910,2043
1629894303914,2042
1629894303918,2042
1629894303922,2042
1629894303926,2042
1629894303930,2043
1629894303934,2043
1629894303938,2043
1629894303942,2044
1629894303946,2045
1629894303950,2046
1629894303954,2044
1629894303958,2038
1629894303962,2029
1629894303966,2023
1629894303970,2024
1629894303974,2046
1629894303978,2097
1629894303982,2173
1629894303986,2248
1629894303990,2288
1629894303994,2271
1629894303998,2197
1629894304002,2095
1629894304006,2008
1629894304010,1965
1629894304014,1970
1629894304018,2002
1629894304022,2038
1629894304026,2056
1629894304030,2057
1629894304034,2050
1629894304038,2046
1629894304042,2043
1629894304046,2041
1629894304050,2042
1629894304054,2043
1629894304058,2044
1629894304062,2045
1629894304066,2046
1629894304070,2047
1629894304074,2047
1629894304078,2047
1629894304082,2047
1629894304086,2047
1629894304090,2048
1629894304094,2048
1629894304098,2049
1629894304102,2051
1629894304106,2052
1629894304110,2052
1629894304114,2053
1629894304118,2053
1629894304122,2054
1629894304126,2055
1629894304130,2057
1629894304134,2058
1629894304138,2059
1629894304142,2060
1629894304146,2061
1629894304150,2062
1629894304154,2063
1629894304158,2065
1629894304162,2067
1629894304166,2069
1629894304170,2070
1629894304174,2071
1629894304178,2072
1629894304182,2073
1629894304186,2075
1629894304190,2077
1629894304194,2078
1629894304198,2080
1629894304202,2083
1629894304206,2085
1629894304210,2087
1629894304214,2090
1629894304218,2092
1629894304222,2095
1629894304226,2096
1629894304230,2098
1629894304234,2099
1629894304238,2100
1629894304242,2101
1629894304246,2101
1629894304250,2100
1629894304254,2100
1629894304258,2100
1629894304262,2100
1629894304266,2100
1629894304270,2098
1629894304274,2094
1629894304278,2091
1629894304282,2086
1629894304286,2082
1629894304290,2079
1629894304294,2075
1629894304298,2072
1629894304302,2069
1629894304306,2065
1629894304310,2061
1629894304314,2057
1629894304318,2054
1629894304322,2050
1629894304326,2047
1629894304330,2045
1629894304334,2043
1629894304338,2042
1629894304342,2041
1629894304346,2040
1629894304350,2040
1629894304354,2039
1629894304358,2039
1629894304362,2038
1629894304366,2038
1629894304370,2038
1629894304374,2039
1629894304378,2039
1629894304382,2039
1629894304386,2039
1629894304390,2040
1629894304394,2040
1629894304398,2041
1629894304402,2042
1629894304406,2043
1629894304410,2043
1629894304414,2044
1629894304418,2044
1629894304422,2044
1629894304426,2044
1629894304430,2044
1629894304434,2044
1629894304438,2044
1629894304442,2044
1629894304446,2043
1629894304450,2042
1629894304454,2042
1629894304458,2041
1629894304462,2041
1629894304466,2041
1629894304470,2040
1629894304474,2039
1629894304478,2039
1629894304482,2038
1629894304486,2037
1629894304490,2036
1629894304494,2035
1629894304498,2034
1629894304502,2035
1629894304506,2037
1629894304510,2038
1629894304514,2038
1629894304518,2037
1629894304522,2036
1629894304526,2036
1629894304530,2035
1629894304534,2035
1629894304538,2035
1629894304542,2035
1629894304546,2036
1629894304550,2037
1629894304554,2037
1629894304558,2036
1629894304562,2035
1629894304566,2034
1629894304570,2034
1629894304574,2034
1629894304578,2035
1629894304582,2037
1629894304586,2037
1629894304590,2037
1629894304594,2037
1629894304598,2037
1629894304602,2037
1629894304606,2037
1629894304610,2037
1629894304614,2037
1629894304618,2036
1629894304622,2037
1629894304626,2037
1629894304630,2038
1629894304634,2040
1629894304638,2040
1629894304642,2040
1629894304646,2039
1629894304650,2037
1629894304654,2036
1629894304658,2036
1629894304662,2038
1629894304666,2040
1629894304670,2041
1629894304674,2041
1629894304678,2040
1629894304682,2039
1629894304686,2038
1629894304690,2039
1629894304694,2039
1629894304698,2040
1629894304702,2041
1629894304706,2041
1629894304710,2041
1629894304714,2041
1629894304718,2041
1629894304722,2042
1629894304726,2042
1629894304730,2042
1629894304734,2042
1629894304738,2042
1629894304742,2042
1629894304746,2043
1629894304750,2043
1629894304754,2043
1629894304758,2043
1629894304762,2043
1629894304766,2043
1629894304770,2043
1629894304774,2043
1629894304778,2043
1629894304782,2044
1629894304786,2045
1629894304790,2045
1629894304794,2046
1629894304798,2045
1629894304802,2045
1629894304806,2044
1629894304810,2045
1629894304814,2045
1629894304818,2046
1629894304822,2047
1629894304826,2046
1629894304830,2047
1629894304834,2047
1629894304838,2047
1629894304842,2047
1629894304846,2047
1629894304850,2047
1629894304854,2046
1629894304858,2045
1629894304862,2045
1629894304866,2046
1629894304870,2047
1629894304874,2048
1629894304878,2048
1629894304882,2048
1629894304886,2048
1629894304890,2048
1629894304894,2048
1629894304898,2048
1629894304902,2049
1629894304906,2049
1629894304910,2050
1629894304914,2049
1629894304918,2049
1629894304922,2048
1629894304926,2048
1629894304930,2048
1629894304934,2048
1629894304938,2048
1629894304942,2048
1629894304946,2048
1629894304950,2050
1629894304954,2053
1629894304958,2055
1629894304962,2058
1629894304966,2059
1629894304970,2058
1629894304974,2056
1629894304978,2053
1629894304982,2050
1629894304986,2049
1629894304990,2049
1629894304994,2049
1629894304998,2049
1629894305002,2049
1629894305006,2049
1629894305010,2048
1629894305014,2048
1629894305018,2048
1629894305022,2048
1629894305026,2049
1629894305030,2051
1629894305034,2053
1629894305038,2052
1629894305042,2048
1629894305046,2040
1629894305050,2031
1629894305054,2028
1629894305058,2039
1629894305062,2072
1629894305066,2136
1629894305070,2213
1629894305074,2273
1629894305078,2289
1629894305082,2246
1629894305086,2156
1629894305090,2058
1629894305094,1991
1629894305098,1971
1629894305102,1992
1629894305106,2029
1629894305110,2058
1629894305114,2066
1629894305118,2059
1629894305122,2051
1629894305126,2047
1629894305130,2046
1629894305134,2046
1629894305138,2048
1629894305142,2049
1629894305146,2049
1629894305150,2049
1629894305154,2050
1629894305158,2051
1629894305162,2052
1629894305166,2052
1629894305170,2053
1629894305174,2053
1629894305178,2054
1629894305182,2055
1629894305186,2055
1629894305190,2056
1629894305194,2057
1629894305198,2058
1629894305202,2059
1629894305206,2060
1629894305210,2060
1629894305214,2061
1629894305218,2062
1629894305222,2063
1629894305226,2063
1629894305230,2064
1629894305234,2065
1629894305238,2066
1629894305242,2068
1629894305246,2069
1629894305250,2069
1629894305254,2070
1629894305258,2071
1629894305262,2073
1629894305266,2075
1629894305270,2077
1629894305274,2079
1629894305278,2081
1629894305282,2083
1629894305286,2084
1629894305290,2086
1629894305294,2088
1629894305298,2091
1629894305302,2092
1629894305306,2094
1629894305310,2096
1629894305314,2097
1629894305318,2098
1629894305322,2099
1629894305326,2100
1629894305330,2101
1629894305334,2102
1629894305338,2102
1629894305342,2102
1629894305346,2101
1629894305350,2100
1629894305354,2098
1629894305358,2095
1629894305362,2092
1629894305366,2089
1629894305370,2086
1629894305374,2083
1629894305378,2080
1629894305382,2077
1629894305386,2073
1629894305390,2070
1629894305394,2066
1629894305398,2063
1629894305402,2059
1629894305406,2056
1629894305410,2053
1629894305414,2050
1629894305418,2048
1629894305422,2047
1629894305426,2045
1629894305430,2045
1629894305434,2044
1629894305438,2043
1629894305442,2043
1629894305446,2042
1629894305450,2042
1629894305454,2042
1629894305458,2042
1629894305462,2044
1629894305466,2045
1629894305470,2046
1629894305474,2046
1629894305478,2046
1629894305482,2046
1629894305486,2046
1629894305490,2046
1629894305494,2046
1629894305498,2048
1629894305502,2048
1629894305506,2049
1629894305510,2050
1629894305514,2050
1629894305518,2048
1629894305522,2048
1629894305526,2048
1629894305530,2048
1629894305534,2048
1629894305538,2048
1629894305542,2048
1629894305546,2048
1629894305550,2047
1629894305554,2047
1629894305558,2046
1629894305562,2045
1629894305566,2044
1629894305570,2043
1629894305574,2042
1629894305578,2042
1629894305582,2042
1629894305586,2042
1629894305590,2042
1629894305594,2042
1629894305598,2042
1629894305602,2041
1629894305606,2041
1629894305610,2040
1629894305614,2039
1629894305618,2039
1629894305622,2040
1629894305626,2040
1629894305630,2041
1629894305634,2041
1629894305638,2041
1629894305642,2040
1629894305646,2040
1629894305650,2039
1629894305654,2039
1629894305658,2040
1629894305662,2040
1629894305666,2041
1629894305670,2041
1629894305674,2042
1629894305678,2041
1629894305682,2041
1629894305686,2040
1629894305690,2040
1629894305694,2040
1629894305698,2040
1629894305702,2041
1629894305706,2041
1629894305710,2041
1629894305714,2041
1629894305718,2041
1629894305722,2041
1629894305726,2041
1629894305730,2042
1629894305734,2042
1629894305738,2042
1629894305742,2043
1629894305746,2043
1629894305750,2044
1629894305754,2044
1629894305758,2043
1629894305762,2042
1629894305766,2042
1629894305770,2042
1629894305774,2042
1629894305778,2043
1629894305782,2043
1629894305786,2044
1629894305790,2044
1629894305794,2044
1629894305798,2044
1629894305802,2044
1629894305806,2043
1629894305810,2044
1629894305814,2044
1629894305818,2044
1629894305822,2045
1629894305826,2045
1629894305830,2045
1629894305834,2046
1629894305838,2045
1629894305842,2045
1629894305846,2045
1629894305850,2045
1629894305854,2045
1629894305858,2045
1629894305862,2046
1629894305866,2046
1629894305870,2046
1629894305874,2047
1629894305878,2046
1629894305882,2046
1629894305886,2046
1629894305890,2045
1629894305894,2046
1629894305898,2046
1629894305902,2046
1629894305906,2047
1629894305910,2047
1629894305914,2048
1629894305918,2048
1629894305922,2048
1629894305926,2048
1629894305930,2048
1629894305934,2048
1629894305938,2048
1629894305942,2048
1629894305946,2048
1629894305950,2048
1629894305954,2048
1629894305958,2048
1629894305962,2048
1629894305966,2047
1629894305970,2048
1629894305974,2050
1629894305978,2053
1629894305982,2057
1629894305986,2059
1629894305990,2059
1629894305994,2056
1629894305998,2053
1629894306002,2050
1629894306006,2049
1629894306010,2048
1629894306014,2048
1629894306018,2048
1629894306022,2048
1629894306026,2048
1629894306030,2048
1629894306034,2048
1629894306038,2048
1629894306042,2048
1629894306046,2048
1629894306050,2048
1629894306054,2048
1629894306058,2049
1629894306062,2048
1629894306066,2043
1629894306070,2034
1629894306074,2027
1629894306078,2027
1629894306082,2044
1629894306086,2087
1629894306090,2160
1629894306094,2239
1629894306098,2294
1629894306102,2297
1629894306106,2240
1629894306110,2143
1629894306114,2048
1629894306118,1992
1629894306122,1984
1629894306126,2009
1629894306130,2044
1629894306134,2063
1629894306138,2063
1629894306142,2055
1629894306146,2048
1629894306150,2046
1629894306154,2045
1629894306158,2045
1629894306162,2046
1629894306166,2046
1629894306170,2046
1629894306174,2047
1629894306178,2048
1629894306182,2048
1629894306186,2049
1629894306190,2050
1629894306194,2051
1629894306198,2051
1629894306202,2051
1629894306206,2051
1629894306210,2052
1629894306214,2053
1629894306218,2054
1629894306222,2055
1629894306226,2056
1629894306230,2058
1629894306234,2059
1629894306238,2060
1629894306242,2060
1629894306246,2060
1629894306250,2061
1629894306254,2062
1629894306258,2064
1629894306262,2065
1629894306266,2066
1629894306270,2068
1629894306274,2070
1629894306278,2072
1629894306282,2073
1629894306286,2073
1629894306290,2074
1629894306294,2076
1629894306298,2079
1629894306302,2081
1629894306306,2083
1629894306310,2085
1629894306314,2087
1629894306318,2089
1629894306322,2091
1629894306326,2093
1629894306330,2095
1629894306334,2097
1629894306338,2100
1629894306342,2102
1629894306346,2103
1629894306350,2105
1629894306354,2105
1629894306358,2105
1629894306362,2104
1629894306366,2103
1629894306370,2102
1629894306374,2101
1629894306378,2100
1629894306382,2098
1629894306386,2095
1629894306390,2091
1629894306394,2087
1629894306398,2083
1629894306402,2079
1629894306406,2075
1629894306410,2070
1629894306414,2066
1629894306418,2063
1629894306422,2060
1629894306426,2057
1629894306430,2054
1629894306434,2051
1629894306438,2048
1629894306442,2047
1629894306446,2045
1629894306450,2043
1629894306454,2042
1629894306458,2041
1629894306462,2040
1629894306466,2040
1629894306470,2040
1629894306474,2040
1629894306478,2041
1629894306482,2042
1629894306486,2042
1629894306490,2041
1629894306494,2040
1629894306498,2040
1629894306502,2041
1629894306506,2043
1629894306510,2044
1629894306514,2045
1629894306518,2045
1629894306522,2045
1629894306526,2045
1629894306530,2046
1629894306534,2046
1629894306538,2047
1629894306542,2048
1629894306546,2048
1629894306550,2048
1629894306554,2048
1629894306558,2048
1629894306562,2047
1629894306566,2046
1629894306570,2046
1629894306574,2045
1629894306578,2045
1629894306582,2045
1629894306586,2044
1629894306590,2044
1629894306594,2043
1629894306598,2043
1629894306602,2042
1629894306606,2041
1629894306610,2041
1629894306614,2041
1629894306618,2040
1629894306622,2040
1629894306626,2040
1629894306630,2040
1629894306634,2041
1629894306638,2040
1629894306642,2040
1629894306646,2040
1629894306650,2039
1629894306654,2039
1629894306658,2039
1629894306662,2039
1629894306666,2039
1629894306670,2040
1629894306674,2040
1629894306678,2040
1629894306682,2041
1629894306686,2040
1629894306690,2040
1629894306694,2039
1629894306698,2039
1629894306702,2039
1629894306706,2040
1629894306710,2041
1629894306714,2041
1629894306718,2041
1629894306722,2040
1629894306726,2040
1629894306730,2040
1629894306734,2040
1629894306738,2040
1629894306742,2041
1629894306746,2041
1629894306750,2042
1629894306754,2042
1629894306758,2041
1629894306762,2042
1629894306766,2041
1629894306770,2042
1629894306774,2042
1629894306778,2042
1629894306782,2042
1629894306786,2042
1629894306790,2042
1629894306794,2042
1629894306798,2042
1629894306802,2043
1629894306806,2043
1629894306810,2043
1629894306814,2043
1629894306818,2042
1629894306822,2042
1629894306826,2042
1629894306830,2043
1629894306834,2043
1629894306838,2044
1629894306842,2044
1629894306846,2044
1629894306850,2044
1629894306854,2044
1629894306858,2044
1629894306862,2045
1629894306866,2045
1629894306870,2045
1629894306874,2045
1629894306878,2045
1629894306882,2044
1629894306886,2044
1629894306890,2044
1629894306894,2045
1629894306898,2045
1629894306902,2046
1629894306906,2046
1629894306910,2046
1629894306914,2046
1629894306918,2046
1629894306922,2046
1629894306926,2045
1629894306930,2045
1629894306934,2045
1629894306938,2045
1629894306942,2046
1629894306946,2046
1629894306950,2047
1629894306954,2047
1629894306958,2047
1629894306962,2046
1629894306966,2046
1629894306970,2046
1629894306974,2047
1629894306978,2047
1629894306982,2048
1629894306986,2048
1629894306990,2048
1629894306994,2048
1629894306998,2048
1629894307002,2047
1629894307006,2047
1629894307010,2047
1629894307014,2047
1629894307018,2046
1629894307022,2046
1629894307026,2047
1629894307030,2048
1629894307034,2051
1629894307038,2055
1629894307042,2057
1629894307046,2057
1629894307050,2056
1629894307054,2052
1629894307058,2050
1629894307062,2048
1629894307066,2048
1629894307070,2048
1629894307074,2048
1629894307078,2047
1629894307082,2047
1629894307086,2046
1629894307090,2046
1629894307094,2045
1629894307098,2045
1629894307102,2046
1629894307106,2047
1629894307110,2048
1629894307114,2049
1629894307118,2048
1629894307122,2043
1629894307126,2034
1629894307130,2025
1629894307134,2023
1629894307138,2035
1629894307142,2071
1629894307146,2139
1629894307150,2220
1629894307154,2288
1629894307158,2309
1629894307162,2268
1629894307166,2179
1629894307170,2079
1629894307174,2008
1629894307178,1985
1629894307182,2002
1629894307186,2035
1629894307190,2058
1629894307194,2063
1629894307198,2054
1629894307202,2047
1629894307206,2043
1629894307210,2042
1629894307214,2043
1629894307218,2044
1629894307222,2045
1629894307226,2045
1629894307230,2045
1629894307234,2045
1629894307238,2045
1629894307242,2046
1629894307246,2046
1629894307250,2047
1629894307254,2047
1629894307258,2048
1629894307262,2048
1629894307266,2049
1629894307270,2049
1629894307274,2050
1629894307278,2051
1629894307282,2052
1629894307286,2052
1629894307290,2053
1629894307294,2054
1629894307298,2056
1629894307302,2057
1629894307306,2058
1629894307310,2059
1629894307314,2061
1629894307318,2062
1629894307322,2063
1629894307326,2064
1629894307330,2065
1629894307334,2066
1629894307338,2068
1629894307342,2069
1629894307346,2071
1629894307350,2073
1629894307354,2075
1629894307358,2077
1629894307362,2078
1629894307366,2079
1629894307370,2081
1629894307374,2083
1629894307378,2086
1629894307382,2089
1629894307386,2092
1629894307390,2094
1629894307394,2096
1629894307398,2098
1629894307402,2099
1629894307406,2099
1629894307410,2100
1629894307414,2100
1629894307418,2100
1629894307422,2101
1629894307426,2100
1629894307430,2100
1629894307434,2099
1629894307438,2097
1629894307442,2094
1629894307446,2091
1629894307450,2087
1629894307454,2083
1629894307458,2079
1629894307462,2075
1629894307466,2071
1629894307470,2068
1629894307474,2064
1629894307478,2061
1629894307482,2058
1629894307486,2054
1629894307490,2051
1629894307494,2048
1629894307498,2045
1629894307502,2044
1629894307506,2043
1629894307510,2042
1629894307514,2042
1629894307518,2041
1629894307522,2040
1629894307526,2039
1629894307530,2039
1629894307534,2039
1629894307538,2039
1629894307542,2040
1629894307546,2041
1629894307550,2041
1629894307554,2042
1629894307558,2042
1629894307562,2043
1629894307566,2043
1629894307570,2043
1629894307574,2043
1629894307578,2043
1629894307582,2044
1629894307586,2044
1629894307590,2045
1629894307594,2045
1629894307598,2045
1629894307602,2045
1629894307606,2044
1629894307610,2044
1629894307614,2044
1629894307618,2043
1629894307622,2043
1629894307626,2043
1629894307630,2043
1629894307634,2042
1629894307638,2042
1629894307642,2042
1629894307646,2041
1629894307650,2041
1629894307654,2041
1629894307658,2040
1629894307662,2040
1629894307666,2039
1629894307670,2039
1629894307674,2038
1629894307678,2038
1629894307682,2038
1629894307686,2038
1629894307690,2037
1629894307694,2037
1629894307698,2037
1629894307702,2037
1629894307706,2037
1629894307710,2038
1629894307714,2037
1629894307718,2037
1629894307722,2036
1629894307726,2036
1629894307730,2037
1629894307734,2037
1629894307738,2037
1629894307742,2037
1629894307746,2037
1629894307750,2037
1629894307754,2036
1629894307758,2036
1629894307762,2037
1629894307766,2037
1629894307770,2037
1629894307774,2038
1629894307778,2038
1629894307782,2038
1629894307786,2038
1629894307790,2039
1629894307794,2039
1629894307798,2038
1629894307802,2038
1629894307806,2037
1629894307810,2037
1629894307814,2038
1629894307818,2038
1629894307822,2039
1629894307826,2040
1629894307830,2040
1629894307834,2039
1629894307838,2039
1629894307842,2038
1629894307846,2037
1629894307850,2037
1629894307854,2038
1629894307858,2039
1629894307862,2040
1629894307866,2042
1629894307870,2042
1629894307874,2042
1629894307878,2041
1629894307882,2041
1629894307886,2040
1629894307890,2041
1629894307894,2041
1629894307898,2042
1629894307902,2042
1629894307906,2041
1629894307910,2041
1629894307914,2041
1629894307918,2040
1629894307922,2041
1629894307926,2041
1629894307930,2041
1629894307934,2041
1629894307938,2041
1629894307942,2042
1629894307946,2042
1629894307950,2042
1629894307954,2042
1629894307958,2042
1629894307962,2043
1629894307966,2043
1629894307970,2043
1629894307974,2043
1629894307978,2043
1629894307982,2043
1629894307986,2044
1629894307990,2044
1629894307994,2044
1629894307998,2044
1629894308002,2043
1629894308006,2043
1629894308010,2043
1629894308014,2044
1629894308018,2045
1629894308022,2047
1629894308026,2047
1629894308030,2047
1629894308034,2045
1629894308038,2044
1629894308042,2044
1629894308046,2043
1629894308050,2044
1629894308054,2044
1629894308058,2046
1629894308062,2048
1629894308066,2051
1629894308070,2053
1629894308074,2054
1629894308078,2053
1629894308082,2051
1629894308086,2048
1629894308090,2047
1629894308094,2046
1629894308098,2045
1629894308102,2045
1629894308106,2045
1629894308110,2045
1629894308114,2045
1629894308118,2044
1629894308122,2044
1629894308126,2043
1629894308130,2043
1629894308134,2043
1629894308138,2044
1629894308142,2047
1629894308146,2048
1629894308150,2045
1629894308154,2037
1629894308158,2027
1629894308162,2022
1629894308166,2029
1629894308170,2057
1629894308174,2116
1629894308178,2194
1629894308182,2262
1629894308186,2289
1629894308190,2257
1629894308194,2174
1629894308198,2073
1629894308202,1997
1629894308206,1967
1629894308210,1981
1629894308214,2017
1629894308218,2048
1629894308222,2060
1629894308226,2055
1629894308230,2048
1629894308234,2043
1629894308238,2042
1629894308242,2042
1629894308246,2042
1629894308250,2043
1629894308254,2043
1629894308258,2043
1629894308262,2044
1629894308266,2045
1629894308270,2047
1629894308274,2048
1629894308278,2048
1629894308282,2049
1629894308286,2048
1629894308290,2049
1629894308294,2049
1629894308298,2051
1629894308302,2052
1629894308306,2053
1629894308310,2053
1629894308314,2054
1629894308318,2055
1629894308322,2056
1629894308326,2056
1629894308330,2057
1629894308334,2058
1629894308338,2059
1629894308342,2061
1629894308346,2062
1629894308350,2064
1629894308354,2065
1629894308358,2067
1629894308362,2067
1629894308366,2068
1629894308370,2070
1629894308374,2071
1629894308378,2074
1629894308382,2076
1629894308386,2078
1629894308390,2080
1629894308394,2082
1629894308398,2084
1629894308402,2086
1629894308406,2087
1629894308410,2089
1629894308414,2091
1629894308418,2094
1629894308422,2096
1629894308426,2099
1629894308430,2100
1629894308434,2101
1629894308438,2101
1629894308442,2102
1629894308446,2102
1629894308450,2103
1629894308454,2102
1629894308458,2101
1629894308462,2099
1629894308466,2097
1629894308470,2094
1629894308474,2091
1629894308478,2088
1629894308482,2085
1629894308486,2081
1629894308490,2076
1629894308494,2071
1629894308498,2066
1629894308502,2062
1629894308506,2059
1629894308510,2056
1629894308514,2053
1629894308518,2049
1629894308522,2046
1629894308526,2043
1629894308530,2041
1629894308534,2040
1629894308538,2039
1629894308542,2039
1629894308546,2038
1629894308550,2038
1629894308554,2037
1629894308558,2037
1629894308562,2036
1629894308566,2037
1629894308570,2038
1629894308574,2039
1629894308578,2040
1629894308582,2041
1629894308586,2041
1629894308590,2042
1629894308594,2042
1629894308598,2041
1629894308602,2041
1629894308606,2040
1629894308610,2039
1629894308614,2040
1629894308618,2041
1629894308622,2042
1629894308626,2043
1629894308630,2042
1629894308634,2042
1629894308638,2042
1629894308642,2042
1629894308646,2042
1629894308650,2042
1629894308654,2042
1629894308658,2042
1629894308662,2042
1629894308666,2041
1629894308670,2040
1629894308674,2039
1629894308678,2038
1629894308682,2037
1629894308686,2036
1629894308690,2037
1629894308694,2037
1629894308698,2036
1629894308702,2036
1629894308706,2035
1629894308710,2034
1629894308714,2035
1629894308718,2035
1629894308722,2036
1629894308726,2036
1629894308730,2037
1629894308734,2037
1629894308738,2036
1629894308742,2036
1629894308746,2036
1629894308750,2036
1629894308754,2035
1629894308758,2035
1629894308762,2035
1629894308766,2035
1629894308770,2035
1629894308774,2034
1629894308778,2034
1629894308782,2035
1629894308786,2036
1629894308790,2036
1629894308794,2037
1629894308798,2037
1629894308802,2037
1629894308806,2036
1629894308810,2036
1629894308814,2036
1629894308818,2037
1629894308822,2038
1629894308826,2038
1629894308830,2039
1629894308834,2038
1629894308838,2037
1629894308842,2037
1629894308846,2036
1629894308850,2036
1629894308854,2036
1629894308858,2037
1629894308862,2037
1629894308866,2038
1629894308870,2039
1629894308874,2039
1629894308878,2040
1629894308882,2040
1629894308886,2040
1629894308890,2040
1629894308894,2040
1629894308898,2039
1629894308902,2039
1629894308906,2039
1629894308910,2039
1629894308914,2039
1629894308918,2039
1629894308922,2040
1629894308926,2041
1629894308930,2041
1629894308934,2041
1629894308938,2041
1629894308942,2041
1629894308946,2041
1629894308950,2041
1629894308954,2041
1629894308958,2041
1629894308962,2041
1629894308966,2042
1629894308970,2042
1629894308974,2043
1629894308978,2043
1629894308982,2044
1629894308986,2045
1629894308990,2045
1629894308994,2045
1629894308998,2045
1629894309002,2045
1629894309006,2045
1629894309010,2044
1629894309014,2043
1629894309018,2042
1629894309022,2043
1629894309026,2046
1629894309030,2049
1629894309034,2053
1629894309038,2054
1629894309042,2054
1629894309046,2052
1629894309050,2049
1629894309054,2048
1629894309058,2046
1629894309062,2046
1629894309066,2046
1629894309070,2045
1629894309074,2045
1629894309078,2044
1629894309082,2044
1629894309086,2044
1629894309090,2045
1629894309094,2045
1629894309098,2045
1629894309102,2047
1629894309106,2048
1629894309110,2048
1629894309114,2047
1629894309118,2039
1629894309122,2029
1629894309126,2022
1629894309130,2027
1629894309134,2054
1629894309138,2113
1629894309142,2190
1629894309146,2259
1629894309150,2286
1629894309154,2255
1629894309158,2171
1629894309162,2068
1629894309166,1990
1629894309170,1959
1629894309174,1974
1629894309178,2011
1629894309182,2047
1629894309186,2062
1629894309190,2060
1629894309194,2053
1629894309198,2048
1629894309202,2045
1629894309206,2045
1629894309210,2046
1629894309214,2046
1629894309218,2047
1629894309222,2048
1629894309226,2048
1629894309230,2049
1629894309234,2051
1629894309238,2051
1629894309242,2052
1629894309246,2051
1629894309250,2052
1629894309254,2053
1629894309258,2054
1629894309262,2056
1629894309266,2057
1629894309270,2057
1629894309274,2057
1629894309278,2057
1629894309282,2058
1629894309286,2059
1629894309290,2061
1629894309294,2063
1629894309298,2065
1629894309302,2066
1629894309306,2066
1629894309310,2066
1629894309314,2067
1629894309318,2068
1629894309322,2069
1629894309326,2071
1629894309330,2072
1629894309334,2074
1629894309338,2075
1629894309342,2077
1629894309346,2078
1629894309350,2081
1629894309354,2083
1629894309358,2085
1629894309362,2087
1629894309366,2090
1629894309370,2092
1629894309374,2094
1629894309378,2097
1629894309382,2099
1629894309386,2101
1629894309390,2102
1629894309394,2104
1629894309398,2105
1629894309402,2106
1629894309406,2106
1629894309410,2106
1629894309414,2106
1629894309418,2105
1629894309422,2104
1629894309426,2103
1629894309430,2101
1629894309434,2098
1629894309438,2094
1629894309442,2090
1629894309446,2085
1629894309450,2080
1629894309454,2076
1629894309458,2072
1629894309462,2069
1629894309466,2065
1629894309470,2062
1629894309474,2058
1629894309478,2055
1629894309482,2051
1629894309486,2048
1629894309490,2047
1629894309494,2045
1629894309498,2044
1629894309502,2044
1629894309506,2043
1629894309510,2042
1629894309514,2041
1629894309518,2040
1629894309522,2040
1629894309526,2041
1629894309530,2042
1629894309534,2042
1629894309538,2042
1629894309542,2043
1629894309546,2043
1629894309550,2044
1629894309554,2045
1629894309558,2045
1629894309562,2046
1629894309566,2046
1629894309570,2046
1629894309574,2046
1629894309578,2047
1629894309582,2047
1629894309586,2047
1629894309590,2048
1629894309594,2048
1629894309598,2048
1629894309602,2048
1629894309606,2048
1629894309610,2048
1629894309614,2047
1629894309618,2047
1629894309622,2046
1629894309626,2046
1629894309630,2045
1629894309634,2044
1629894309638,2043
1629894309642,2043
1629894309646,2042
1629894309650,2041
1629894309654,2041
1629894309658,2041
1629894309662,2041
1629894309666,2041
1629894309670,2042
1629894309674,2042
1629894309678,2041
1629894309682,2041
1629894309686,2040
1629894309690,2039
1629894309694,2039
1629894309698,2039
1629894309702,2039
1629894309706,2040
1629894309710,2040
1629894309714,2041
1629894309718,2040
1629894309722,2040
1629894309726,2039
1629894309730,2039
1629894309734,2039
1629894309738,2040
1629894309742,2040
1629894309746,2041
1629894309750,2041
1629894309754,2041
1629894309758,2041
1629894309762,2041
1629894309766,2041
1629894309770,2041
1629894309774,2040
1629894309778,2041
1629894309782,2041
1629894309786,2041
1629894309790,2041
1629894309794,2041
1629894309798,2041
1629894309802,2041
1629894309806,2041
1629894309810,2041
1629894309814,2041
1629894309818,2042
1629894309822,2042
1629894309826,2042
1629894309830,2042
1629894309834,2043
1629894309838,2042
1629894309842,2043
1629894309846,2042
1629894309850,2042
1629894309854,2042
1629894309858,2042
1629894309862,2043
1629894309866,2043
1629894309870,2044
1629894309874,2044
1629894309878,2044
1629894309882,2043
1629894309886,2043
1629894309890,2043
1629894309894,2043
1629894309898,2044
1629894309902,2045
1629894309906,2045
1629894309910,2046
1629894309914,2046
1629894309918,2045
1629894309922,2044
1629894309926,2044
1629894309930,2044
1629894309934,2044
1629894309938,2044
1629894309942,2045
1629894309946,2045
1629894309950,2045
1629894309954,2046
1629894309958,2047
1629894309962,2047
1629894309966,2047
1629894309970,2047
1629894309974,2047
1629894309978,2047
1629894309982,2046
1629894309986,2045
1629894309990,2045
1629894309994,2045
1629894309998,2045
1629894310002,2047
1629894310006,2048
1629894310010,2052
1629894310014,2055
1629894310018,2056
1629894310022,2056
1629894310026,2053
1629894310030,2051
1629894310034,2049
1629894310038,2048
1629894310042,2047
1629894310046,2046
1629894310050,2045
1629894310054,2045
1629894310058,2045
1629894310062,2046
1629894310066,2046
1629894310070,2046
1629894310074,2046
1629894310078,2046
1629894310082,2047
1629894310086,2048
1629894310090,2048
1629894310094,2044
1629894310098,2035
1629894310102,2027
1629894310106,2024
1629894310110,2033
1629894310114,2065
1629894310118,2128
1629894310122,2208
1629894310126,2277
1629894310130,2303
1629894310134,2268
1629894310138,2181
1629894310142,2078
1629894310146,2002
1629894310150,1974
1629894310154,1990
1629894310158,2025
1629894310162,2054
1629894310166,2063
1629894310170,2057
1629894310174,2048
1629894310178,2045
1629894310182,2043
1629894310186,2043
1629894310190,2045
1629894310194,2045
1629894310198,2046
1629894310202,2046
1629894310206,2046
1629894310210,2047
1629894310214,2047
1629894310218,2048
1629894310222,2048
1629894310226,2049
1629894310230,2050
1629894310234,2051
1629894310238,2052
1629894310242,2053
1629894310246,2053
1629894310250,2054
1629894310254,2054
1629894310258,2055
1629894310262,2056
1629894310266,2057
1629894310270,2058
1629894310274,2059
1629894310278,2060
1629894310282,2061
1629894310286,2062
1629894310290,2063
1629894310294,2064
1629894310298,2065
1629894310302,2067
1629894310306,2069
1629894310310,2071
1629894310314,2072
1629894310318,2074
1629894310322,2075
1629894310326,2075
1629894310330,2077
1629894310334,2080
1629894310338,2083
1629894310342,2086
1629894310346,2088
1629894310350,2090
1629894310354,2092
1629894310358,2094
1629894310362,2095
1629894310366,2097
1629894310370,2099
1629894310374,2100
1629894310378,2102
1629894310382,2103
1629894310386,2104
1629894310390,2105
1629894310394,2105
1629894310398,2104
1629894310402,2103
1629894310406,2101
1629894310410,2098
1629894310414,2096
1629894310418,2092
1629894310422,2089
1629894310426,2085
1629894310430,2081
1629894310434,2077
1629894310438,2072
1629894310442,2068
1629894310446,2063
1629894310450,2060
1629894310454,2056
1629894310458,2053
1629894310462,2050
1629894310466,2048
1629894310470,2047
1629894310474,2045
1629894310478,2043
1629894310482,2042
1629894310486,2040
1629894310490,2039
1629894310494,2039
1629894310498,2039
1629894310502,2039
1629894310506,2039
1629894310510,2040
1629894310514,2040
1629894310518,2041
1629894310522,2041
1629894310526,2041
1629894310530,2042
1629894310534,2042
1629894310538,2042
1629894310542,2043
1629894310546,2044
1629894310550,2045
1629894310554,2046
1629894310558,2046
1629894310562,2047
1629894310566,2047
1629894310570,2047
1629894310574,2047
1629894310578,2047
1629894310582,2047
1629894310586,2047
1629894310590,2047
1629894310594,2046
1629894310598,2046
1629894310602,2045
1629894310606,2045
1629894310610,2044
1629894310614,2044
1629894310618,2044
1629894310622,2044
1629894310626,2043
1629894310630,2043
1629894310634,2043
1629894310638,2042
1629894310642,2042
1629894310646,2041
1629894310650,2041
1629894310654,2040
1629894310658,2040
1629894310662,2040
1629894310666,2040
1629894310670,2040
1629894310674,2040
1629894310678,2040
1629894310682,2040
1629894310686,2039
1629894310690,2039
1629894310694,2039
1629894310698,2040
1629894310702,2040
1629894310706,2040
1629894310710,2040
1629894310714,2040
1629894310718,2041
1629894310722,2041
1629894310726,2041
1629894310730,2041
1629894310734,2041
1629894310738,2040
1629894310742,2041
1629894310746,2041
1629894310750,2042
1629894310754,2042
1629894310758,2043
1629894310762,2043
1629894310766,2042
1629894310770,2042
1629894310774,2041
1629894310778,2041
1629894310782,2041
1629894310786,2042
1629894310790,2042
1629894310794,2043
1629894310798,2043
1629894310802,2043
1629894310806,2043
1629894310810,2043
1629894310814,2043
1629894310818,2043
1629894310822,2044
1629894310826,2044
1629894310830,2044
1629894310834,2044
1629894310838,2044
1629894310842,2044
1629894310846,2044
1629894310850,2044
1629894310854,2044
1629894310858,2045
1629894310862,2046
1629894310866,2046
1629894310870,2046
1629894310874,2046
1629894310878,2045
1629894310882,2045
1629894310886,2045
1629894310890,2045
1629894310894,2046
1629894310898,2046
1629894310902,2046
1629894310906,2046
1629894310910,2046
1629894310914,2046
1629894310918,2046
1629894310922,2046
1629894310926,2046
1629894310930,2046
1629894310934,2046
1629894310938,2046
1629894310942,2047
1629894310946,2047
1629894310950,2048
1629894310954,2048
1629894310958,2048
1629894310962,2047
1629894310966,2047
1629894310970,2047
1629894310974,2047
1629894310978,2048
1629894310982,2048
1629894310986,2049
1629894310990,2049
1629894310994,2049
1629894310998,2049
1629894311002,2048
1629894311006,2048
1629894311010,2048
1629894311014,2048
1629894311018,2048
1629894311022,2048
1629894311026,2049
1629894311030,2049
1629894311034,2052
1629894311038,2055
1629894311042,2058
1629894311046,2060
1629894311050,2059
1629894311054,2056
1629894311058,2053
1629894311062,2051
1629894311066,2050
1629894311070,2050
1629894311074,2050
1629894311078,2049
1629894311082,2048
1629894311086,2048
1629894311090,2049
1629894311094,2049
1629894311098,2049
1629894311102,2050
1629894311106,2050
1629894311110,2050
1629894311114,2051
1629894311118,2051
1629894311122,2049
1629894311126,2042
1629894311130,2033
1629894311134,2027
1629894311138,2030
1629894311142,2053
1629894311146,2108
1629894311150,2187
1629894311154,2267
1629894311158,2314
1629894311162,2303
1629894311166,2232
1629894311170,2129
1629894311174,2039
1629894311178,1991
1629894311182,1991
1629894311186,2021
1629894311190,2051
1629894311194,2066
1629894311198,2062
1629894311202,2053
1629894311206,2047
1629894311210,2046
1629894311214,2045
1629894311218,2046
1629894311222,2047
1629894311226,2047
1629894311230,2048
1629894311234,2048
1629894311238,2048
1629894311242,2049
1629894311246,2049
1629894311250,2049
1629894311254,2050
1629894311258,2051
1629894311262,2052
1629894311266,2052
1629894311270,2053
1629894311274,2054
1629894311278,2055
1629894311282,2056
1629894311286,2056
1629894311290,2057
1629894311294,2058
1629894311298,2059
1629894311302,2061
1629894311306,2062
1629894311310,2063
1629894311314,2064
1629894311318,2065
1629894311322,2065
1629894311326,2066
1629894311330,2067
1629894311334,2069
1629894311338,2071
1629894311342,2072
1629894311346,2074
1629894311350,2077
1629894311354,2078
1629894311358,2080
1629894311362,2081
1629894311366,2082
1629894311370,2084
1629894311374,2086
1629894311378,2089
1629894311382,2092
1629894311386,2094
1629894311390,2097
1629894311394,2099
1629894311398,2100
1629894311402,2102
1629894311406,2103
1629894311410,2104
1629894311414,2104
1629894311418,2105
1629894311422,2105
1629894311426,2106
1629894311430,2105
1629894311434,2105
1629894311438,2103
1629894311442,2100
1629894311446,2096
1629894311450,2092
1629894311454,2089
1629894311458,2085
1629894311462,2081
1629894311466,2077
1629894311470,2074
1629894311474,2070
1629894311478,2066
1629894311482,2062
1629894311486,2057
1629894311490,2053
1629894311494,2050
1629894311498,2048
1629894311502,2047
1629894311506,2046
1629894311510,2046
1629894311514,2045
1629894311518,2043
1629894311522,2042
1629894311526,2041
1629894311530,2040
1629894311534,2041
1629894311538,2041
1629894311542,2042
1629894311546,2043
1629894311550,2043
1629894311554,2043
1629894311558,2043
1629894311562,2043
1629894311566,2043
1629894311570,2044
1629894311574,2045
1629894311578,2045
1629894311582,2046
1629894311586,2045
1629894311590,2046
1629894311594,2046
1629894311598,2046
1629894311602,2046
1629894311606,2046
1629894311610,2046
1629894311614,2046
1629894311618,2046
1629894311622,2046
1629894311626,2046
1629894311630,2046
1629894311634,2045
1629894311638,2045
1629894311642,2044
1629894311646,2043
1629894311650,2043
1629894311654,2043
1629894311658,2043
1629894311662,2043
1629894311666,2043
1629894311670,2042
1629894311674,2042
1629894311678,2041
1629894311682,2040
1629894311686,2039
1629894311690,2039
1629894311694,2038
1629894311698,2038
1629894311702,2039
1629894311706,2039
1629894311710,2039
1629894311714,2039
1629894311718,2039
1629894311722,2039
1629894311726,2039
1629894311730,2039
1629894311734,2039
1629894311738,2039
1629894311742,2040
1629894311746,2040
1629894311750,2040
1629894311754,2040
1629894311758,2040
1629894311762,2040
1629894311766,2039
1629894311770,2039
1629894311774,2039
1629894311778,2039
1629894311782,2040
1629894311786,2040
1629894311790,2041
1629894311794,2041
1629894311798,2041
1629894311802,2042
1629894311806,2041
1629894311810,2041
1629894311814,2041
1629894311818,2041
1629894311822,2041
1629894311826,2041
1629894311830,2042
1629894311834,2042
1629894311838,2042
1629894311842,2042
1629894311846,2041
1629894311850,2041
1629894311854,2041
1629894311858,2042
1629894311862,2043
1629894311866,2043
1629894311870,2044
1629894311874,2044
1629894311878,2043
1629894311882,2043
1629894311886,2042
1629894311890,2042
1629894311894,2042
1629894311898,2043
1629894311902,2044
1629894311906,2044
1629894311910,2045
1629894311914,2045
1629894311918,2044
1629894311922,2044
1629894311926,2044
1629894311930,2044
1629894311934,2044
1629894311938,2044
1629894311942,2044
1629894311946,2045
1629894311950,2045
1629894311954,2045
1629894311958,2044
1629894311962,2045
1629894311966,2045
1629894311970,2045
1629894311974,2045
1629894311978,2045
1629894311982,2045
1629894311986,2045
1629894311990,2045
1629894311994,2045
1629894311998,2045
1629894312002,2046
1629894312006,2046
1629894312010,2046
1629894312014,2046
1629894312018,2045
1629894312022,2045
1629894312026,2046
1629894312030,2046
1629894312034,2047
1629894312038,2047
1629894312042,2047
1629894312046,2047
1629894312050,2046
1629894312054,2046
1629894312058,2047
1629894312062,2047
1629894312066,2047
1629894312070,2047
1629894312074,2047
1629894312078,2048
1629894312082,2049
1629894312086,2053
1629894312090,2055
1629894312094,2056
1629894312098,2055
1629894312102,2053
1629894312106,2050
1629894312110,2048
1629894312114,2048
1629894312118,2046
1629894312122,2045
1629894312126,2044
1629894312130,2044
1629894312134,2044
1629894312138,2044
1629894312142,2044
1629894312146,2045
1629894312150,2045
1629894312154,2046
1629894312158,2047
1629894312162,2048
1629894312166,2048
1629894312170,2043
1629894312174,2034
1629894312178,2025
1629894312182,2021
1629894312186,2030
1629894312190,2063
1629894312194,2126
1629894312198,2206
1629894312202,2275
1629894312206,2299
1629894312210,2263
1629894312214,2176
1629894312218,2074
1629894312222,2001
1629894312226,1973
1629894312230,1989
1629894312234,2024
1629894312238,2051
1629894312242,2061
1629894312246,2054
1629894312250,2048
1629894312254,2043
1629894312258,2042
1629894312262,2042
1629894312266,2043
1629894312270,2044
1629894312274,2044
1629894312278,2044
1629894312282,2044
1629894312286,2044
1629894312290,2045
1629894312294,2046
1629894312298,2047
1629894312302,2048
1629894312306,2048
1629894312310,2048
1629894312314,2049
1629894312318,2050
1629894312322,2050
1629894312326,2051
1629894312330,2052
1629894312334,2052
1629894312338,2054
1629894312342,2055
1629894312346,2057
1629894312350,2059
1629894312354,2060
1629894312358,2062
1629894312362,2062
1629894312366,2062
1629894312370,2062
1629894312374,2063
1629894312378,2065
1629894312382,2067
1629894312386,2069
1629894312390,2071
1629894312394,2072
1629894312398,2074
1629894312402,2076
1629894312406,2077
1629894312410,2079
1629894312414,2081
1629894312418,2083
1629894312422,2086
1629894312426,2088
1629894312430,2091
1629894312434,2093
1629894312438,2095
1629894312442,2097
1629894312446,2098
1629894312450,2100
1629894312454,2102
1629894312458,2103
1629894312462,2104
1629894312466,2104
1629894312470,2104
1629894312474,2103
1629894312478,2102
1629894312482,2101
1629894312486,2099
1629894312490,2096
1629894312494,2092
1629894312498,2088
1629894312502,2085
1629894312506,2081
1629894312510,2078
1629894312514,2074
1629894312518,2069
1629894312522,2064
1629894312526,2060
1629894312530,2056
1629894312534,2052
1629894312538,2049
1629894312542,2048
1629894312546,2046
1629894312550,2045
1629894312554,2044
1629894312558,2042
1629894312562,2040
1629894312566,2038
1629894312570,2037
1629894312574,2037
1629894312578,2037
1629894312582,2038
1629894312586,2038
1629894312590,2038
1629894312594,2039
1629894312598,2039
1629894312602,2039
1629894312606,2039
1629894312610,2039
1629894312614,2040
1629894312618,2041
1629894312622,2043
1629894312626,2044
1629894312630,2045
1629894312634,2045
1629894312638,2044
1629894312642,2043
1629894312646,2043
1629894312650,2042
1629894312654,2042
1629894312658,2042
1629894312662,2042
1629894312666,2043
1629894312670,2043
1629894312674,2042
1629894312678,2042
1629894312682,2041
1629894312686,2040
1629894312690,2039
1629894312694,2039
1629894312698,2039
1629894312702,2039
1629894312706,2039
1629894312710,2040
1629894312714,2039
1629894312718,2038
1629894312722,2037
1629894312726,2036
1629894312730,2035
1629894312734,2035
1629894312738,2035
1629894312742,2035
1629894312746,2035
1629894312750,2035
1629894312754,2035
1629894312758,2036
1629894312762,2036
1629894312766,2036
1629894312770,2036
1629894312774,2037
1629894312778,2037
1629894312782,2038
1629894312786,2038
1629894312790,2037
1629894312794,2037
1629894312798,2036
1629894312802,2036
1629894312806,2035
1629894312810,2035
1629894312814,2036
1629894312818,2036
1629894312822,2036
1629894312826,2037
1629894312830,2037
1629894312834,2037
1629894312838,2037
1629894312842,2037
1629894312846,2038
1629894312850,2039
1629894312854,2040
1629894312858,2040
1629894312862,2040
1629894312866,2040
1629894312870,2039
1629894312874,2039
1629894312878,2039
1629894312882,2039
1629894312886,2039
1629894312890,2038
1629894312894,2038
1629894312898,2038
1629894312902,2038
1629894312906,2039
1629894312910,2039
1629894312914,2040
1629894312918,2041
1629894312922,2041
1629894312926,2040
1629894312930,2040
1629894312934,2040
1629894312938,2040
1629894312942,2041
1629894312946,2042
1629894312950,2042
1629894312954,2042
1629894312958,2042
1629894312962,2042
1629894312966,2041
1629894312970,2041
1629894312974,2041
1629894312978,2040
1629894312982,2041
1629894312986,2041
1629894312990,2041
1629894312994,2041
1629894312998,2041
1629894313002,2042
1629894313006,2042
1629894313010,2042
1629894313014,2042
1629894313018,2042
1629894313022,2042
1629894313026,2043
1629894313030,2044
1629894313034,2045
1629894313038,2045
1629894313042,2045
1629894313046,2044
1629894313050,2043
1629894313054,2042
1629894313058,2042
1629894313062,2043
1629894313066,2044
1629894313070,2044
1629894313074,2043
1629894313078,2042
1629894313082,2043
1629894313086,2045
1629894313090,2048
1629894313094,2051
1629894313098,2054
1629894313102,2054
1629894313106,2052
1629894313110,2048
1629894313114,2045
1629894313118,2043
1629894313122,2041
1629894313126,2041
1629894313130,2042
1629894313134,2043
1629894313138,2043
1629894313142,2044
1629894313146,2043
1629894313150,2044
1629894313154,2043
1629894313158,2044
1629894313162,2044
1629894313166,2045
1629894313170,2045
1629894313174,2042
1629894313178,2036
1629894313182,2027
1629894313186,2022
1629894313190,2027
1629894313194,2052
1629894313198,2108
1629894313202,2183
1629894313206,2250
1629894313210,2278
1629894313214,2247
1629894313218,2165
1629894313222,2063
1629894313226,1984
1629894313230,1952
1629894313234,1966
1629894313238,2003
1629894313242,2040
1629894313246,2056
1629894313250,2054
1629894313254,2048
1629894313258,2043
1629894313262,2040
1629894313266,2040
1629894313270,2042
1629894313274,2043
1629894313278,2044
1629894313282,2044
1629894313286,2044
1629894313290,2045
1629894313294,2046
1629894313298,2048
1629894313302,2048
1629894313306,2049
1629894313310,2050
1629894313314,2051
1629894313318,2052
1629894313322,2053
1629894313326,2053
1629894313330,2053
1629894313334,2053
1629894313338,2054
1629894313342,2055
1629894313346,2057
1629894313350,2058
1629894313354,2059
1629894313358,2060
1629894313362,2060
1629894313366,2060
1629894313370,2061
1629894313374,2063
1629894313378,2065
1629894313382,2066
1629894313386,2068
1629894313390,2070
1629894313394,2072
1629894313398,2073
1629894313402,2076
1629894313406,2077
1629894313410,2079
1629894313414,2080
1629894313418,2082
1629894313422,2084
1629894313426,2086
1629894313430,2089
1629894313434,2092
1629894313438,2095
1629894313442,2097
1629894313446,2098
1629894313450,2099
1629894313454,2100
1629894313458,2101
1629894313462,2103
1629894313466,2104
1629894313470,2106
1629894313474,2106
1629894313478,2106
1629894313482,2104
1629894313486,2103
1629894313490,2100
1629894313494,2097
1629894313498,2093
1629894313502,2090
1629894313506,2087
1629894313510,2084
1629894313514,2080
1629894313518,2075
1629894313522,2069
1629894313526,2064
1629894313530,2060
1629894313534,2057
1629894313538,2054
1629894313542,2052
1629894313546,2049
1629894313550,2048
1629894313554,2045
1629894313558,2043
1629894313562,2041
1629894313566,2040
1629894313570,2040
1629894313574,2040
1629894313578,2040
1629894313582,2040
1629894313586,2041
1629894313590,2041
1629894313594,2041
1629894313598,2041
1629894313602,2041
1629894313606,2041
1629894313610,2042
1629894313614,2043
1629894313618,2044
1629894313622,2044
1629894313626,2045
1629894313630,2045
1629894313634,2046
1629894313638,2046
1629894313642,2047
1629894313646,2047
1629894313650,2047
1629894313654,2046
1629894313658,2046
1629894313662,2046
1629894313666,2046
1629894313670,2046
1629894313674,2046
1629894313678,2045
1629894313682,2045
1629894313686,2044
1629894313690,2043
1629894313694,2043
1629894313698,2042
1629894313702,2042
1629894313706,2042
1629894313710,2042
1629894313714,2042
1629894313718,2041
1629894313722,2041
1629894313726,2040
1629894313730,2040
1629894313734,2040
1629894313738,2039
1629894313742,2040
1629894313746,2040
1629894313750,2040
1629894313754,2040
1629894313758,2040
1629894313762,2039
1629894313766,2039
1629894313770,2039
1629894313774,2040
1629894313778,2040
1629894313782,2040
1629894313786,2040
1629894313790,2040
1629894313794,2040
1629894313798,2040
1629894313802,2040
1629894313806,2040
1629894313810,2040
1629894313814,2040
1629894313818,2041
1629894313822,2041
1629894313826,2041
1629894313830,2041
1629894313834,2041
1629894313838,2041
1629894313842,2041
1629894313846,2041
1629894313850,2041
1629894313854,2041
1629894313858,2041
1629894313862,2042
1629894313866,2042
1629894313870,2043
1629894313874,2043
1629894313878,2043
1629894313882,2042
1629894313886,2042
1629894313890,2042
1629894313894,2043
1629894313898,2044
1629894313902,2044
1629894313906,2044
1629894313910,2044
1629894313914,2044
1629894313918,2044
1629894313922,2044
1629894313926,2044
1629894313930,2045
1629894313934,2045
1629894313938,2045
1629894313942,2045
1629894313946,2046
1629894313950,2046
1629894313954,2045
1629894313958,2045
1629894313962,2045
1629894313966,2045
1629894313970,2045
1629894313974,2046
1629894313978,2047
1629894313982,2047
1629894313986,2047
1629894313990,2047
1629894313994,2047
1629894313998,2047
1629894314002,2047
1629894314006,2047
1629894314010,2047
1629894314014,2047
1629894314018,2048
1629894314022,2048
1629894314026,2048
1629894314030,2049
1629894314034,2050
1629894314038,2049
1629894314042,2049
1629894314046,2048
1629894314050,2048
1629894314054,2047
1629894314058,2047
1629894314062,2048
1629894314066,2050
1629894314070,2053
1629894314074,2056
1629894314078,2058
1629894314082,2058
1629894314086,2056
1629894314090,2054
1629894314094,2052
1629894314098,2050
1629894314102,2050
1629894314106,2049
1629894314110,2048
1629894314114,2048
1629894314118,2048
1629894314122,2047
1629894314126,2046
1629894314130,2046
1629894314134,2047
1629894314138,2047
1629894314142,2048
1629894314146,2048
1629894314150,2050
1629894314154,2049
1629894314158,2046
1629894314162,2037
1629894314166,2028
1629894314170,2025
1629894314174,2037
1629894314178,2073
1629894314182,2141
1629894314186,2222
1629894314190,2285
1629894314194,2301
1629894314198,2256
1629894314202,2162
1629894314206,2060
1629894314210,1990
1629894314214,1970
1629894314218,1991
1629894314222,2029
1629894314226,2057
1629894314230,2066
1629894314234,2059
1629894314238,2050
1629894314242,2047
1629894314246,2044
1629894314250,2044
1629894314254,2045
1629894314258,2046
1629894314262,2047
1629894314266,2048
1629894314270,2048
1629894314274,2049
1629894314278,2050
1629894314282,2050
1629894314286,2050
1629894314290,2051
1629894314294,2051
1629894314298,2051
1629894314302,2052
1629894314306,2052
1629894314310,2054
1629894314314,2055
1629894314318,2056
1629894314322,2057
1629894314326,2057
1629894314330,2058
1629894314334,2059
1629894314338,2060
1629894314342,2062
1629894314346,2063
1629894314350,2064
1629894314354,2065
1629894314358,2066
1629894314362,2067
1629894314366,2068
1629894314370,2070
1629894314374,2071
1629894314378,2073
1629894314382,2075
1629894314386,2076
1629894314390,2077
1629894314394,2079
1629894314398,2080
1629894314402,2082
1629894314406,2085
1629894314410,2087
1629894314414,2090
1629894314418,2092
1629894314422,2095
1629894314426,2097
1629894314430,2099
1629894314434,2101
1629894314438,2102
1629894314442,2103
1629894314446,2104
1629894314450,2104
1629894314454,2104
1629894314458,2104
1629894314462,2104
1629894314466,2104
1629894314470,2102
1629894314474,2100
1629894314478,2097
1629894314482,2093
1629894314486,2089
1629894314490,2084
1629894314494,2079
1629894314498,2074
1629894314502,2070
1629894314506,2067
1629894314510,2064
1629894314514,2060
1629894314518,2056
1629894314522,2052
1629894314526,2049
1629894314530,2047
1629894314534,2044
1629894314538,2043
1629894314542,2042
1629894314546,2040
1629894314550,2040
1629894314554,2039
1629894314558,2038
1629894314562,2038
1629894314566,2038
1629894314570,2038
1629894314574,2038
1629894314578,2038
1629894314582,2038
1629894314586,2039
1629894314590,2040
1629894314594,2040
1629894314598,2040
1629894314602,2041
1629894314606,2041
1629894314610,2041
1629894314614,2041
1629894314618,2042
1629894314622,2043
1629894314626,2044
1629894314630,2044
1629894314634,2044
1629894314638,2044
1629894314642,2044
1629894314646,2044
1629894314650,2044
1629894314654,2045
1629894314658,2044
1629894314662,2044
1629894314666,2044
1629894314670,2043
1629894314674,2043
1629894314678,2042
1629894314682,2041
1629894314686,2040
1629894314690,2040
1629894314694,2040
1629894314698,2039
1629894314702,2039
1629894314706,2039
1629894314710,2038
1629894314714,2038
1629894314718,2038
1629894314722,2038
1629894314726,2037
1629894314730,2037
1629894314734,2037
1629894314738,2036
1629894314742,2037
1629894314746,2037
1629894314750,2038
1629894314754,2039
1629894314758,2039
1629894314762,2038
1629894314766,2038
1629894314770,2037
1629894314774,2037
1629894314778,2038
1629894314782,2038
1629894314786,2038
1629894314790,2039
1629894314794,2039
1629894314798,2038
1629894314802,2038
1629894314806,2037
1629894314810,2037
1629894314814,2038
1629894314818,2038
1629894314822,2039
1629894314826,2040
1629894314830,2040
1629894314834,2040
1629894314838,2039
1629894314842,2039
1629894314846,2039
1629894314850,2039
1629894314854,2039
1629894314858,2039
1629894314862,2039
1629894314866,2039
1629894314870,2040
1629894314874,2041
1629894314878,2041
1629894314882,2041
1629894314886,2040
1629894314890,2039
1629894314894,2039
1629894314898,2039
1629894314902,2039
1629894314906,2040
1629894314910,2041
1629894314914,2042
1629894314918,2042
1629894314922,2042
1629894314926,2042
1629894314930,2042
1629894314934,2042
1629894314938,2042
1629894314942,2042
1629894314946,2042
1629894314950,2042
1629894314954,2043
1629894314958,2043
1629894314962,2043
1629894314966,2043
1629894314970,2043
1629894314974,2043
1629894314978,2043
1629894314982,2043
1629894314986,2044
1629894314990,2044
1629894314994,2045
1629894314998,2045
1629894315002,2044
1629894315006,2044
1629894315010,2044
1629894315014,2044
1629894315018,2044
1629894315022,2045
1629894315026,2045
1629894315030,2046
1629894315034,2046
