timestamp,ecg_waveform
1630934635188,2093
1630934635192,2087
1630934635196,2082
1630934635200,2076
1630934635204,2070
1630934635208,2065
1630934635212,2060
1630934635216,2056
1630934635220,2052
1630934635224,2049
1630934635228,2047
1630934635232,2044
1630934635236,2041
1630934635240,2039
1630934635244,2039
1630934635248,2038
1630934635252,2038
1630934635256,2039
1630934635260,2040
1630934635264,2040
1630934635268,2040
1630934635272,2040
1630934635276,2040
1630934635280,2041
1630934635284,2041
1630934635288,2042
1630934635292,2043
1630934635296,2044
1630934635300,2045
1630934635304,2046
1630934635308,2047
1630934635312,2047
1630934635316,2047
1630934635320,2048
1630934635324,2047
1630934635328,2047
1630934635332,2046
1630934635336,2046
1630934635340,2046
1630934635344,2046
1630934635348,2046
1630934635352,2046
1630934635356,2045
1630934635360,2044
1630934635364,2043
1630934635368,2042
1630934635372,2042
1630934635376,2043
1630934635380,2045
1630934635384,2046
1630934635388,2046
1630934635392,2047
1630934635396,2047
1630934635400,2048
1630934635404,2049
1630934635408,2050
1630934635412,2050
1630934635416,2048
1630934635420,2047
1630934635424,2045
1630934635428,2042
1630934635432,2041
1630934635436,2040
1630934635440,2040
1630934635444,2040
1630934635448,2041
1630934635452,2041
1630934635456,2041
1630934635460,2042
1630934635464,2045
1630934635468,2047
1630934635472,2047
1630934635476,2042
1630934635480,2031
1630934635484,2020
1630934635488,2017
1630934635492,2034
1630934635496,2088
1630934635500,2177
1630934635504,2269
1630934635508,2324
1630934635512,2309
1630934635516,2226
1630934635520,2107
1630934635524,2002
1630934635528,1945
1630934635532,1941
1630934635536,1968
1630934635540,2001
1630934635544,2025
1630934635548,2031
1630934635552,2034
1630934635556,2039
1630934635560,2041
1630934635564,2040
1630934635568,2040
1630934635572,2041
1630934635576,2042
1630934635580,2044
1630934635584,2045
1630934635588,2046
1630934635592,2047
1630934635596,2047
1630934635600,2048
1630934635604,2048
1630934635608,2049
1630934635612,2051
1630934635616,2052
1630934635620,2053
1630934635624,2054
1630934635628,2055
1630934635632,2056
1630934635636,2058
1630934635640,2060
1630934635644,2063
1630934635648,2066
1630934635652,2069
1630934635656,2072
1630934635660,2075
1630934635664,2078
1630934635668,2082
1630934635672,2085
1630934635676,2089
1630934635680,2092
1630934635684,2095
1630934635688,2098
1630934635692,2101
1630934635696,2104
1630934635700,2105
1630934635704,2106
1630934635708,2106
1630934635712,2105
1630934635716,2103
1630934635720,2101
1630934635724,2099
1630934635728,2097
1630934635732,2093
1630934635736,2090
1630934635740,2085
1630934635744,2080
1630934635748,2074
1630934635752,2068
1630934635756,2061
1630934635760,2055
1630934635764,2050
1630934635768,2046
1630934635772,2042
1630934635776,2039
1630934635780,2038
1630934635784,2036
1630934635788,2035
1630934635792,2033
1630934635796,2030
1630934635800,2028
1630934635804,2028
1630934635808,2029
1630934635812,2030
1630934635816,2032
1630934635820,2032
1630934635824,2032
1630934635828,2032
1630934635832,2032
1630934635836,2033
1630934635840,2034
1630934635844,2035
1630934635848,2037
1630934635852,2038
1630934635856,2039
1630934635860,2040
1630934635864,2040
1630934635868,2040
1630934635872,2041
1630934635876,2040
1630934635880,2039
1630934635884,2039
1630934635888,2039
1630934635892,2039
1630934635896,2039
1630934635900,2039
1630934635904,2040
1630934635908,2040
1630934635912,2040
1630934635916,2039
1630934635920,2038
1630934635924,2037
1630934635928,2037
1630934635932,2037
1630934635936,2037
1630934635940,2038
1630934635944,2039
1630934635948,2040
1630934635952,2041
1630934635956,2043
1630934635960,2044
1630934635964,2045
1630934635968,2045
1630934635972,2044
1630934635976,2042
1630934635980,2040
1630934635984,2038
1630934635988,2037
1630934635992,2036
1630934635996,2035
1630934636000,2035
1630934636004,2035
1630934636008,2036
1630934636012,2036
1630934636016,2037
1630934636020,2039
1630934636024,2041
1630934636028,2041
1630934636032,2038
1630934636036,2031
1630934636040,2020
1630934636044,2014
1630934636048,2022
1630934636052,2059
1630934636056,2136
1630934636060,2226
1630934636064,2293
1630934636068,2302
1630934636072,2242
1630934636076,2134
1630934636080,2025
1630934636084,1954
1630934636088,1937
1630934636092,1958
1630934636096,1991
1630934636100,2018
1630934636104,2029
1630934636108,2030
1630934636112,2035
1630934636116,2037
1630934636120,2038
1630934636124,2037
1630934636128,2038
1630934636132,2038
1630934636136,2040
1630934636140,2041
1630934636144,2042
1630934636148,2043
1630934636152,2044
1630934636156,2044
1630934636160,2044
1630934636164,2045
1630934636168,2046
1630934636172,2048
1630934636176,2049
1630934636180,2051
1630934636184,2053
1630934636188,2054
1630934636192,2055
1630934636196,2056
1630934636200,2057
1630934636204,2060
1630934636208,2062
1630934636212,2066
1630934636216,2069
1630934636220,2073
1630934636224,2078
1630934636228,2081
1630934636232,2085
1630934636236,2087
1630934636240,2089
1630934636244,2092
1630934636248,2095
1630934636252,2098
1630934636256,2101
1630934636260,2103
1630934636264,2104
1630934636268,2103
1630934636272,2101
1630934636276,2099
1630934636280,2098
1630934636284,2096
1630934636288,2093
1630934636292,2089
1630934636296,2085
1630934636300,2080
1630934636304,2073
1630934636308,2067
1630934636312,2061
1630934636316,2055
1630934636320,2051
1630934636324,2047
1630934636328,2043
1630934636332,2040
1630934636336,2037
1630934636340,2035
1630934636344,2034
1630934636348,2033
1630934636352,2033
1630934636356,2032
1630934636360,2032
1630934636364,2031
1630934636368,2030
1630934636372,2030
1630934636376,2031
1630934636380,2032
1630934636384,2032
1630934636388,2033
1630934636392,2034
1630934636396,2034
1630934636400,2035
1630934636404,2035
1630934636408,2036
1630934636412,2036
1630934636416,2037
1630934636420,2037
1630934636424,2038
1630934636428,2038
1630934636432,2039
1630934636436,2038
1630934636440,2038
1630934636444,2038
1630934636448,2038
1630934636452,2038
1630934636456,2038
1630934636460,2038
1630934636464,2038
1630934636468,2037
1630934636472,2037
1630934636476,2036
1630934636480,2036
1630934636484,2037
1630934636488,2036
1630934636492,2035
1630934636496,2035
1630934636500,2035
1630934636504,2036
1630934636508,2038
1630934636512,2040
1630934636516,2042
1630934636520,2043
1630934636524,2042
1630934636528,2041
1630934636532,2039
1630934636536,2037
1630934636540,2036
1630934636544,2035
1630934636548,2035
1630934636552,2036
1630934636556,2036
1630934636560,2036
1630934636564,2036
1630934636568,2036
1630934636572,2038
1630934636576,2040
1630934636580,2041
1630934636584,2039
1630934636588,2031
1630934636592,2021
1630934636596,2013
1630934636600,2020
1630934636604,2052
1630934636608,2124
1630934636612,2214
1630934636616,2285
1630934636620,2303
1630934636624,2252
1630934636628,2150
1630934636632,2039
1630934636636,1961
1630934636640,1936
1630934636644,1953
1630934636648,1986
1630934636652,2016
1630934636656,2031
1630934636660,2033
1630934636664,2036
1630934636668,2038
1630934636672,2038
1630934636676,2037
1630934636680,2037
1630934636684,2038
1630934636688,2039
1630934636692,2040
1630934636696,2041
1630934636700,2042
1630934636704,2043
1630934636708,2043
1630934636712,2044
1630934636716,2044
1630934636720,2045
1630934636724,2046
1630934636728,2048
1630934636732,2050
1630934636736,2051
1630934636740,2052
1630934636744,2053
1630934636748,2054
1630934636752,2057
1630934636756,2059
1630934636760,2062
1630934636764,2065
1630934636768,2068
1630934636772,2071
1630934636776,2074
1630934636780,2077
1630934636784,2081
1630934636788,2085
1630934636792,2088
1630934636796,2091
1630934636800,2093
1630934636804,2095
1630934636808,2096
1630934636812,2097
1630934636816,2097
1630934636820,2097
1630934636824,2096
1630934636828,2095
1630934636832,2094
1630934636836,2091
1630934636840,2088
1630934636844,2085
1630934636848,2080
1630934636852,2075
1630934636856,2070
1630934636860,2064
1630934636864,2059
1630934636868,2053
1630934636872,2049
1630934636876,2045
1630934636880,2042
1630934636884,2038
1630934636888,2035
1630934636892,2033
1630934636896,2031
1630934636900,2030
1630934636904,2030
1630934636908,2029
1630934636912,2030
1630934636916,2029
1630934636920,2028
1630934636924,2028
1630934636928,2028
1630934636932,2029
1630934636936,2030
1630934636940,2030
1630934636944,2031
1630934636948,2032
1630934636952,2032
1630934636956,2033
1630934636960,2033
1630934636964,2034
1630934636968,2034
1630934636972,2034
1630934636976,2033
1630934636980,2033
1630934636984,2033
1630934636988,2034
1630934636992,2035
1630934636996,2035
1630934637000,2034
1630934637004,2034
1630934637008,2033
1630934637012,2032
1630934637016,2031
1630934637020,2031
1630934637024,2031
1630934637028,2031
1630934637032,2031
1630934637036,2031
1630934637040,2031
1630934637044,2031
1630934637048,2032
1630934637052,2034
1630934637056,2037
1630934637060,2040
1630934637064,2041
1630934637068,2041
1630934637072,2038
1630934637076,2035
1630934637080,2032
1630934637084,2029
1630934637088,2028
1630934637092,2028
1630934637096,2028
1630934637100,2029
1630934637104,2029
1630934637108,2029
1630934637112,2029
1630934637116,2029
1630934637120,2030
1630934637124,2032
1630934637128,2032
1630934637132,2030
1630934637136,2024
1630934637140,2015
1630934637144,2009
1630934637148,2014
1630934637152,2043
1630934637156,2107
1630934637160,2188
1630934637164,2255
1630934637168,2273
1630934637172,2228
1630934637176,2134
1630934637180,2031
1630934637184,1957
1630934637188,1932
1630934637192,1947
1630934637196,1978
1630934637200,2006
1630934637204,2021
1630934637208,2023
1630934637212,2025
1630934637216,2027
1630934637220,2027
1630934637224,2027
1630934637228,2028
1630934637232,2029
1630934637236,2030
1630934637240,2030
1630934637244,2030
1630934637248,2031
1630934637252,2032
1630934637256,2033
1630934637260,2035
1630934637264,2036
1630934637268,2038
1630934637272,2039
1630934637276,2040
1630934637280,2040
1630934637284,2041
1630934637288,2042
1630934637292,2044
1630934637296,2047
1630934637300,2049
1630934637304,2052
1630934637308,2055
1630934637312,2057
1630934637316,2060
1630934637320,2064
1630934637324,2067
1630934637328,2070
1630934637332,2074
1630934637336,2077
1630934637340,2081
1630934637344,2083
1630934637348,2085
1630934637352,2086
1630934637356,2087
1630934637360,2088
1630934637364,2089
1630934637368,2091
1630934637372,2091
1630934637376,2091
1630934637380,2090
1630934637384,2087
1630934637388,2083
1630934637392,2080
1630934637396,2076
1630934637400,2072
1630934637404,2067
1630934637408,2061
1630934637412,2055
1630934637416,2050
1630934637420,2047
1630934637424,2044
1630934637428,2041
1630934637432,2038
1630934637436,2034
1630934637440,2031
1630934637444,2029
1630934637448,2028
1630934637452,2029
1630934637456,2029
1630934637460,2030
1630934637464,2030
1630934637468,2029
1630934637472,2029
1630934637476,2030
1630934637480,2030
1630934637484,2031
1630934637488,2032
1630934637492,2033
1630934637496,2033
1630934637500,2033
1630934637504,2032
1630934637508,2032
1630934637512,2031
1630934637516,2032
1630934637520,2032
1630934637524,2032
1630934637528,2030
1630934637532,2031
1630934637536,2033
1630934637540,2034
1630934637544,2033
1630934637548,2029
1630934637552,2025
1630934637556,2025
1630934637560,2031
1630934637564,2039
1630934637568,2045
1630934637572,2047
1630934637576,2043
1630934637580,2036
1630934637584,2031
1630934637588,2028
1630934637592,2027
1630934637596,2027
1630934637600,2027
1630934637604,2028
1630934637608,2032
1630934637612,2036
1630934637616,2038
1630934637620,2038
1630934637624,2037
1630934637628,2034
1630934637632,2032
1630934637636,2030
1630934637640,2028
1630934637644,2026
1630934637648,2023
1630934637652,2019
1630934637656,2018
1630934637660,2016
1630934637664,2020
1630934637668,2026
1630934637672,2031
1630934637676,2035
1630934637680,2034
1630934637684,2030
1630934637688,2023
1630934637692,2016
1630934637696,2010
1630934637700,2007
1630934637704,2014
1630934637708,2049
1630934637712,2120
1630934637716,2202
1630934637720,2264
1630934637724,2272
1630934637728,2211
1630934637732,2106
1630934637736,2002
1630934637740,1938
1630934637744,1926
1630934637748,1950
1630934637752,1984
1630934637756,2009
1630934637760,2016
1630934637764,2018
1630934637768,2023
1630934637772,2027
1630934637776,2028
1630934637780,2029
1630934637784,2030
1630934637788,2029
1630934637792,2028
1630934637796,2027
1630934637800,2027
1630934637804,2028
1630934637808,2029
1630934637812,2030
1630934637816,2031
1630934637820,2033
1630934637824,2038
1630934637828,2042
1630934637832,2046
1630934637836,2048
1630934637840,2048
1630934637844,2048
1630934637848,2047
1630934637852,2047
1630934637856,2048
1630934637860,2051
1630934637864,2055
1630934637868,2059
1630934637872,2062
1630934637876,2064
1630934637880,2067
1630934637884,2071
1630934637888,2074
1630934637892,2078
1630934637896,2080
1630934637900,2082
1630934637904,2083
1630934637908,2085
1630934637912,2087
1630934637916,2088
1630934637920,2091
1630934637924,2092
1630934637928,2090
1630934637932,2085
1630934637936,2080
1630934637940,2075
1630934637944,2071
1630934637948,2067
1630934637952,2064
1630934637956,2059
1630934637960,2054
1630934637964,2050
1630934637968,2048
1630934637972,2045
1630934637976,2042
1630934637980,2038
1630934637984,2034
1630934637988,2029
1630934637992,2026
1630934637996,2023
1630934638000,2021
1630934638004,2019
1630934638008,2018
1630934638012,2019
1630934638016,2020
1630934638020,2020
1630934638024,2020
1630934638028,2020
1630934638032,2020
1630934638036,2020
1630934638040,2021
1630934638044,2021
1630934638048,2020
1630934638052,2020
1630934638056,2021
1630934638060,2023
1630934638064,2026
1630934638068,2028
1630934638072,2029
1630934638076,2028
1630934638080,2027
1630934638084,2026
1630934638088,2026
1630934638092,2027
1630934638096,2027
1630934638100,2028
1630934638104,2029
1630934638108,2028
1630934638112,2027
1630934638116,2024
1630934638120,2020
1630934638124,2018
1630934638128,2018
1630934638132,2020
1630934638136,2024
1630934638140,2025
1630934638144,2023
1630934638148,2020
1630934638152,2015
1630934638156,2014
1630934638160,2017
1630934638164,2023
1630934638168,2027
1630934638172,2028
1630934638176,2023
1630934638180,2015
1630934638184,2010
1630934638188,2009
1630934638192,2013
1630934638196,2021
1630934638200,2030
1630934638204,2038
1630934638208,2042
1630934638212,2045
1630934638216,2045
1630934638220,2043
1630934638224,2039
1630934638228,2034
1630934638232,2030
1630934638236,2026
1630934638240,2025
1630934638244,2024
1630934638248,2023
1630934638252,2023
1630934638256,2022
1630934638260,2023
1630934638264,2024
1630934638268,2026
1630934638272,2029
1630934638276,2032
1630934638280,2035
1630934638284,2035
1630934638288,2030
1630934638292,2021
1630934638296,2016
1630934638300,2021
1630934638304,2048
1630934638308,2110
1630934638312,2189
1630934638316,2252
1630934638320,2268
1630934638324,2220
1630934638328,2124
1630934638332,2019
1630934638336,1944
1630934638340,1922
1630934638344,1942
1630934638348,1979
1630934638352,2010
1630934638356,2023
1630934638360,2019
1630934638364,2015
1630934638368,2018
1630934638372,2024
1630934638376,2031
1630934638380,2035
1630934638384,2032
1630934638388,2029
1630934638392,2032
1630934638396,2040
1630934638400,2047
1630934638404,2046
1630934638408,2032
1630934638412,2015
1630934638416,2005
1630934638420,2011
1630934638424,2036
1630934638428,2059
1630934638432,2075
1630934638436,2082
1630934638440,2081
1630934638444,2077
1630934638448,2071
1630934638452,2064
1630934638456,2055
1630934638460,2048
1630934638464,2048
1630934638468,2059
1630934638472,2071
1630934638476,2079
1630934638480,2091
1630934638484,2100
1630934638488,2108
1630934638492,2118
1630934638496,2125
1630934638500,2128
1630934638504,2130
1630934638508,2128
1630934638512,2126
1630934638516,2120
1630934638520,2107
1630934638524,2104
1630934638528,2115
1630934638532,2139
1630934638536,2162
1630934638540,2168
1630934638544,2151
1630934638548,2132
1630934638552,2126
1630934638556,2141
1630934638560,2167
1630934638564,2170
1630934638568,2144
1630934638572,2106
1630934638576,2078
1630934638580,2060
1630934638584,2050
1630934638588,2041
1630934638592,2026
1630934638596,2019
1630934638600,2032
1630934638604,2068
1630934638608,2103
1630934638612,2119
1630934638616,2115
1630934638620,2098
1630934638624,2093
1630934638628,2102
1630934638632,2123
1630934638636,2134
1630934638640,2132
1630934638644,2123
1630934638648,2110
1630934638652,2101
1630934638656,2099
1630934638660,2100
1630934638664,2104
1630934638668,2105
1630934638672,2102
1630934638676,2095
1630934638680,2087
1630934638684,2079
1630934638688,2071
1630934638692,2064
1630934638696,2056
1630934638700,2049
1630934638704,2046
1630934638708,2047
1630934638712,2052
1630934638716,2055
1630934638720,2055
1630934638724,2048
1630934638728,2036
1630934638732,2032
1630934638736,2039
1630934638740,2052
1630934638744,2069
1630934638748,2079
1630934638752,2075
1630934638756,2064
1630934638760,2054
1630934638764,2049
1630934638768,2049
1630934638772,2050
1630934638776,2048
1630934638780,2040
1630934638784,2031
1630934638788,2026
1630934638792,2023
1630934638796,2022
1630934638800,2027
1630934638804,2034
1630934638808,2039
1630934638812,2039
1630934638816,2034
1630934638820,2025
1630934638824,2015
1630934638828,2009
1630934638832,2010
1630934638836,2009
1630934638840,2008
1630934638844,2010
1630934638848,2019
1630934638852,2054
1630934638856,2121
1630934638860,2196
1630934638864,2245
1630934638868,2240
1630934638872,2177
1630934638876,2082
1630934638880,1994
1630934638884,1943
1630934638888,1936
1630934638892,1956
1630934638896,1982
1630934638900,2000
1630934638904,2005
1630934638908,2004
1630934638912,2006
1630934638916,2008
1630934638920,2015
1630934638924,2026
1630934638928,2035
1630934638932,2038
1630934638936,2029
1630934638940,2017
1630934638944,2009
1630934638948,2009
1630934638952,2018
1630934638956,2028
1630934638960,2036
1630934638964,2036
1630934638968,2031
1630934638972,2025
1630934638976,2023
1630934638980,2024
1630934638984,2030
1630934638988,2037
1630934638992,2042
1630934638996,2048
1630934639000,2049
1630934639004,2048
1630934639008,2049
1630934639012,2049
1630934639016,2049
1630934639020,2045
1630934639024,2039
1630934639028,2040
1630934639032,2049
1630934639036,2064
1630934639040,2076
1630934639044,2079
1630934639048,2071
1630934639052,2073
1630934639056,2085
1630934639060,2105
1630934639064,2120
1630934639068,2109
1630934639072,2077
1630934639076,2046
1630934639080,2035
1630934639084,2050
1630934639088,2078
1630934639092,2097
1630934639096,2086
1630934639100,2051
1630934639104,2012
1630934639108,2001
1630934639112,2022
1630934639116,2066
1630934639120,2107
1630934639124,2114
1630934639128,2077
1630934639132,2023
1630934639136,1984
1630934639140,1988
1630934639144,2028
1630934639148,2075
1630934639152,2085
1630934639156,2046
1630934639160,1975
1630934639164,1920
1630934639168,1914
1630934639172,1956
1630934639176,2019
1630934639180,2058
1630934639184,2061
1630934639188,2039
1630934639192,2011
1630934639196,2004
1630934639200,2019
1630934639204,2050
1630934639208,2077
1630934639212,2091
1630934639216,2085
1630934639220,2062
1630934639224,2040
1630934639228,2024
1630934639232,2023
1630934639236,2028
1630934639240,2036
1630934639244,2039
1630934639248,2031
1630934639252,2021
1630934639256,2017
1630934639260,2024
1630934639264,2039
1630934639268,2049
1630934639272,2051
1630934639276,2042
1630934639280,2033
1630934639284,2028
1630934639288,2032
1630934639292,2039
1630934639296,2045
1630934639300,2044
1630934639304,2036
1630934639308,2028
1630934639312,2023
1630934639316,2022
1630934639320,2026
1630934639324,2030
1630934639328,2032
1630934639332,2033
1630934639336,2030
1630934639340,2026
1630934639344,2023
1630934639348,2024
1630934639352,2030
1630934639356,2038
1630934639360,2046
1630934639364,2049
1630934639368,2051
1630934639372,2049
1630934639376,2047
1630934639380,2043
1630934639384,2040
1630934639388,2040
1630934639392,2042
1630934639396,2047
1630934639400,2048
1630934639404,2048
1630934639408,2043
1630934639412,2038
1630934639416,2035
1630934639420,2034
1630934639424,2035
1630934639428,2037
1630934639432,2039
1630934639436,2036
1630934639440,2029
1630934639444,2018
1630934639448,2007
1630934639452,2007
1630934639456,2024
1630934639460,2068
1630934639464,2141
1630934639468,2217
1630934639472,2267
1630934639476,2264
1630934639480,2204
1630934639484,2109
1630934639488,2018
1630934639492,1958
1630934639496,1942
1630934639500,1958
1630934639504,1984
1630934639508,2005
1630934639512,2015
1630934639516,2018
1630934639520,2022
1630934639524,2024
1630934639528,2024
1630934639532,2025
1630934639536,2026
1630934639540,2027
1630934639544,2029
1630934639548,2028
1630934639552,2027
1630934639556,2027
1630934639560,2026
1630934639564,2027
1630934639568,2028
1630934639572,2031
1630934639576,2038
1630934639580,2046
1630934639584,2052
1630934639588,2053
1630934639592,2048
1630934639596,2038
1630934639600,2028
1630934639604,2024
1630934639608,2029
1630934639612,2039
1630934639616,2048
1630934639620,2050
1630934639624,2049
1630934639628,2046
1630934639632,2045
1630934639636,2048
1630934639640,2056
1630934639644,2065
1630934639648,2072
1630934639652,2075
1630934639656,2075
1630934639660,2074
1630934639664,2074
1630934639668,2075
1630934639672,2077
1630934639676,2077
1630934639680,2076
1630934639684,2075
1630934639688,2073
1630934639692,2072
1630934639696,2070
1630934639700,2069
1630934639704,2066
1630934639708,2061
1630934639712,2055
1630934639716,2049
1630934639720,2046
1630934639724,2044
1630934639728,2044
1630934639732,2042
1630934639736,2039
1630934639740,2033
1630934639744,2026
1630934639748,2020
1630934639752,2018
1630934639756,2018
1630934639760,2018
1630934639764,2018
1630934639768,2016
1630934639772,2015
1630934639776,2016
1630934639780,2017
1630934639784,2020
1630934639788,2023
1630934639792,2024
1630934639796,2023
1630934639800,2022
1630934639804,2021
1630934639808,2022
1630934639812,2024
1630934639816,2025
1630934639820,2026
1630934639824,2026
1630934639828,2026
1630934639832,2026
1630934639836,2026
1630934639840,2026
1630934639844,2025
1630934639848,2024
1630934639852,2024
1630934639856,2026
1630934639860,2026
1630934639864,2026
1630934639868,2024
1630934639872,2022
1630934639876,2021
1630934639880,2022
1630934639884,2025
1630934639888,2027
1630934639892,2029
1630934639896,2029
1630934639900,2029
1630934639904,2029
1630934639908,2029
1630934639912,2029
1630934639916,2028
1630934639920,2027
1630934639924,2026
1630934639928,2025
1630934639932,2022
1630934639936,2019
1630934639940,2018
1630934639944,2018
1630934639948,2019
1630934639952,2022
1630934639956,2024
1630934639960,2026
1630934639964,2026
1630934639968,2025
1630934639972,2025
1630934639976,2025
1630934639980,2024
1630934639984,2023
1630934639988,2019
1630934639992,2012
1630934639996,2003
1630934640000,2002
1630934640004,2018
1630934640008,2066
1630934640012,2143
1630934640016,2218
1630934640020,2259
1630934640024,2240
1630934640028,2164
1630934640032,2062
1630934640036,1973
1630934640040,1928
1630934640044,1928
1630934640048,1955
1630934640052,1984
1630934640056,2006
1630934640060,2014
1630934640064,2017
1630934640068,2023
1630934640072,2029
1630934640076,2032
1630934640080,2033
1630934640084,2031
1630934640088,2028
1630934640092,2025
1630934640096,2026
1630934640100,2029
1630934640104,2033
1630934640108,2034
1630934640112,2034
1630934640116,2032
1630934640120,2032
1630934640124,2035
1630934640128,2038
1630934640132,2041
1630934640136,2043
1630934640140,2044
1630934640144,2046
1630934640148,2047
1630934640152,2049
1630934640156,2052
1630934640160,2057
1630934640164,2062
1630934640168,2067
1630934640172,2069
1630934640176,2069
1630934640180,2068
1630934640184,2069
1630934640188,2073
1630934640192,2080
1630934640196,2085
1630934640200,2090
1630934640204,2091
1630934640208,2090
1630934640212,2089
1630934640216,2088
1630934640220,2088
1630934640224,2088
1630934640228,2087
1630934640232,2086
1630934640236,2084
1630934640240,2080
1630934640244,2077
1630934640248,2075
1630934640252,2074
1630934640256,2072
1630934640260,2070
1630934640264,2064
1630934640268,2056
1630934640272,2049
1630934640276,2044
1630934640280,2041
1630934640284,2040
1630934640288,2039
1630934640292,2038
1630934640296,2037
1630934640300,2036
1630934640304,2037
1630934640308,2038
1630934640312,2039
1630934640316,2037
1630934640320,2035
1630934640324,2033
1630934640328,2034
1630934640332,2036
1630934640336,2039
1630934640340,2040
1630934640344,2040
1630934640348,2041
1630934640352,2042
1630934640356,2044
1630934640360,2048
1630934640364,2050
1630934640368,2053
1630934640372,2054
1630934640376,2053
1630934640380,2052
1630934640384,2052
1630934640388,2053
1630934640392,2055
1630934640396,2056
1630934640400,2056
1630934640404,2055
1630934640408,2055
1630934640412,2055
1630934640416,2057
1630934640420,2059
1630934640424,2061
1630934640428,2062
1630934640432,2061
1630934640436,2061
1630934640440,2060
1630934640444,2059
1630934640448,2059
1630934640452,2059
1630934640456,2058
1630934640460,2057
1630934640464,2058
1630934640468,2060
1630934640472,2064
1630934640476,2069
1630934640480,2073
1630934640484,2076
1630934640488,2078
1630934640492,2079
1630934640496,2079
1630934640500,2079
1630934640504,2078
1630934640508,2075
1630934640512,2071
1630934640516,2067
1630934640520,2064
1630934640524,2064
1630934640528,2065
1630934640532,2067
1630934640536,2066
1630934640540,2064
1630934640544,2061
1630934640548,2060
1630934640552,2061
1630934640556,2063
1630934640560,2064
1630934640564,2060
1630934640568,2051
1630934640572,2042
1630934640576,2040
1630934640580,2057
1630934640584,2111
1630934640588,2198
1630934640592,2285
1630934640596,2334
1630934640600,2315
1630934640604,2230
1630934640608,2114
1630934640612,2015
1630934640616,1964
1630934640620,1964
1630934640624,1993
1630934640628,2024
1630934640632,2043
1630934640636,2047
1630934640640,2048
1630934640644,2054
1630934640648,2055
1630934640652,2051
1630934640656,2047
1630934640660,2045
1630934640664,2049
1630934640668,2059
1630934640672,2069
1630934640676,2073
1630934640680,2071
1630934640684,2064
1630934640688,2057
1630934640692,2055
1630934640696,2059
1630934640700,2064
1630934640704,2069
1630934640708,2070
1630934640712,2071
1630934640716,2071
1630934640720,2071
1630934640724,2070
1630934640728,2072
1630934640732,2075
1630934640736,2079
1630934640740,2083
1630934640744,2087
1630934640748,2089
1630934640752,2092
1630934640756,2094
1630934640760,2097
1630934640764,2100
1630934640768,2103
1630934640772,2106
1630934640776,2109
1630934640780,2112
1630934640784,2114
1630934640788,2117
1630934640792,2120
1630934640796,2120
1630934640800,2118
1630934640804,2114
1630934640808,2110
1630934640812,2108
1630934640816,2109
1630934640820,2112
1630934640824,2115
1630934640828,2113
1630934640832,2107
1630934640836,2097
1630934640840,2086
1630934640844,2077
1630934640848,2069
1630934640852,2064
1630934640856,2060
1630934640860,2057
1630934640864,2055
1630934640868,2054
1630934640872,2052
1630934640876,2050
1630934640880,2048
1630934640884,2047
1630934640888,2046
1630934640892,2046
1630934640896,2047
1630934640900,2046
1630934640904,2045
1630934640908,2044
1630934640912,2044
1630934640916,2045
1630934640920,2048
1630934640924,2050
1630934640928,2052
1630934640932,2053
1630934640936,2053
1630934640940,2052
1630934640944,2051
1630934640948,2050
1630934640952,2050
1630934640956,2050
1630934640960,2049
1630934640964,2050
1630934640968,2050
1630934640972,2050
1630934640976,2050
1630934640980,2050
1630934640984,2049
1630934640988,2048
1630934640992,2048
1630934640996,2048
1630934641000,2048
1630934641004,2049
1630934641008,2048
1630934641012,2046
1630934641016,2043
1630934641020,2041
1630934641024,2041
1630934641028,2042
1630934641032,2044
1630934641036,2044
1630934641040,2044
1630934641044,2044
1630934641048,2045
1630934641052,2048
1630934641056,2049
1630934641060,2051
1630934641064,2050
1630934641068,2048
1630934641072,2046
1630934641076,2043
1630934641080,2041
1630934641084,2038
1630934641088,2036
1630934641092,2035
1630934641096,2035
1630934641100,2036
1630934641104,2036
1630934641108,2035
1630934641112,2034
1630934641116,2035
1630934641120,2037
1630934641124,2039
1630934641128,2039
1630934641132,2035
1630934641136,2026
1630934641140,2019
1630934641144,2023
1630934641148,2051
1630934641152,2119
1630934641156,2207
1630934641160,2280
1630934641164,2302
1630934641168,2256
1630934641172,2156
1630934641176,2044
1630934641180,1961
1630934641184,1932
1630934641188,1947
1630934641192,1980
1630934641196,2010
1630934641200,2026
1630934641204,2028
1630934641208,2030
1630934641212,2032
1630934641216,2032
1630934641220,2032
1630934641224,2033
1630934641228,2034
1630934641232,2035
1630934641236,2035
1630934641240,2035
1630934641244,2036
1630934641248,2036
1630934641252,2037
1630934641256,2038
1630934641260,2040
1630934641264,2042
1630934641268,2044
1630934641272,2046
1630934641276,2047
1630934641280,2047
1630934641284,2046
1630934641288,2047
1630934641292,2048
1630934641296,2052
1630934641300,2057
1630934641304,2062
1630934641308,2065
1630934641312,2067
1630934641316,2068
1630934641320,2068
1630934641324,2069
1630934641328,2070
1630934641332,2073
1630934641336,2077
1630934641340,2080
1630934641344,2083
1630934641348,2086
1630934641352,2089
1630934641356,2090
1630934641360,2091
1630934641364,2091
1630934641368,2089
1630934641372,2087
1630934641376,2084
1630934641380,2080
1630934641384,2077
1630934641388,2076
1630934641392,2075
1630934641396,2073
1630934641400,2068
1630934641404,2060
1630934641408,2050
1630934641412,2039
1630934641416,2029
1630934641420,2023
1630934641424,2022
1630934641428,2024
1630934641432,2028
1630934641436,2028
1630934641440,2026
1630934641444,2023
1630934641448,2019
1630934641452,2017
1630934641456,2017
1630934641460,2018
1630934641464,2019
1630934641468,2019
1630934641472,2020
1630934641476,2020
1630934641480,2020
1630934641484,2020
1630934641488,2019
1630934641492,2019
1630934641496,2020
1630934641500,2021
1630934641504,2022
1630934641508,2022
1630934641512,2023
1630934641516,2024
1630934641520,2023
1630934641524,2022
1630934641528,2020
1630934641532,2021
1630934641536,2024
1630934641540,2030
1630934641544,2032
1630934641548,2025
1630934641552,2015
1630934641556,2005
1630934641560,2002
1630934641564,2008
1630934641568,2018
1630934641572,2027
1630934641576,2029
1630934641580,2026
1630934641584,2020
1630934641588,2015
1630934641592,2014
1630934641596,2017
1630934641600,2019
1630934641604,2019
1630934641608,2018
1630934641612,2019
1630934641616,2019
1630934641620,2020
1630934641624,2021
1630934641628,2022
1630934641632,2021
1630934641636,2020
1630934641640,2018
1630934641644,2020
1630934641648,2024
1630934641652,2030
1630934641656,2034
1630934641660,2034
1630934641664,2030
1630934641668,2025
1630934641672,2022
1630934641676,2023
1630934641680,2026
1630934641684,2029
1630934641688,2030
1630934641692,2030
1630934641696,2028
1630934641700,2026
1630934641704,2025
1630934641708,2024
1630934641712,2023
1630934641716,2022
1630934641720,2021
1630934641724,2021
1630934641728,2022
1630934641732,2026
1630934641736,2028
1630934641740,2030
1630934641744,2030
1630934641748,2029
1630934641752,2025
1630934641756,2019
1630934641760,2011
1630934641764,2004
1630934641768,2001
1630934641772,2012
1630934641776,2048
1630934641780,2116
1630934641784,2196
1630934641788,2253
1630934641792,2259
1630934641796,2204
1630934641800,2108
1630934641804,2013
1630934641808,1952
1630934641812,1938
1630934641816,1960
1630934641820,1990
1630934641824,2012
1630934641828,2018
1630934641832,2015
1630934641836,2016
1630934641840,2018
1630934641844,2020
1630934641848,2023
1630934641852,2026
1630934641856,2029
1630934641860,2032
1630934641864,2035
1630934641868,2038
1630934641872,2041
1630934641876,2041
1630934641880,2040
1630934641884,2038
1630934641888,2036
1630934641892,2035
1630934641896,2034
1630934641900,2033
1630934641904,2035
1630934641908,2036
1630934641912,2039
1630934641916,2042
1630934641920,2043
1630934641924,2045
1630934641928,2047
1630934641932,2048
1630934641936,2052
1630934641940,2056
1630934641944,2061
1630934641948,2064
1630934641952,2067
1630934641956,2068
1630934641960,2070
1630934641964,2073
1630934641968,2078
1630934641972,2083
1630934641976,2087
1630934641980,2088
1630934641984,2088
1630934641988,2085
1630934641992,2084
1630934641996,2082
1630934642000,2081
1630934642004,2080
1630934642008,2078
1630934642012,2077
1630934642016,2077
1630934642020,2079
1630934642024,2080
1630934642028,2079
1630934642032,2075
1630934642036,2067
1630934642040,2057
1630934642044,2049
1630934642048,2045
1630934642052,2042
1630934642056,2041
1630934642060,2041
1630934642064,2041
1630934642068,2041
1630934642072,2042
1630934642076,2042
1630934642080,2041
1630934642084,2039
1630934642088,2037
1630934642092,2036
1630934642096,2037
1630934642100,2039
1630934642104,2043
1630934642108,2045
1630934642112,2045
1630934642116,2043
1630934642120,2040
1630934642124,2036
1630934642128,2034
1630934642132,2034
1630934642136,2035
1630934642140,2038
1630934642144,2040
1630934642148,2042
1630934642152,2044
1630934642156,2043
1630934642160,2039
1630934642164,2036
1630934642168,2033
1630934642172,2034
1630934642176,2038
1630934642180,2043
1630934642184,2046
1630934642188,2047
1630934642192,2045
1630934642196,2041
1630934642200,2037
1630934642204,2035
1630934642208,2035
1630934642212,2036
1630934642216,2037
1630934642220,2038
1630934642224,2038
1630934642228,2037
1630934642232,2036
1630934642236,2035
1630934642240,2035
1630934642244,2036
1630934642248,2038
1630934642252,2040
1630934642256,2041
1630934642260,2040
1630934642264,2038
1630934642268,2035
1630934642272,2034
1630934642276,2034
1630934642280,2036
1630934642284,2038
1630934642288,2040
1630934642292,2043
1630934642296,2045
1630934642300,2046
1630934642304,2046
1630934642308,2045
1630934642312,2044
1630934642316,2043
1630934642320,2041
1630934642324,2039
1630934642328,2036
1630934642332,2034
1630934642336,2034
1630934642340,2035
1630934642344,2038
1630934642348,2041
1630934642352,2042
1630934642356,2042
1630934642360,2042
1630934642364,2042
1630934642368,2042
1630934642372,2041
1630934642376,2036
1630934642380,2026
1630934642384,2017
1630934642388,2019
1630934642392,2046
1630934642396,2113
1630934642400,2205
1630934642404,2286
1630934642408,2317
1630934642412,2277
1630934642416,2181
1630934642420,2068
1630934642424,1983
1630934642428,1948
1630934642432,1955
1630934642436,1980
1630934642440,2006
1630934642444,2022
1630934642448,2028
1630934642452,2036
1630934642456,2044
1630934642460,2044
1630934642464,2040
1630934642468,2038
1630934642472,2038
1630934642476,2039
1630934642480,2041
1630934642484,2043
1630934642488,2044
1630934642492,2045
1630934642496,2047
1630934642500,2048
1630934642504,2050
1630934642508,2050
1630934642512,2050
1630934642516,2051
1630934642520,2053
1630934642524,2055
1630934642528,2058
1630934642532,2060
1630934642536,2062
1630934642540,2064
1630934642544,2067
1630934642548,2069
1630934642552,2071
1630934642556,2074
1630934642560,2077
1630934642564,2080
1630934642568,2083
1630934642572,2087
1630934642576,2090
1630934642580,2094
1630934642584,2098
1630934642588,2102
1630934642592,2104
1630934642596,2105
1630934642600,2105
1630934642604,2105
1630934642608,2106
1630934642612,2106
1630934642616,2105
1630934642620,2103
1630934642624,2100
1630934642628,2098
1630934642632,2096
1630934642636,2094
1630934642640,2089
1630934642644,2084
1630934642648,2078
1630934642652,2072
1630934642656,2067
1630934642660,2062
1630934642664,2059
1630934642668,2054
1630934642672,2049
1630934642676,2044
1630934642680,2039
1630934642684,2036
1630934642688,2036
1630934642692,2038
1630934642696,2040
1630934642700,2040
1630934642704,2039
1630934642708,2037
1630934642712,2036
1630934642716,2036
1630934642720,2037
1630934642724,2038
1630934642728,2039
1630934642732,2040
1630934642736,2041
1630934642740,2041
1630934642744,2042
1630934642748,2042
1630934642752,2042
1630934642756,2043
1630934642760,2042
1630934642764,2042
1630934642768,2042
1630934642772,2042
1630934642776,2041
1630934642780,2042
1630934642784,2042
1630934642788,2042
1630934642792,2042
1630934642796,2041
1630934642800,2041
1630934642804,2041
1630934642808,2042
1630934642812,2042
1630934642816,2043
1630934642820,2043
1630934642824,2043
1630934642828,2042
1630934642832,2041
1630934642836,2038
1630934642840,2036
1630934642844,2035
1630934642848,2036
1630934642852,2038
1630934642856,2040
1630934642860,2042
1630934642864,2043
1630934642868,2043
1630934642872,2044
1630934642876,2046
1630934642880,2047
1630934642884,2048
1630934642888,2047
1630934642892,2046
1630934642896,2044
1630934642900,2041
1630934642904,2040
1630934642908,2039
1630934642912,2039
1630934642916,2038
1630934642920,2038
1630934642924,2038
1630934642928,2037
1630934642932,2037
1630934642936,2038
1630934642940,2040
1630934642944,2042
1630934642948,2041
1630934642952,2035
1630934642956,2023
1630934642960,2012
1630934642964,2011
1630934642968,2031
1630934642972,2088
1630934642976,2178
1630934642980,2264
1630934642984,2310
1630934642988,2287
1630934642992,2199
1630934642996,2083
1630934643000,1985
1630934643004,1935
1630934643008,1936
1630934643012,1965
1630934643016,1997
1630934643020,2018
1630934643024,2024
1630934643028,2025
1630934643032,2029
1630934643036,2030
1630934643040,2030
1630934643044,2030
1630934643048,2032
1630934643052,2033
1630934643056,2034
1630934643060,2035
1630934643064,2035
1630934643068,2036
1630934643072,2037
1630934643076,2037
1630934643080,2038
1630934643084,2038
1630934643088,2039
1630934643092,2041
1630934643096,2043
1630934643100,2045
1630934643104,2047
1630934643108,2048
1630934643112,2048
1630934643116,2050
1630934643120,2052
1630934643124,2054
1630934643128,2057
1630934643132,2061
1630934643136,2065
1630934643140,2068
1630934643144,2071
1630934643148,2075
1630934643152,2078
1630934643156,2081
1630934643160,2085
1630934643164,2088
1630934643168,2091
1630934643172,2093
1630934643176,2095
1630934643180,2095
1630934643184,2095
1630934643188,2094
1630934643192,2092
1630934643196,2090
1630934643200,2088
1630934643204,2086
1630934643208,2082
1630934643212,2079
1630934643216,2074
1630934643220,2069
1630934643224,2063
1630934643228,2056
1630934643232,2050
1630934643236,2046
1630934643240,2041
1630934643244,2037
1630934643248,2033
1630934643252,2031
1630934643256,2029
1630934643260,2028
1630934643264,2026
1630934643268,2025
1630934643272,2024
1630934643276,2023
1630934643280,2023
1630934643284,2022
1630934643288,2022
1630934643292,2023
1630934643296,2024
1630934643300,2025
1630934643304,2025
1630934643308,2025
1630934643312,2026
1630934643316,2027
1630934643320,2028
1630934643324,2028
1630934643328,2029
1630934643332,2029
1630934643336,2030
1630934643340,2031
1630934643344,2031
1630934643348,2031
1630934643352,2031
1630934643356,2031
1630934643360,2031
1630934643364,2030
1630934643368,2030
1630934643372,2030
1630934643376,2030
1630934643380,2031
1630934643384,2031
1630934643388,2031
1630934643392,2030
1630934643396,2030
1630934643400,2029
1630934643404,2030
1630934643408,2030
1630934643412,2030
1630934643416,2030
1630934643420,2029
1630934643424,2028
1630934643428,2027
1630934643432,2026
1630934643436,2026
1630934643440,2026
1630934643444,2026
1630934643448,2027
1630934643452,2028
1630934643456,2029
1630934643460,2032
1630934643464,2034
1630934643468,2036
1630934643472,2038
1630934643476,2038
1630934643480,2036
1630934643484,2033
1630934643488,2029
1630934643492,2027
1630934643496,2027
1630934643500,2027
1630934643504,2027
1630934643508,2027
1630934643512,2028
1630934643516,2028
1630934643520,2028
1630934643524,2029
1630934643528,2031
1630934643532,2032
1630934643536,2032
1630934643540,2028
1630934643544,2018
1630934643548,2008
1630934643552,2008
1630934643556,2026
1630934643560,2081
1630934643564,2166
1630934643568,2247
1630934643572,2289
1630934643576,2267
1630934643580,2182
1630934643584,2072
1630934643588,1979
1630934643592,1934
1630934643596,1937
1630934643600,1965
1630934643604,1997
1630934643608,2017
1630934643612,2022
1630934643616,2023
1630934643620,2027
1630934643624,2028
1630934643628,2027
1630934643632,2027
1630934643636,2027
1630934643640,2028
1630934643644,2029
1630934643648,2029
1630934643652,2031
1630934643656,2032
1630934643660,2033
1630934643664,2034
1630934643668,2035
1630934643672,2036
1630934643676,2037
1630934643680,2038
1630934643684,2039
1630934643688,2041
1630934643692,2043
1630934643696,2045
1630934643700,2047
1630934643704,2049
1630934643708,2051
1630934643712,2054
1630934643716,2056
1630934643720,2058
1630934643724,2061
1630934643728,2064
1630934643732,2068
1630934643736,2071
1630934643740,2075
1630934643744,2078
1630934643748,2082
1630934643752,2085
1630934643756,2087
1630934643760,2089
1630934643764,2090
1630934643768,2090
1630934643772,2090
1630934643776,2090
1630934643780,2089
1630934643784,2088
1630934643788,2086
1630934643792,2084
1630934643796,2080
1630934643800,2076
1630934643804,2072
1630934643808,2067
1630934643812,2062
1630934643816,2057
1630934643820,2051
1630934643824,2048
1630934643828,2044
1630934643832,2040
1630934643836,2036
1630934643840,2033
1630934643844,2030
1630934643848,2028
1630934643852,2026
1630934643856,2025
1630934643860,2025
1630934643864,2025
1630934643868,2025
1630934643872,2025
1630934643876,2025
1630934643880,2025
1630934643884,2025
1630934643888,2026
1630934643892,2027
1630934643896,2028
1630934643900,2029
1630934643904,2029
1630934643908,2029
1630934643912,2029
1630934643916,2029
1630934643920,2029
1630934643924,2030
1630934643928,2030
1630934643932,2030
1630934643936,2031
1630934643940,2030
1630934643944,2030
1630934643948,2030
1630934643952,2030
1630934643956,2029
1630934643960,2029
1630934643964,2028
1630934643968,2028
1630934643972,2028
1630934643976,2028
1630934643980,2028
1630934643984,2029
1630934643988,2029
1630934643992,2029
1630934643996,2029
1630934644000,2028
1630934644004,2028
1630934644008,2028
1630934644012,2028
1630934644016,2028
1630934644020,2028
1630934644024,2028
1630934644028,2028
1630934644032,2028
1630934644036,2028
1630934644040,2028
1630934644044,2028
1630934644048,2028
1630934644052,2028
1630934644056,2028
1630934644060,2028
1630934644064,2028
1630934644068,2027
1630934644072,2027
1630934644076,2026
1630934644080,2025
1630934644084,2025
1630934644088,2025
1630934644092,2027
1630934644096,2028
1630934644100,2031
1630934644104,2034
1630934644108,2036
1630934644112,2038
1630934644116,2038
1630934644120,2037
1630934644124,2035
1630934644128,2033
1630934644132,2031
1630934644136,2030
1630934644140,2028
1630934644144,2028
1630934644148,2027
1630934644152,2027
1630934644156,2028
1630934644160,2028
1630934644164,2028
1630934644168,2029
1630934644172,2031
1630934644176,2033
1630934644180,2033
1630934644184,2030
1630934644188,2023
1630934644192,2015
1630934644196,2012
1630934644200,2025
1630934644204,2067
1630934644208,2141
1630934644212,2221
1630934644216,2272
1630934644220,2266
1630934644224,2198
1630934644228,2096
1630934644232,2000
1630934644236,1944
1630934644240,1937
1630934644244,1961
1630934644248,1992
1630934644252,2017
1630934644256,2026
1630934644260,2027
1630934644264,2031
1630934644268,2031
1630934644272,2030
1630934644276,2029
1630934644280,2030
1630934644284,2031
1630934644288,2032
1630934644292,2033
1630934644296,2034
1630934644300,2035
1630934644304,2036
1630934644308,2037
1630934644312,2039
1630934644316,2039
1630934644320,2040
1630934644324,2041
1630934644328,2043
1630934644332,2044
1630934644336,2046
1630934644340,2048
1630934644344,2050
1630934644348,2051
1630934644352,2053
1630934644356,2055
1630934644360,2057
1630934644364,2060
1630934644368,2063
1630934644372,2066
1630934644376,2071
1630934644380,2075
1630934644384,2078
1630934644388,2081
1630934644392,2083
1630934644396,2085
1630934644400,2086
1630934644404,2087
1630934644408,2089
1630934644412,2090
1630934644416,2090
1630934644420,2090
1630934644424,2090
1630934644428,2090
1630934644432,2089
1630934644436,2088
1630934644440,2087
1630934644444,2084
1630934644448,2081
1630934644452,2077
1630934644456,2072
1630934644460,2068
1630934644464,2063
1630934644468,2058
1630934644472,2054
1630934644476,2050
1630934644480,2048
1630934644484,2044
1630934644488,2041
1630934644492,2039
1630934644496,2037
1630934644500,2036
1630934644504,2035
1630934644508,2034
1630934644512,2033
1630934644516,2033
1630934644520,2033
1630934644524,2034
1630934644528,2035
1630934644532,2035
1630934644536,2036
1630934644540,2037
1630934644544,2038
1630934644548,2038
1630934644552,2039
1630934644556,2038
1630934644560,2037
1630934644564,2036
1630934644568,2037
1630934644572,2038
1630934644576,2040
1630934644580,2041
1630934644584,2041
1630934644588,2040
1630934644592,2039
1630934644596,2038
1630934644600,2037
1630934644604,2037
1630934644608,2037
1630934644612,2037
1630934644616,2038
1630934644620,2038
1630934644624,2039
1630934644628,2038
1630934644632,2037
1630934644636,2036
1630934644640,2034
1630934644644,2034
1630934644648,2035
1630934644652,2037
1630934644656,2039
1630934644660,2040
1630934644664,2040
1630934644668,2039
1630934644672,2037
1630934644676,2035
1630934644680,2033
1630934644684,2033
1630934644688,2033
1630934644692,2034
1630934644696,2036
1630934644700,2038
1630934644704,2041
1630934644708,2043
1630934644712,2044
1630934644716,2045
1630934644720,2044
1630934644724,2043
1630934644728,2040
1630934644732,2039
1630934644736,2037
1630934644740,2036
1630934644744,2036
1630934644748,2035
1630934644752,2035
1630934644756,2035
1630934644760,2035
1630934644764,2035
1630934644768,2036
1630934644772,2038
1630934644776,2040
1630934644780,2042
1630934644784,2041
1630934644788,2035
1630934644792,2025
1630934644796,2017
1630934644800,2022
1630934644804,2050
1630934644808,2117
1630934644812,2203
1630934644816,2273
1630934644820,2295
1630934644824,2250
1630934644828,2154
1630934644832,2047
1630934644836,1969
1630934644840,1940
1630934644844,1953
1630934644848,1983
1630934644852,2011
1630934644856,2027
1630934644860,2031
1630934644864,2035
1630934644868,2039
1630934644872,2039
1630934644876,2038
1630934644880,2038
1630934644884,2040
1630934644888,2042
1630934644892,2043
1630934644896,2044
1630934644900,2044
1630934644904,2045
1630934644908,2046
1630934644912,2047
1630934644916,2048
1630934644920,2049
1630934644924,2050
1630934644928,2050
1630934644932,2051
1630934644936,2053
1630934644940,2055
1630934644944,2058
1630934644948,2060
1630934644952,2063
1630934644956,2064
1630934644960,2067
1630934644964,2069
1630934644968,2072
1630934644972,2076
1630934644976,2079
1630934644980,2083
1630934644984,2087
1630934644988,2090
1630934644992,2094
1630934644996,2097
1630934645000,2099
1630934645004,2100
1630934645008,2101
1630934645012,2102
1630934645016,2103
1630934645020,2103
1630934645024,2103
1630934645028,2102
1630934645032,2100
1630934645036,2097
1630934645040,2094
1630934645044,2092
1630934645048,2089
1630934645052,2085
1630934645056,2080
1630934645060,2074
1630934645064,2069
1630934645068,2063
1630934645072,2058
1630934645076,2053
1630934645080,2049
1630934645084,2045
1630934645088,2042
1630934645092,2040
1630934645096,2038
1630934645100,2037
1630934645104,2035
1630934645108,2034
1630934645112,2033
1630934645116,2032
1630934645120,2033
1630934645124,2033
1630934645128,2034
1630934645132,2034
1630934645136,2035
1630934645140,2035
1630934645144,2036
1630934645148,2038
1630934645152,2038
1630934645156,2038
1630934645160,2038
1630934645164,2038
1630934645168,2038
1630934645172,2039
1630934645176,2040
1630934645180,2041
1630934645184,2041
1630934645188,2041
1630934645192,2041
1630934645196,2041
1630934645200,2041
1630934645204,2041
1630934645208,2041
1630934645212,2041
1630934645216,2040
1630934645220,2040
1630934645224,2040
1630934645228,2039
1630934645232,2039
1630934645236,2039
1630934645240,2039
1630934645244,2039
1630934645248,2039
1630934645252,2040
1630934645256,2040
1630934645260,2041
1630934645264,2041
1630934645268,2041
1630934645272,2041
1630934645276,2040
1630934645280,2039
1630934645284,2038
1630934645288,2037
1630934645292,2037
1630934645296,2038
1630934645300,2040
1630934645304,2041
1630934645308,2041
1630934645312,2041
1630934645316,2041
1630934645320,2043
1630934645324,2045
1630934645328,2047
1630934645332,2048
1630934645336,2048
1630934645340,2048
1630934645344,2045
1630934645348,2043
1630934645352,2041
1630934645356,2040
1630934645360,2040
1630934645364,2039
1630934645368,2040
1630934645372,2040
1630934645376,2040
1630934645380,2041
1630934645384,2043
1630934645388,2046
1630934645392,2047
1630934645396,2046
1630934645400,2038
1630934645404,2027
1630934645408,2018
1630934645412,2021
1630934645416,2048
1630934645420,2116
1630934645424,2208
1630934645428,2286
1630934645432,2315
1630934645436,2273
1630934645440,2174
1630934645444,2059
1630934645448,1974
1630934645452,1940
1630934645456,1953
1630934645460,1984
1630934645464,2014
1630934645468,2030
1630934645472,2033
1630934645476,2036
1630934645480,2040
1630934645484,2041
1630934645488,2040
1630934645492,2040
1630934645496,2042
1630934645500,2043
1630934645504,2044
1630934645508,2044
1630934645512,2044
1630934645516,2045
1630934645520,2046
1630934645524,2047
1630934645528,2048
1630934645532,2049
1630934645536,2051
1630934645540,2052
1630934645544,2053
1630934645548,2055
1630934645552,2056
1630934645556,2057
1630934645560,2059
1630934645564,2061
1630934645568,2063
1630934645572,2066
1630934645576,2069
1630934645580,2072
1630934645584,2075
1630934645588,2079
1630934645592,2082
1630934645596,2086
1630934645600,2089
1630934645604,2093
1630934645608,2096
1630934645612,2099
1630934645616,2102
1630934645620,2105
1630934645624,2107
1630934645628,2107
1630934645632,2107
1630934645636,2106
1630934645640,2104
1630934645644,2102
1630934645648,2100
1630934645652,2098
1630934645656,2096
1630934645660,2092
1630934645664,2087
1630934645668,2082
1630934645672,2076
1630934645676,2069
1630934645680,2062
1630934645684,2057
1630934645688,2051
1630934645692,2048
1630934645696,2044
1630934645700,2041
1630934645704,2039
1630934645708,2036
1630934645712,2034
1630934645716,2033
1630934645720,2032
1630934645724,2031
1630934645728,2031
1630934645732,2031
1630934645736,2031
1630934645740,2031
1630934645744,2032
1630934645748,2032
1630934645752,2032
1630934645756,2033
1630934645760,2033
1630934645764,2035
1630934645768,2035
1630934645772,2037
1630934645776,2038
1630934645780,2038
1630934645784,2039
1630934645788,2040
1630934645792,2040
1630934645796,2040
1630934645800,2040
1630934645804,2040
1630934645808,2039
1630934645812,2039
1630934645816,2039
1630934645820,2039
1630934645824,2039
1630934645828,2039
1630934645832,2039
1630934645836,2038
1630934645840,2038
1630934645844,2038
1630934645848,2037
1630934645852,2037
1630934645856,2036
1630934645860,2036
1630934645864,2036
1630934645868,2035
1630934645872,2035
1630934645876,2035
1630934645880,2035
1630934645884,2035
1630934645888,2037
1630934645892,2039
1630934645896,2041
1630934645900,2043
1630934645904,2044
1630934645908,2043
1630934645912,2042
1630934645916,2040
1630934645920,2037
1630934645924,2035
1630934645928,2034
1630934645932,2033
1630934645936,2033
1630934645940,2034
1630934645944,2035
1630934645948,2035
1630934645952,2035
1630934645956,2035
1630934645960,2036
1630934645964,2038
1630934645968,2038
1630934645972,2035
1630934645976,2027
1630934645980,2017
1630934645984,2012
1630934645988,2024
1630934645992,2067
1630934645996,2148
1630934646000,2237
1630934646004,2298
1630934646008,2297
1630934646012,2228
1630934646016,2117
1630934646020,2011
1630934646024,1946
1630934646028,1934
1630934646032,1959
1630934646036,1993
1630934646040,2019
1630934646044,2029
1630934646048,2030
1630934646052,2034
1630934646056,2036
1630934646060,2035
1630934646064,2035
1630934646068,2036
1630934646072,2037
1630934646076,2038
1630934646080,2039
1630934646084,2040
1630934646088,2041
1630934646092,2042
1630934646096,2043
1630934646100,2044
1630934646104,2046
1630934646108,2047
1630934646112,2048
1630934646116,2048
1630934646120,2048
1630934646124,2049
1630934646128,2051
1630934646132,2054
1630934646136,2057
1630934646140,2059
1630934646144,2062
1630934646148,2065
1630934646152,2068
1630934646156,2070
1630934646160,2073
1630934646164,2077
1630934646168,2081
1630934646172,2085
1630934646176,2090
1630934646180,2094
1630934646184,2097
1630934646188,2099
1630934646192,2101
1630934646196,2102
1630934646200,2103
1630934646204,2104
1630934646208,2103
1630934646212,2102
1630934646216,2101
1630934646220,2099
1630934646224,2097
1630934646228,2093
1630934646232,2088
1630934646236,2083
1630934646240,2077
1630934646244,2070
1630934646248,2063
1630934646252,2057
1630934646256,2052
1630934646260,2048
1630934646264,2045
1630934646268,2041
1630934646272,2038
1630934646276,2035
1630934646280,2033
1630934646284,2031
1630934646288,2029
1630934646292,2029
1630934646296,2029
1630934646300,2029
1630934646304,2029
1630934646308,2029
1630934646312,2030
1630934646316,2030
1630934646320,2030
1630934646324,2030
1630934646328,2030
1630934646332,2031
1630934646336,2032
1630934646340,2033
1630934646344,2033
1630934646348,2033
1630934646352,2034
1630934646356,2034
1630934646360,2035
1630934646364,2035
1630934646368,2035
1630934646372,2035
1630934646376,2035
1630934646380,2036
1630934646384,2036
1630934646388,2036
1630934646392,2035
1630934646396,2034
1630934646400,2034
1630934646404,2034
1630934646408,2034
1630934646412,2035
1630934646416,2035
1630934646420,2034
1630934646424,2034
1630934646428,2034
1630934646432,2034
1630934646436,2034
1630934646440,2034
1630934646444,2034
1630934646448,2034
1630934646452,2034
1630934646456,2034
1630934646460,2035
1630934646464,2035
1630934646468,2036
1630934646472,2036
1630934646476,2036
1630934646480,2035
1630934646484,2034
1630934646488,2033
1630934646492,2033
1630934646496,2033
1630934646500,2033
1630934646504,2033
1630934646508,2034
1630934646512,2034
1630934646516,2036
1630934646520,2039
1630934646524,2041
1630934646528,2044
1630934646532,2045
1630934646536,2045
1630934646540,2044
1630934646544,2042
1630934646548,2039
1630934646552,2037
1630934646556,2035
1630934646560,2034
1630934646564,2034
1630934646568,2034
1630934646572,2034
1630934646576,2035
1630934646580,2036
1630934646584,2037
1630934646588,2038
1630934646592,2040
1630934646596,2040
1630934646600,2037
1630934646604,2031
1630934646608,2021
1630934646612,2015
1630934646616,2022
1630934646620,2054
1630934646624,2125
1630934646628,2211
1630934646632,2277
1630934646636,2291
1630934646640,2239
1630934646644,2139
1630934646648,2033
1630934646652,1960
1630934646656,1938
1630934646660,1957
1630934646664,1990
1630934646668,2018
1630934646672,2031
1630934646676,2032
1630934646680,2034
1630934646684,2036
1630934646688,2035
1630934646692,2036
1630934646696,2037
1630934646700,2038
1630934646704,2039
1630934646708,2040
1630934646712,2040
1630934646716,2040
1630934646720,2041
1630934646724,2042
1630934646728,2042
1630934646732,2044
1630934646736,2045
1630934646740,2047
1630934646744,2048
1630934646748,2049
1630934646752,2050
1630934646756,2051
1630934646760,2053
1630934646764,2055
1630934646768,2057
1630934646772,2060
1630934646776,2064
1630934646780,2067
1630934646784,2071
1630934646788,2074
1630934646792,2077
1630934646796,2079
1630934646800,2083
1630934646804,2088
1630934646808,2091
1630934646812,2095
1630934646816,2098
1630934646820,2100
1630934646824,2102
1630934646828,2103
1630934646832,2104
1630934646836,2104
1630934646840,2103
1630934646844,2101
1630934646848,2100
1630934646852,2098
1630934646856,2097
1630934646860,2094
1630934646864,2090
1630934646868,2085
1630934646872,2079
1630934646876,2073
1630934646880,2067
1630934646884,2061
1630934646888,2056
1630934646892,2052
1630934646896,2048
1630934646900,2046
1630934646904,2043
1630934646908,2040
1630934646912,2038
1630934646916,2036
1630934646920,2035
1630934646924,2034
1630934646928,2034
1630934646932,2034
1630934646936,2034
1630934646940,2034
1630934646944,2034
1630934646948,2035
1630934646952,2035
1630934646956,2036
1630934646960,2036
1630934646964,2036
1630934646968,2036
1630934646972,2037
1630934646976,2038
1630934646980,2038
1630934646984,2039
1630934646988,2039
1630934646992,2039
1630934646996,2039
1630934647000,2038
1630934647004,2038
1630934647008,2038
1630934647012,2038
1630934647016,2038
1630934647020,2039
1630934647024,2039
1630934647028,2039
1630934647032,2039
1630934647036,2038
1630934647040,2038
1630934647044,2038
1630934647048,2038
1630934647052,2038
1630934647056,2038
1630934647060,2038
1630934647064,2038
1630934647068,2037
1630934647072,2037
1630934647076,2037
1630934647080,2036
1630934647084,2036
1630934647088,2036
1630934647092,2037
1630934647096,2038
1630934647100,2038
1630934647104,2037
1630934647108,2036
1630934647112,2034
1630934647116,2032
1630934647120,2032
1630934647124,2033
1630934647128,2035
1630934647132,2038
1630934647136,2041
1630934647140,2043
1630934647144,2046
1630934647148,2047
1630934647152,2047
1630934647156,2046
1630934647160,2043
1630934647164,2041
1630934647168,2039
1630934647172,2037
1630934647176,2037
1630934647180,2036
1630934647184,2036
1630934647188,2036
1630934647192,2037
1630934647196,2037
1630934647200,2037
1630934647204,2038
1630934647208,2040
1630934647212,2041
1630934647216,2041
1630934647220,2037
1630934647224,2029
1630934647228,2021
1630934647232,2020
1630934647236,2037
1630934647240,2090
1630934647244,2171
1630934647248,2250
1630934647252,2292
1630934647256,2271
1630934647260,2190
1630934647264,2082
1630934647268,1991
1630934647272,1946
1630934647276,1949
1630934647280,1979
1630934647284,2011
1630934647288,2032
1630934647292,2037
1630934647296,2038
1630934647300,2041
1630934647304,2040
1630934647308,2038
1630934647312,2038
1630934647316,2039
1630934647320,2041
1630934647324,2042
1630934647328,2043
1630934647332,2044
1630934647336,2046
1630934647340,2047
1630934647344,2048
1630934647348,2048
1630934647352,2049
1630934647356,2050
1630934647360,2051
1630934647364,2052
1630934647368,2054
1630934647372,2056
1630934647376,2059
1630934647380,2062
1630934647384,2064
1630934647388,2066
1630934647392,2068
1630934647396,2070
1630934647400,2073
1630934647404,2077
1630934647408,2080
1630934647412,2084
1630934647416,2088
1630934647420,2091
1630934647424,2095
1630934647428,2097
1630934647432,2100
1630934647436,2103
1630934647440,2105
1630934647444,2107
1630934647448,2108
1630934647452,2109
1630934647456,2109
1630934647460,2108
1630934647464,2107
1630934647468,2106
1630934647472,2104
1630934647476,2100
1630934647480,2095
1630934647484,2089
1630934647488,2083
1630934647492,2078
1630934647496,2073
1630934647500,2067
1630934647504,2062
1630934647508,2057
1630934647512,2052
1630934647516,2049
1630934647520,2047
1630934647524,2045
1630934647528,2043
1630934647532,2041
1630934647536,2040
1630934647540,2039
1630934647544,2039
1630934647548,2039
1630934647552,2039
1630934647556,2038
1630934647560,2038
1630934647564,2039
1630934647568,2039
1630934647572,2039
1630934647576,2039
1630934647580,2039
1630934647584,2039
1630934647588,2040
1630934647592,2040
1630934647596,2041
1630934647600,2042
1630934647604,2043
1630934647608,2044
1630934647612,2044
1630934647616,2045
1630934647620,2044
1630934647624,2044
1630934647628,2044
1630934647632,2044
1630934647636,2044
1630934647640,2044
1630934647644,2045
1630934647648,2046
1630934647652,2047
1630934647656,2048
1630934647660,2048
1630934647664,2048
1630934647668,2047
1630934647672,2045
1630934647676,2044
1630934647680,2043
1630934647684,2043
1630934647688,2043
1630934647692,2043
1630934647696,2044
1630934647700,2045
1630934647704,2045
1630934647708,2045
1630934647712,2046
1630934647716,2045
1630934647720,2044
1630934647724,2043
1630934647728,2043
1630934647732,2042
1630934647736,2043
1630934647740,2043
1630934647744,2044
1630934647748,2045
1630934647752,2047
1630934647756,2049
1630934647760,2051
1630934647764,2053
1630934647768,2054
1630934647772,2053
1630934647776,2051
1630934647780,2049
1630934647784,2048
1630934647788,2046
1630934647792,2046
1630934647796,2046
1630934647800,2046
1630934647804,2046
1630934647808,2046
1630934647812,2046
1630934647816,2046
1630934647820,2047
1630934647824,2049
1630934647828,2050
1630934647832,2049
1630934647836,2045
1630934647840,2034
1630934647844,2023
1630934647848,2022
1630934647852,2042
1630934647856,2099
1630934647860,2188
1630934647864,2274
1630934647868,2319
1630934647872,2295
1630934647876,2207
1630934647880,2092
1630934647884,1997
1630934647888,1950
1630934647892,1953
1630934647896,1983
1630934647900,2014
1630934647904,2034
1630934647908,2038
1630934647912,2040
1630934647916,2045
1630934647920,2047
1630934647924,2047
1630934647928,2047
1630934647932,2047
1630934647936,2048
1630934647940,2049
1630934647944,2050
1630934647948,2051
1630934647952,2053
1630934647956,2054
1630934647960,2055
1630934647964,2057
1630934647968,2058
1630934647972,2059
1630934647976,2060
1630934647980,2061
1630934647984,2062
1630934647988,2063
1630934647992,2065
1630934647996,2067
1630934648000,2069
1630934648004,2072
1630934648008,2075
1630934648012,2078
1630934648016,2080
1630934648020,2083
1630934648024,2086
1630934648028,2090
1630934648032,2094
1630934648036,2098
1630934648040,2102
1630934648044,2106
1630934648048,2110
1630934648052,2113
1630934648056,2116
1630934648060,2117
1630934648064,2118
1630934648068,2117
1630934648072,2117
1630934648076,2117
1630934648080,2115
1630934648084,2113
1630934648088,2111
1630934648092,2108
1630934648096,2104
1630934648100,2099
1630934648104,2093
1630934648108,2086
1630934648112,2078
1630934648116,2071
1630934648120,2066
1630934648124,2061
1630934648128,2057
1630934648132,2054
1630934648136,2051
1630934648140,2048
1630934648144,2045
1630934648148,2043
1630934648152,2041
1630934648156,2040
1630934648160,2039
1630934648164,2038
1630934648168,2038
1630934648172,2038
1630934648176,2039
1630934648180,2039
1630934648184,2040
1630934648188,2041
1630934648192,2041
1630934648196,2042
1630934648200,2042
1630934648204,2043
1630934648208,2043
1630934648212,2045
1630934648216,2046
1630934648220,2047
1630934648224,2048
1630934648228,2047
1630934648232,2047
1630934648236,2046
1630934648240,2046
1630934648244,2047
1630934648248,2047
1630934648252,2048
1630934648256,2048
1630934648260,2047
1630934648264,2046
1630934648268,2045
1630934648272,2045
1630934648276,2045
1630934648280,2045
1630934648284,2045
1630934648288,2044
1630934648292,2044
1630934648296,2044
1630934648300,2044
1630934648304,2044
1630934648308,2044
1630934648312,2044
1630934648316,2043
1630934648320,2043
1630934648324,2043
1630934648328,2042
1630934648332,2042
1630934648336,2041
1630934648340,2041
1630934648344,2040
1630934648348,2039
1630934648352,2040
1630934648356,2040
1630934648360,2041
1630934648364,2041
1630934648368,2043
1630934648372,2045
1630934648376,2048
1630934648380,2050
1630934648384,2050
1630934648388,2049
1630934648392,2047
1630934648396,2044
1630934648400,2042
1630934648404,2040
1630934648408,2039
1630934648412,2039
1630934648416,2040
1630934648420,2040
1630934648424,2041
1630934648428,2041
1630934648432,2041
1630934648436,2041
1630934648440,2043
1630934648444,2044
1630934648448,2043
1630934648452,2039
1630934648456,2029
1630934648460,2020
1630934648464,2020
1630934648468,2038
1630934648472,2093
1630934648476,2179
1630934648480,2263
1630934648484,2309
1630934648488,2288
1630934648492,2204
1630934648496,2090
1630934648500,1993
1630934648504,1943
1630934648508,1944
1630934648512,1973
1630934648516,2005
1630934648520,2027
1630934648524,2032
1630934648528,2034
1630934648532,2038
1630934648536,2040
1630934648540,2039
1630934648544,2039
1630934648548,2040
1630934648552,2041
1630934648556,2041
1630934648560,2041
1630934648564,2042
1630934648568,2042
1630934648572,2044
1630934648576,2045
1630934648580,2047
1630934648584,2048
1630934648588,2048
1630934648592,2049
1630934648596,2050
1630934648600,2052
1630934648604,2053
1630934648608,2055
1630934648612,2057
1630934648616,2059
1630934648620,2061
1630934648624,2065
1630934648628,2068
1630934648632,2070
1630934648636,2073
1630934648640,2076
1630934648644,2080
1630934648648,2084
1630934648652,2088
1630934648656,2093
1630934648660,2097
1630934648664,2101
1630934648668,2104
1630934648672,2106
1630934648676,2107
1630934648680,2108
1630934648684,2108
1630934648688,2108
1630934648692,2108
1630934648696,2107
1630934648700,2105
1630934648704,2103
1630934648708,2099
1630934648712,2093
1630934648716,2087
1630934648720,2080
1630934648724,2073
1630934648728,2066
1630934648732,2061
1630934648736,2056
1630934648740,2051
1630934648744,2048
1630934648748,2043
1630934648752,2040
1630934648756,2037
1630934648760,2034
1630934648764,2033
1630934648768,2031
1630934648772,2030
1630934648776,2030
1630934648780,2030
1630934648784,2030
1630934648788,2029
1630934648792,2029
1630934648796,2029
1630934648800,2029
1630934648804,2030
1630934648808,2031
1630934648812,2032
1630934648816,2033
1630934648820,2034
1630934648824,2035
1630934648828,2035
1630934648832,2035
1630934648836,2035
1630934648840,2035
1630934648844,2036
1630934648848,2037
1630934648852,2038
1630934648856,2038
1630934648860,2038
1630934648864,2038
1630934648868,2038
1630934648872,2038
1630934648876,2037
1630934648880,2037
1630934648884,2036
1630934648888,2036
1630934648892,2036
1630934648896,2036
1630934648900,2037
1630934648904,2037
1630934648908,2037
1630934648912,2037
1630934648916,2036
1630934648920,2036
1630934648924,2035
1630934648928,2035
1630934648932,2036
1630934648936,2036
1630934648940,2036
1630934648944,2037
1630934648948,2037
1630934648952,2037
1630934648956,2036
1630934648960,2036
1630934648964,2036
1630934648968,2036
1630934648972,2037
1630934648976,2037
1630934648980,2038
1630934648984,2038
1630934648988,2038
1630934648992,2037
1630934648996,2035
1630934649000,2034
1630934649004,2034
1630934649008,2034
1630934649012,2034
1630934649016,2036
1630934649020,2037
1630934649024,2040
1630934649028,2042
1630934649032,2045
1630934649036,2046
1630934649040,2047
1630934649044,2046
1630934649048,2044
1630934649052,2042
1630934649056,2041
1630934649060,2039
1630934649064,2037
1630934649068,2037
1630934649072,2037
1630934649076,2037
1630934649080,2037
1630934649084,2038
1630934649088,2038
1630934649092,2039
1630934649096,2042
1630934649100,2043
1630934649104,2043
1630934649108,2039
1630934649112,2031
1630934649116,2020
1630934649120,2016
1630934649124,2027
1630934649128,2070
1630934649132,2150
1630934649136,2238
1630934649140,2296
1630934649144,2294
1630934649148,2226
1630934649152,2117
1630934649156,2014
1630934649160,1952
1630934649164,1942
1630934649168,1967
1630934649172,2000
1630934649176,2025
1630934649180,2034
1630934649184,2035
1630934649188,2038
1630934649192,2039
1630934649196,2038
1630934649200,2037
1630934649204,2038
1630934649208,2039
1630934649212,2041
1630934649216,2042
1630934649220,2043
1630934649224,2044
1630934649228,2044
1630934649232,2045
1630934649236,2045
1630934649240,2045
1630934649244,2047
1630934649248,2048
1630934649252,2049
1630934649256,2051
1630934649260,2053
1630934649264,2055
1630934649268,2057
1630934649272,2059
1630934649276,2060
1630934649280,2063
1630934649284,2066
1630934649288,2068
1630934649292,2072
1630934649296,2075
1630934649300,2079
1630934649304,2083
1630934649308,2087
1630934649312,2091
1630934649316,2094
1630934649320,2098
1630934649324,2102
1630934649328,2104
1630934649332,2106
1630934649336,2107
1630934649340,2108
1630934649344,2108
1630934649348,2107
1630934649352,2107
1630934649356,2105
1630934649360,2103
1630934649364,2100
1630934649368,2096
1630934649372,2092
1630934649376,2087
1630934649380,2081
1630934649384,2074
1630934649388,2068
1630934649392,2062
1630934649396,2056
1630934649400,2051
1630934649404,2048
1630934649408,2045
1630934649412,2042
1630934649416,2040
1630934649420,2038
1630934649424,2036
1630934649428,2035
1630934649432,2034
1630934649436,2033
1630934649440,2033
1630934649444,2033
1630934649448,2033
1630934649452,2033
1630934649456,2034
1630934649460,2034
1630934649464,2035
1630934649468,2035
1630934649472,2036
1630934649476,2036
1630934649480,2036
1630934649484,2036
1630934649488,2035
1630934649492,2036
1630934649496,2037
1630934649500,2038
1630934649504,2039
1630934649508,2039
1630934649512,2038
1630934649516,2038
1630934649520,2038
1630934649524,2038
1630934649528,2038
1630934649532,2038
1630934649536,2039
1630934649540,2039
1630934649544,2039
1630934649548,2038
1630934649552,2038
1630934649556,2037
1630934649560,2037
1630934649564,2036
1630934649568,2036
1630934649572,2037
1630934649576,2037
1630934649580,2038
1630934649584,2038
1630934649588,2037
1630934649592,2037
1630934649596,2037
1630934649600,2037
1630934649604,2037
1630934649608,2036
1630934649612,2036
1630934649616,2037
1630934649620,2037
1630934649624,2037
1630934649628,2037
1630934649632,2037
1630934649636,2037
1630934649640,2037
1630934649644,2037
1630934649648,2037
1630934649652,2038
1630934649656,2038
1630934649660,2038
1630934649664,2038
1630934649668,2038
1630934649672,2038
1630934649676,2037
1630934649680,2037
1630934649684,2038
1630934649688,2038
1630934649692,2039
1630934649696,2039
1630934649700,2039
1630934649704,2040
1630934649708,2039
1630934649712,2039
1630934649716,2038
1630934649720,2037
1630934649724,2036
1630934649728,2035
1630934649732,2036
1630934649736,2037
1630934649740,2039
1630934649744,2041
1630934649748,2043
1630934649752,2045
1630934649756,2047
1630934649760,2047
1630934649764,2048
1630934649768,2047
1630934649772,2045
1630934649776,2043
1630934649780,2041
1630934649784,2040
1630934649788,2039
1630934649792,2038
1630934649796,2038
1630934649800,2038
1630934649804,2039
1630934649808,2039
1630934649812,2040
1630934649816,2041
1630934649820,2043
1630934649824,2044
1630934649828,2043
1630934649832,2040
1630934649836,2032
1630934649840,2023
1630934649844,2020
1630934649848,2032
1630934649852,2077
1630934649856,2157
1630934649860,2241
1630934649864,2295
1630934649868,2288
1630934649872,2217
1630934649876,2110
1630934649880,2011
1630934649884,1955
1630934649888,1948
1630934649892,1974
1630934649896,2006
1630934649900,2029
1630934649904,2037
1630934649908,2038
1630934649912,2040
1630934649916,2041
1630934649920,2040
1630934649924,2040
1630934649928,2041
1630934649932,2043
1630934649936,2044
1630934649940,2044
1630934649944,2045
1630934649948,2046
1630934649952,2046
1630934649956,2047
1630934649960,2048
1630934649964,2049
1630934649968,2050
1630934649972,2051
1630934649976,2053
1630934649980,2054
1630934649984,2056
1630934649988,2058
1630934649992,2059
1630934649996,2061
1630934650000,2063
1630934650004,2066
1630934650008,2069
1630934650012,2072
1630934650016,2075
1630934650020,2078
1630934650024,2081
1630934650028,2085
1630934650032,2089
1630934650036,2092
1630934650040,2095
1630934650044,2098
1630934650048,2101
1630934650052,2103
1630934650056,2106
1630934650060,2107
1630934650064,2109
1630934650068,2109
1630934650072,2109
1630934650076,2108
1630934650080,2106
1630934650084,2104
1630934650088,2102
1630934650092,2099
1630934650096,2096
1630934650100,2092
1630934650104,2087
1630934650108,2081
1630934650112,2074
1630934650116,2068
1630934650120,2062
1630934650124,2057
1630934650128,2053
1630934650132,2050
1630934650136,2048
1630934650140,2046
1630934650144,2044
1630934650148,2042
1630934650152,2040
1630934650156,2039
1630934650160,2038
1630934650164,2038
1630934650168,2038
1630934650172,2038
1630934650176,2039
1630934650180,2040
1630934650184,2041
1630934650188,2041
1630934650192,2041
1630934650196,2041
1630934650200,2041
1630934650204,2041
1630934650208,2042
1630934650212,2043
1630934650216,2043
1630934650220,2044
1630934650224,2045
1630934650228,2045
1630934650232,2046
1630934650236,2045
1630934650240,2045
1630934650244,2045
1630934650248,2045
1630934650252,2046
1630934650256,2046
1630934650260,2047
1630934650264,2046
1630934650268,2046
1630934650272,2046
1630934650276,2045
1630934650280,2045
1630934650284,2045
1630934650288,2045
1630934650292,2045
1630934650296,2045
1630934650300,2045
1630934650304,2045
1630934650308,2045
1630934650312,2045
1630934650316,2045
1630934650320,2044
1630934650324,2044
1630934650328,2044
1630934650332,2045
1630934650336,2045
1630934650340,2046
1630934650344,2046
1630934650348,2047
1630934650352,2047
1630934650356,2047
1630934650360,2047
1630934650364,2046
1630934650368,2046
1630934650372,2047
1630934650376,2047
1630934650380,2048
1630934650384,2048
1630934650388,2048
1630934650392,2048
1630934650396,2047
1630934650400,2046
1630934650404,2046
1630934650408,2046
1630934650412,2047
1630934650416,2048
1630934650420,2048
1630934650424,2048
1630934650428,2049
1630934650432,2049
1630934650436,2048
1630934650440,2048
1630934650444,2048
1630934650448,2048
1630934650452,2048
1630934650456,2048
1630934650460,2048
1630934650464,2048
1630934650468,2048
1630934650472,2050
1630934650476,2052
1630934650480,2054
1630934650484,2055
1630934650488,2055
1630934650492,2057
1630934650496,2059
1630934650500,2061
1630934650504,2061
1630934650508,2060
1630934650512,2057
1630934650516,2053
1630934650520,2050
1630934650524,2048
1630934650528,2048
1630934650532,2048
1630934650536,2048
1630934650540,2050
1630934650544,2051
1630934650548,2051
1630934650552,2051
1630934650556,2052
1630934650560,2054
1630934650564,2055
1630934650568,2053
1630934650572,2048
1630934650576,2037
1630934650580,2029
1630934650584,2034
1630934650588,2065
1630934650592,2137
1630934650596,2229
1630934650600,2303
1630934650604,2324
1630934650608,2275
1630934650612,2172
1630934650616,2060
1630934650620,1981
1630934650624,1955
1630934650628,1970
1630934650632,2001
1630934650636,2028
1630934650640,2042
1630934650644,2044
1630934650648,2047
1630934650652,2050
1630934650656,2051
1630934650660,2050
1630934650664,2050
1630934650668,2050
1630934650672,2052
1630934650676,2053
1630934650680,2054
1630934650684,2056
1630934650688,2056
1630934650692,2058
1630934650696,2058
1630934650700,2059
1630934650704,2060
1630934650708,2061
1630934650712,2063
1630934650716,2064
1630934650720,2066
1630934650724,2068
1630934650728,2069
1630934650732,2070
1630934650736,2071
1630934650740,2073
1630934650744,2077
1630934650748,2080
1630934650752,2083
1630934650756,2086
1630934650760,2089
1630934650764,2092
1630934650768,2095
1630934650772,2099
1630934650776,2103
1630934650780,2106
1630934650784,2110
1630934650788,2114
1630934650792,2117
1630934650796,2119
1630934650800,2119
1630934650804,2120
1630934650808,2119
1630934650812,2119
1630934650816,2118
1630934650820,2116
1630934650824,2115
1630934650828,2112
1630934650832,2109
1630934650836,2105
1630934650840,2100
1630934650844,2093
1630934650848,2085
1630934650852,2078
1630934650856,2072
1630934650860,2067
1630934650864,2063
1630934650868,2059
1630934650872,2055
1630934650876,2052
1630934650880,2048
1630934650884,2047
1630934650888,2045
1630934650892,2044
1630934650896,2043
1630934650900,2042
1630934650904,2042
1630934650908,2042
1630934650912,2041
1630934650916,2040
1630934650920,2040
1630934650924,2040
1630934650928,2041
1630934650932,2043
1630934650936,2044
1630934650940,2045
1630934650944,2046
1630934650948,2046
1630934650952,2047
1630934650956,2047
1630934650960,2048
1630934650964,2048
1630934650968,2048
1630934650972,2049
1630934650976,2049
1630934650980,2049
1630934650984,2049
1630934650988,2050
1630934650992,2049
1630934650996,2049
1630934651000,2048
1630934651004,2048
1630934651008,2048
1630934651012,2048
1630934651016,2048
1630934651020,2048
1630934651024,2048
1630934651028,2047
1630934651032,2047
1630934651036,2046
1630934651040,2046
1630934651044,2046
1630934651048,2046
1630934651052,2046
1630934651056,2046
1630934651060,2046
1630934651064,2046
1630934651068,2046
1630934651072,2046
1630934651076,2046
1630934651080,2045
1630934651084,2045
1630934651088,2045
1630934651092,2045
1630934651096,2045
1630934651100,2045
1630934651104,2045
1630934651108,2045
1630934651112,2045
1630934651116,2045
1630934651120,2045
1630934651124,2044
1630934651128,2044
1630934651132,2043
1630934651136,2043
1630934651140,2042
1630934651144,2042
1630934651148,2042
1630934651152,2042
1630934651156,2042
1630934651160,2043
1630934651164,2044
1630934651168,2046
1630934651172,2048
1630934651176,2050
1630934651180,2052
1630934651184,2052
1630934651188,2051
1630934651192,2049
1630934651196,2047
1630934651200,2044
1630934651204,2042
1630934651208,2041
1630934651212,2041
1630934651216,2041
1630934651220,2042
1630934651224,2043
1630934651228,2043
1630934651232,2043
1630934651236,2045
1630934651240,2046
1630934651244,2047
1630934651248,2045
1630934651252,2038
1630934651256,2027
1630934651260,2021
1630934651264,2027
1630934651268,2059
1630934651272,2132
1630934651276,2222
1630934651280,2294
1630934651284,2311
1630934651288,2259
1630934651292,2156
1630934651296,2045
1630934651300,1967
1630934651304,1942
1630934651308,1959
1630934651312,1991
1630934651316,2020
1630934651320,2034
1630934651324,2034
1630934651328,2038
1630934651332,2041
1630934651336,2041
1630934651340,2041
1630934651344,2042
1630934651348,2043
1630934651352,2043
1630934651356,2044
1630934651360,2044
1630934651364,2045
1630934651368,2046
1630934651372,2047
1630934651376,2048
1630934651380,2048
1630934651384,2050
1630934651388,2051
1630934651392,2052
1630934651396,2053
1630934651400,2054
1630934651404,2056
1630934651408,2057
1630934651412,2059
1630934651416,2061
1630934651420,2064
1630934651424,2067
1630934651428,2070
1630934651432,2073
1630934651436,2076
1630934651440,2079
1630934651444,2082
1630934651448,2086
1630934651452,2090
1630934651456,2095
1630934651460,2099
1630934651464,2103
1630934651468,2107
1630934651472,2109
1630934651476,2111
1630934651480,2112
1630934651484,2112
1630934651488,2112
1630934651492,2111
1630934651496,2110
1630934651500,2108
1630934651504,2106
1630934651508,2102
1630934651512,2098
1630934651516,2091
1630934651520,2084
1630934651524,2077
1630934651528,2069
1630934651532,2063
1630934651536,2058
1630934651540,2053
1630934651544,2048
1630934651548,2045
1630934651552,2041
1630934651556,2037
1630934651560,2034
1630934651564,2032
1630934651568,2030
1630934651572,2029
1630934651576,2029
1630934651580,2028
1630934651584,2028
1630934651588,2028
1630934651592,2028
1630934651596,2028
1630934651600,2028
1630934651604,2028
1630934651608,2029
1630934651612,2030
1630934651616,2031
1630934651620,2032
1630934651624,2033
1630934651628,2033
1630934651632,2034
1630934651636,2034
1630934651640,2035
1630934651644,2035
1630934651648,2035
1630934651652,2036
1630934651656,2037
1630934651660,2037
1630934651664,2038
1630934651668,2038
1630934651672,2038
1630934651676,2037
1630934651680,2036
1630934651684,2036
1630934651688,2036
1630934651692,2036
1630934651696,2036
1630934651700,2037
1630934651704,2037
1630934651708,2037
1630934651712,2036
1630934651716,2036
1630934651720,2035
1630934651724,2035
1630934651728,2035
1630934651732,2035
1630934651736,2036
1630934651740,2036
1630934651744,2037
1630934651748,2037
1630934651752,2037
1630934651756,2037
1630934651760,2036
1630934651764,2036
1630934651768,2036
1630934651772,2037
1630934651776,2038
1630934651780,2038
1630934651784,2039
1630934651788,2039
1630934651792,2039
1630934651796,2038
1630934651800,2038
1630934651804,2038
1630934651808,2038
1630934651812,2039
1630934651816,2040
1630934651820,2040
1630934651824,2041
1630934651828,2040
1630934651832,2040
1630934651836,2039
1630934651840,2039
1630934651844,2038
1630934651848,2037
1630934651852,2037
1630934651856,2037
1630934651860,2037
1630934651864,2037
1630934651868,2038
1630934651872,2040
1630934651876,2041
1630934651880,2044
1630934651884,2046
1630934651888,2047
1630934651892,2048
1630934651896,2047
1630934651900,2046
1630934651904,2044
1630934651908,2042
1630934651912,2040
1630934651916,2038
1630934651920,2038
1630934651924,2037
1630934651928,2038
1630934651932,2039
1630934651936,2040
1630934651940,2040
1630934651944,2041
1630934651948,2043
1630934651952,2044
1630934651956,2043
1630934651960,2039
1630934651964,2029
1630934651968,2019
1630934651972,2018
1630934651976,2035
1630934651980,2087
1630934651984,2172
1630934651988,2256
1630934651992,2304
1630934651996,2287
1630934652000,2205
1630934652004,2094
1630934652008,1997
1630934652012,1946
1630934652016,1946
1630934652020,1975
1630934652024,2008
1630934652028,2029
1630934652032,2034
1630934652036,2034
1630934652040,2036
1630934652044,2037
1630934652048,2036
1630934652052,2037
1630934652056,2038
1630934652060,2040
1630934652064,2041
1630934652068,2041
1630934652072,2041
1630934652076,2042
1630934652080,2042
1630934652084,2043
1630934652088,2044
1630934652092,2046
1630934652096,2048
1630934652100,2048
1630934652104,2049
1630934652108,2050
1630934652112,2051
1630934652116,2052
1630934652120,2054
1630934652124,2057
1630934652128,2059
1630934652132,2062
1630934652136,2065
1630934652140,2068
1630934652144,2071
1630934652148,2074
1630934652152,2077
1630934652156,2081
1630934652160,2084
1630934652164,2088
1630934652168,2092
1630934652172,2097
1630934652176,2101
1630934652180,2104
1630934652184,2106
1630934652188,2108
1630934652192,2109
1630934652196,2109
1630934652200,2109
1630934652204,2108
1630934652208,2106
1630934652212,2105
1630934652216,2102
1630934652220,2099
1630934652224,2095
1630934652228,2089
1630934652232,2082
1630934652236,2075
1630934652240,2068
1630934652244,2061
1630934652248,2055
1630934652252,2050
1630934652256,2047
1630934652260,2043
1630934652264,2040
1630934652268,2037
1630934652272,2035
1630934652276,2032
1630934652280,2030
1630934652284,2029
1630934652288,2028
1630934652292,2028
1630934652296,2028
1630934652300,2028
1630934652304,2028
1630934652308,2028
1630934652312,2029
1630934652316,2029
1630934652320,2030
1630934652324,2030
1630934652328,2031
1630934652332,2032
1630934652336,2032
1630934652340,2033
1630934652344,2034
1630934652348,2034
1630934652352,2034
1630934652356,2034
1630934652360,2034
1630934652364,2034
1630934652368,2034
1630934652372,2035
1630934652376,2036
1630934652380,2036
1630934652384,2036
1630934652388,2036
1630934652392,2035
1630934652396,2035
1630934652400,2034
1630934652404,2034
1630934652408,2034
1630934652412,2034
1630934652416,2034
1630934652420,2034
1630934652424,2034
1630934652428,2034
1630934652432,2033
1630934652436,2033
1630934652440,2033
1630934652444,2033
1630934652448,2033
1630934652452,2033
1630934652456,2033
1630934652460,2034
1630934652464,2034
1630934652468,2034
1630934652472,2034
1630934652476,2034
1630934652480,2034
1630934652484,2034
1630934652488,2033
1630934652492,2034
1630934652496,2035
1630934652500,2035
1630934652504,2035
1630934652508,2035
1630934652512,2034
1630934652516,2034
1630934652520,2034
1630934652524,2035
1630934652528,2035
1630934652532,2036
1630934652536,2036
1630934652540,2036
1630934652544,2036
1630934652548,2036
1630934652552,2036
1630934652556,2036
1630934652560,2036
1630934652564,2036
1630934652568,2036
1630934652572,2037
1630934652576,2037
1630934652580,2037
1630934652584,2038
1630934652588,2037
1630934652592,2037
1630934652596,2037
1630934652600,2037
1630934652604,2038
1630934652608,2038
1630934652612,2038
1630934652616,2038
1630934652620,2039
1630934652624,2039
1630934652628,2040
1630934652632,2040
1630934652636,2040
1630934652640,2039
1630934652644,2039
1630934652648,2038
1630934652652,2037
1630934652656,2037
1630934652660,2038
1630934652664,2040
1630934652668,2042
1630934652672,2044
1630934652676,2046
1630934652680,2047
1630934652684,2048
1630934652688,2049
1630934652692,2049
1630934652696,2049
1630934652700,2048
1630934652704,2047
1630934652708,2044
1630934652712,2042
1630934652716,2041
1630934652720,2040
1630934652724,2039
1630934652728,2040
1630934652732,2041
1630934652736,2043
1630934652740,2043
1630934652744,2044
1630934652748,2045
1630934652752,2047
1630934652756,2047
1630934652760,2047
1630934652764,2042
1630934652768,2033
1630934652772,2025
1630934652776,2029
1630934652780,2056
1630934652784,2123
1630934652788,2210
1630934652792,2284
1630934652796,2307
1630934652800,2262
1630934652804,2164
1630934652808,2054
1630934652812,1975
1630934652816,1948
1630934652820,1964
1630934652824,1998
1630934652828,2028
1630934652832,2044
1630934652836,2045
1630934652840,2045
1630934652844,2043
1630934652848,2037
1630934652852,2033
1630934652856,2034
1630934652860,2037
1630934652864,2044
1630934652868,2048
1630934652872,2052
1630934652876,2052
1630934652880,2051
1630934652884,2049
1630934652888,2048
1630934652892,2050
1630934652896,2053
1630934652900,2057
1630934652904,2063
1630934652908,2068
1630934652912,2072
1630934652916,2071
1630934652920,2067
1630934652924,2062
1630934652928,2057
1630934652932,2054
1630934652936,2053
1630934652940,2058
1630934652944,2066
1630934652948,2077
1630934652952,2088
1630934652956,2095
1630934652960,2097
1630934652964,2099
1630934652968,2100
1630934652972,2103
1630934652976,2109
1630934652980,2114
1630934652984,2117
1630934652988,2118
1630934652992,2119
1630934652996,2120
1630934653000,2120
1630934653004,2121
1630934653008,2120
1630934653012,2117
1630934653016,2114
1630934653020,2112
1630934653024,2112
1630934653028,2112
1630934653032,2110
1630934653036,2105
1630934653040,2097
1630934653044,2086
1630934653048,2077
1630934653052,2070
1630934653056,2066
1630934653060,2064
1630934653064,2061
1630934653068,2057
1630934653072,2053
1630934653076,2050
1630934653080,2049
1630934653084,2048
1630934653088,2048
1630934653092,2047
1630934653096,2046
1630934653100,2047
1630934653104,2047
1630934653108,2048
1630934653112,2049
1630934653116,2051
1630934653120,2052
1630934653124,2052
1630934653128,2051
1630934653132,2050
1630934653136,2049
1630934653140,2049
1630934653144,2050
1630934653148,2051
1630934653152,2052
1630934653156,2051
1630934653160,2051
1630934653164,2052
1630934653168,2054
1630934653172,2055
1630934653176,2056
1630934653180,2056
1630934653184,2056
1630934653188,2055
1630934653192,2054
1630934653196,2055
1630934653200,2055
1630934653204,2056
1630934653208,2055
1630934653212,2055
1630934653216,2054
1630934653220,2054
1630934653224,2053
1630934653228,2052
1630934653232,2052
1630934653236,2051
1630934653240,2051
1630934653244,2052
1630934653248,2052
1630934653252,2053
1630934653256,2053
1630934653260,2054
1630934653264,2054
1630934653268,2054
1630934653272,2055
1630934653276,2055
1630934653280,2055
1630934653284,2054
1630934653288,2053
1630934653292,2053
1630934653296,2053
1630934653300,2053
1630934653304,2052
1630934653308,2049
1630934653312,2047
1630934653316,2047
1630934653320,2048
1630934653324,2051
1630934653328,2054
1630934653332,2053
1630934653336,2052
1630934653340,2051
1630934653344,2051
1630934653348,2053
1630934653352,2056
1630934653356,2058
1630934653360,2057
1630934653364,2054
1630934653368,2052
1630934653372,2052
1630934653376,2054
1630934653380,2056
1630934653384,2058
1630934653388,2057
1630934653392,2056
1630934653396,2054
1630934653400,2053
1630934653404,2053
1630934653408,2053
1630934653412,2054
1630934653416,2053
1630934653420,2053
1630934653424,2053
1630934653428,2054
1630934653432,2056
1630934653436,2057
1630934653440,2057
1630934653444,2057
1630934653448,2057
1630934653452,2058
1630934653456,2058
1630934653460,2058
1630934653464,2059
1630934653468,2060
1630934653472,2063
1630934653476,2066
1630934653480,2070
1630934653484,2071
1630934653488,2070
1630934653492,2066
1630934653496,2062
1630934653500,2057
1630934653504,2054
1630934653508,2053
1630934653512,2053
1630934653516,2053
1630934653520,2053
1630934653524,2053
1630934653528,2053
1630934653532,2054
1630934653536,2057
1630934653540,2061
1630934653544,2063
1630934653548,2062
1630934653552,2055
1630934653556,2045
1630934653560,2038
1630934653564,2045
1630934653568,2076
1630934653572,2146
1630934653576,2233
1630934653580,2302
1630934653584,2319
1630934653588,2269
1630934653592,2168
1630934653596,2057
1630934653600,1980
1630934653604,1955
1630934653608,1971
1630934653612,2003
1630934653616,2031
1630934653620,2046
1630934653624,2048
1630934653628,2051
1630934653632,2056
1630934653636,2057
1630934653640,2057
1630934653644,2057
1630934653648,2058
1630934653652,2060
1630934653656,2062
1630934653660,2063
1630934653664,2063
1630934653668,2062
1630934653672,2061
1630934653676,2060
1630934653680,2061
1630934653684,2062
1630934653688,2064
1630934653692,2064
1630934653696,2064
1630934653700,2066
1630934653704,2068
1630934653708,2071
1630934653712,2074
1630934653716,2077
1630934653720,2078
1630934653724,2080
1630934653728,2082
1630934653732,2088
1630934653736,2095
1630934653740,2100
1630934653744,2103
1630934653748,2104
1630934653752,2106
1630934653756,2111
1630934653760,2118
1630934653764,2125
1630934653768,2129
1630934653772,2129
1630934653776,2125
1630934653780,2121
1630934653784,2120
1630934653788,2121
1630934653792,2124
1630934653796,2125
1630934653800,2125
1630934653804,2124
1630934653808,2121
1630934653812,2117
1630934653816,2114
1630934653820,2110
1630934653824,2107
1630934653828,2102
1630934653832,2095
1630934653836,2088
1630934653840,2081
1630934653844,2074
1630934653848,2067
1630934653852,2063
1630934653856,2061
1630934653860,2058
1630934653864,2053
1630934653868,2046
1630934653872,2038
1630934653876,2032
1630934653880,2032
1630934653884,2037
1630934653888,2044
1630934653892,2048
1630934653896,2048
1630934653900,2046
1630934653904,2044
1630934653908,2044
1630934653912,2046
1630934653916,2047
1630934653920,2047
1630934653924,2046
1630934653928,2048
1630934653932,2050
1630934653936,2053
1630934653940,2053
1630934653944,2050
1630934653948,2047
1630934653952,2045
1630934653956,2046
1630934653960,2048
1630934653964,2052
1630934653968,2054
1630934653972,2052
1630934653976,2048
1630934653980,2045
1630934653984,2043
1630934653988,2043
1630934653992,2046
1630934653996,2048
1630934654000,2050
1630934654004,2050
1630934654008,2050
1630934654012,2049
1630934654016,2050
1630934654020,2051
1630934654024,2052
1630934654028,2050
1630934654032,2048
1630934654036,2046
1630934654040,2044
1630934654044,2044
1630934654048,2044
1630934654052,2044
1630934654056,2044
1630934654060,2043
1630934654064,2042
1630934654068,2043
1630934654072,2043
1630934654076,2044
1630934654080,2044
1630934654084,2044
1630934654088,2044
1630934654092,2044
1630934654096,2045
1630934654100,2044
1630934654104,2044
1630934654108,2042
1630934654112,2041
1630934654116,2041
1630934654120,2041
1630934654124,2042
1630934654128,2041
1630934654132,2041
1630934654136,2041
1630934654140,2040
1630934654144,2039
1630934654148,2039
1630934654152,2038
1630934654156,2037
1630934654160,2038
1630934654164,2039
1630934654168,2040
1630934654172,2041
1630934654176,2041
1630934654180,2040
1630934654184,2039
1630934654188,2039
1630934654192,2040
1630934654196,2040
1630934654200,2040
1630934654204,2039
1630934654208,2038
1630934654212,2037
1630934654216,2038
1630934654220,2039
1630934654224,2040
1630934654228,2038
1630934654232,2036
1630934654236,2034
1630934654240,2031
1630934654244,2032
1630934654248,2032
1630934654252,2034
1630934654256,2036
1630934654260,2037
1630934654264,2038
1630934654268,2039
1630934654272,2040
1630934654276,2042
1630934654280,2044
1630934654284,2046
1630934654288,2047
1630934654292,2048
1630934654296,2046
1630934654300,2043
1630934654304,2039
1630934654308,2035
1630934654312,2034
1630934654316,2032
1630934654320,2032
1630934654324,2030
1630934654328,2030
1630934654332,2030
1630934654336,2032
1630934654340,2036
1630934654344,2038
1630934654348,2040
1630934654352,2040
1630934654356,2039
1630934654360,2036
1630934654364,2029
1630934654368,2019
1630934654372,2014
1630934654376,2023
1630934654380,2060
1630934654384,2136
1630934654388,2225
1630934654392,2291
1630934654396,2301
1630934654400,2241
1630934654404,2136
1630934654408,2028
1630934654412,1956
1630934654416,1937
1630934654420,1956
1630934654424,1988
1630934654428,2015
1630934654432,2027
1630934654436,2029
1630934654440,2032
1630934654444,2035
1630934654448,2035
1630934654452,2035
1630934654456,2036
1630934654460,2035
1630934654464,2034
1630934654468,2033
1630934654472,2034
1630934654476,2036
1630934654480,2039
1630934654484,2040
1630934654488,2040
1630934654492,2040
1630934654496,2041
1630934654500,2043
1630934654504,2044
1630934654508,2044
1630934654512,2044
1630934654516,2044
1630934654520,2046
1630934654524,2048
1630934654528,2052
1630934654532,2055
1630934654536,2058
1630934654540,2060
1630934654544,2063
1630934654548,2066
1630934654552,2071
1630934654556,2077
1630934654560,2082
1630934654564,2086
1630934654568,2089
1630934654572,2090
1630934654576,2092
1630934654580,2093
1630934654584,2096
1630934654588,2099
1630934654592,2103
1630934654596,2106
1630934654600,2107
1630934654604,2107
1630934654608,2106
1630934654612,2104
1630934654616,2102
1630934654620,2100
1630934654624,2097
1630934654628,2093
1630934654632,2088
1630934654636,2082
1630934654640,2076
1630934654644,2070
1630934654648,2064
1630934654652,2058
1630934654656,2051
1630934654660,2046
1630934654664,2042
1630934654668,2039
1630934654672,2036
1630934654676,2034
1630934654680,2031
1630934654684,2029
1630934654688,2028
1630934654692,2028
1630934654696,2029
1630934654700,2028
1630934654704,2028
1630934654708,2026
1630934654712,2025
1630934654716,2025
1630934654720,2026
1630934654724,2027
1630934654728,2027
1630934654732,2029
1630934654736,2030
1630934654740,2032
1630934654744,2034
1630934654748,2035
1630934654752,2035
1630934654756,2034
1630934654760,2033
1630934654764,2032
1630934654768,2030
1630934654772,2031
1630934654776,2033
1630934654780,2035
1630934654784,2038
1630934654788,2039
1630934654792,2039
1630934654796,2037
1630934654800,2036
1630934654804,2036
1630934654808,2036
1630934654812,2035
1630934654816,2034
1630934654820,2033
1630934654824,2032
1630934654828,2032
1630934654832,2032
1630934654836,2032
1630934654840,2032
1630934654844,2032
1630934654848,2032
1630934654852,2033
1630934654856,2034
1630934654860,2035
1630934654864,2036
1630934654868,2036
1630934654872,2035
1630934654876,2034
1630934654880,2033
1630934654884,2033
1630934654888,2034
1630934654892,2036
1630934654896,2037
1630934654900,2036
1630934654904,2034
1630934654908,2032
1630934654912,2031
1630934654916,2032
1630934654920,2034
1630934654924,2035
1630934654928,2035
1630934654932,2034
1630934654936,2033
1630934654940,2032
1630934654944,2033
1630934654948,2034
1630934654952,2035
1630934654956,2035
1630934654960,2035
1630934654964,2034
1630934654968,2035
1630934654972,2035
1630934654976,2036
1630934654980,2038
1630934654984,2039
1630934654988,2039
1630934654992,2038
1630934654996,2037
1630934655000,2037
1630934655004,2037
1630934655008,2036
1630934655012,2036
1630934655016,2036
1630934655020,2035
1630934655024,2035
1630934655028,2036
1630934655032,2037
1630934655036,2038
1630934655040,2038
1630934655044,2038
1630934655048,2038
1630934655052,2039
1630934655056,2040
1630934655060,2041
1630934655064,2042
1630934655068,2042
1630934655072,2041
1630934655076,2039
1630934655080,2039
1630934655084,2039
1630934655088,2041
1630934655092,2042
1630934655096,2041
1630934655100,2040
1630934655104,2040
1630934655108,2041
1630934655112,2042
1630934655116,2044
1630934655120,2045
1630934655124,2048
1630934655128,2049
1630934655132,2052
1630934655136,2053
1630934655140,2051
1630934655144,2049
1630934655148,2047
1630934655152,2044
1630934655156,2042
1630934655160,2040
1630934655164,2038
1630934655168,2037
1630934655172,2037
1630934655176,2038
1630934655180,2040
1630934655184,2040
1630934655188,2042
1630934655192,2043
1630934655196,2043
1630934655200,2042
1630934655204,2038
1630934655208,2028
1630934655212,2021
1630934655216,2027
1630934655220,2056
1630934655224,2125
1630934655228,2211
1630934655232,2281
1630934655236,2303
1630934655240,2258
1630934655244,2164
1630934655248,2057
1630934655252,1980
1630934655256,1951
1630934655260,1963
1630934655264,1991
1630934655268,2017
1630934655272,2032
1630934655276,2034
1630934655280,2037
1630934655284,2040
1630934655288,2040
1630934655292,2040
1630934655296,2040
1630934655300,2040
1630934655304,2041
1630934655308,2042
1630934655312,2045
1630934655316,2046
1630934655320,2048
1630934655324,2048
1630934655328,2048
1630934655332,2049
1630934655336,2050
1630934655340,2052
1630934655344,2052
1630934655348,2053
1630934655352,2053
1630934655356,2054
1630934655360,2055
1630934655364,2057
1630934655368,2059
1630934655372,2061
1630934655376,2064
1630934655380,2068
1630934655384,2071
1630934655388,2075
1630934655392,2080
1630934655396,2083
1630934655400,2087
1630934655404,2091
1630934655408,2095
1630934655412,2100
1630934655416,2104
1630934655420,2107
1630934655424,2110
1630934655428,2112
1630934655432,2113
1630934655436,2114
1630934655440,2114
1630934655444,2115
1630934655448,2115
1630934655452,2114
1630934655456,2111
1630934655460,2108
1630934655464,2105
1630934655468,2102
1630934655472,2099
1630934655476,2095
1630934655480,2089
1630934655484,2083
1630934655488,2075
1630934655492,2070
1630934655496,2065
1630934655500,2061
1630934655504,2057
1630934655508,2052
1630934655512,2048
1630934655516,2045
1630934655520,2042
1630934655524,2041
1630934655528,2040
1630934655532,2039
1630934655536,2037
1630934655540,2035
1630934655544,2033
1630934655548,2033
1630934655552,2035
1630934655556,2036
1630934655560,2036
1630934655564,2036
1630934655568,2034
1630934655572,2035
1630934655576,2037
1630934655580,2040
1630934655584,2042
1630934655588,2042
1630934655592,2042
1630934655596,2041
1630934655600,2041
1630934655604,2041
1630934655608,2041
1630934655612,2041
1630934655616,2041
1630934655620,2042
1630934655624,2043
1630934655628,2046
1630934655632,2048
1630934655636,2048
1630934655640,2047
1630934655644,2045
1630934655648,2043
1630934655652,2042
1630934655656,2043
1630934655660,2043
1630934655664,2044
1630934655668,2044
1630934655672,2043
1630934655676,2041
1630934655680,2041
1630934655684,2041
1630934655688,2041
1630934655692,2042
1630934655696,2043
1630934655700,2044
1630934655704,2044
1630934655708,2043
1630934655712,2042
1630934655716,2041
1630934655720,2040
1630934655724,2041
1630934655728,2043
1630934655732,2045
1630934655736,2047
1630934655740,2048
1630934655744,2047
1630934655748,2045
1630934655752,2043
1630934655756,2042
1630934655760,2044
1630934655764,2047
1630934655768,2049
1630934655772,2052
1630934655776,2051
1630934655780,2049
1630934655784,2047
1630934655788,2044
1630934655792,2043
1630934655796,2042
1630934655800,2043
1630934655804,2045
1630934655808,2047
1630934655812,2048
1630934655816,2049
1630934655820,2050
1630934655824,2049
1630934655828,2048
1630934655832,2048
1630934655836,2048
1630934655840,2049
1630934655844,2051
1630934655848,2053
1630934655852,2055
1630934655856,2056
1630934655860,2055
1630934655864,2053
1630934655868,2051
1630934655872,2052
1630934655876,2053
1630934655880,2054
1630934655884,2053
1630934655888,2050
1630934655892,2048
1630934655896,2049
1630934655900,2053
1630934655904,2056
1630934655908,2056
1630934655912,2054
1630934655916,2051
1630934655920,2050
1630934655924,2053
1630934655928,2058
1630934655932,2060
1630934655936,2059
1630934655940,2057
1630934655944,2058
1630934655948,2062
1630934655952,2069
1630934655956,2073
1630934655960,2071
1630934655964,2063
1630934655968,2054
1630934655972,2048
1630934655976,2047
1630934655980,2048
1630934655984,2052
1630934655988,2053
1630934655992,2052
1630934655996,2050
1630934656000,2048
1630934656004,2048
1630934656008,2051
1630934656012,2055
1630934656016,2057
1630934656020,2053
1630934656024,2043
1630934656028,2031
1630934656032,2031
1630934656036,2053
1630934656040,2116
1630934656044,2207
1630934656048,2289
1630934656052,2327
1630934656056,2295
1630934656060,2201
1630934656064,2085
1630934656068,1991
1630934656072,1949
1630934656076,1956
1630934656080,1986
1630934656084,2015
1630934656088,2032
1630934656092,2036
1630934656096,2040
1630934656100,2048
1630934656104,2052
1630934656108,2051
1630934656112,2048
1630934656116,2044
1630934656120,2042
1630934656124,2043
1630934656128,2046
1630934656132,2049
1630934656136,2052
1630934656140,2054
1630934656144,2056
1630934656148,2057
1630934656152,2057
1630934656156,2055
1630934656160,2053
1630934656164,2053
1630934656168,2055
1630934656172,2060
1630934656176,2066
1630934656180,2070
1630934656184,2072
1630934656188,2069
1630934656192,2062
1630934656196,2056
1630934656200,2056
1630934656204,2062
1630934656208,2074
1630934656212,2088
1630934656216,2098
1630934656220,2102
1630934656224,2102
1630934656228,2100
1630934656232,2101
1630934656236,2103
1630934656240,2107
1630934656244,2110
1630934656248,2112
1630934656252,2114
1630934656256,2116
1630934656260,2119
1630934656264,2120
1630934656268,2120
1630934656272,2115
1630934656276,2110
1630934656280,2106
1630934656284,2104
1630934656288,2102
1630934656292,2100
1630934656296,2094
1630934656300,2085
1630934656304,2075
1630934656308,2066
1630934656312,2059
1630934656316,2056
1630934656320,2054
1630934656324,2051
1630934656328,2048
1630934656332,2043
1630934656336,2039
1630934656340,2036
1630934656344,2033
1630934656348,2030
1630934656352,2029
1630934656356,2028
1630934656360,2028
1630934656364,2028
1630934656368,2028
1630934656372,2029
1630934656376,2029
1630934656380,2031
1630934656384,2033
1630934656388,2036
1630934656392,2035
1630934656396,2031
1630934656400,2028
1630934656404,2028
1630934656408,2034
1630934656412,2042
1630934656416,2048
1630934656420,2048
1630934656424,2043
1630934656428,2036
1630934656432,2031
1630934656436,2030
1630934656440,2032
1630934656444,2036
1630934656448,2039
1630934656452,2040
1630934656456,2040
1630934656460,2039
1630934656464,2038
1630934656468,2037
1630934656472,2036
1630934656476,2037
1630934656480,2039
1630934656484,2041
1630934656488,2043
1630934656492,2044
1630934656496,2043
1630934656500,2040
1630934656504,2036
1630934656508,2033
1630934656512,2031
1630934656516,2031
1630934656520,2032
1630934656524,2033
1630934656528,2033
1630934656532,2033
1630934656536,2034
1630934656540,2035
1630934656544,2036
1630934656548,2036
1630934656552,2033
1630934656556,2032
1630934656560,2031
1630934656564,2035
1630934656568,2039
1630934656572,2044
1630934656576,2046
1630934656580,2044
1630934656584,2040
1630934656588,2035
1630934656592,2033
1630934656596,2033
1630934656600,2035
1630934656604,2037
1630934656608,2038
1630934656612,2037
1630934656616,2036
1630934656620,2035
1630934656624,2035
1630934656628,2036
1630934656632,2037
1630934656636,2036
1630934656640,2034
1630934656644,2033
1630934656648,2033
1630934656652,2034
1630934656656,2035
1630934656660,2036
1630934656664,2036
1630934656668,2036
1630934656672,2037
1630934656676,2038
1630934656680,2041
1630934656684,2044
1630934656688,2046
1630934656692,2045
1630934656696,2043
1630934656700,2038
1630934656704,2035
1630934656708,2033
1630934656712,2033
1630934656716,2035
1630934656720,2039
1630934656724,2042
1630934656728,2045
1630934656732,2046
1630934656736,2047
1630934656740,2047
1630934656744,2047
1630934656748,2045
1630934656752,2043
1630934656756,2039
1630934656760,2035
1630934656764,2034
1630934656768,2034
1630934656772,2036
1630934656776,2040
1630934656780,2042
1630934656784,2042
1630934656788,2041
1630934656792,2041
1630934656796,2040
1630934656800,2038
1630934656804,2033
1630934656808,2024
1630934656812,2014
1630934656816,2011
1630934656820,2024
1630934656824,2067
1630934656828,2148
1630934656832,2239
1630934656836,2303
1630934656840,2307
1630934656844,2244
1630934656848,2135
1630934656852,2028
1630934656856,1959
1630934656860,1943
1630934656864,1965
1630934656868,1998
1630934656872,2023
1630934656876,2030
1630934656880,2027
1630934656884,2027
1630934656888,2028
1630934656892,2029
1630934656896,2033
1630934656900,2036
1630934656904,2038
1630934656908,2037
1630934656912,2035
1630934656916,2034
1630934656920,2033
1630934656924,2034
1630934656928,2036
1630934656932,2039
1630934656936,2043
1630934656940,2046
1630934656944,2047
1630934656948,2047
1630934656952,2047
1630934656956,2048
1630934656960,2049
1630934656964,2050
1630934656968,2050
1630934656972,2052
1630934656976,2054
1630934656980,2058
1630934656984,2063
1630934656988,2066
1630934656992,2068
1630934656996,2069
1630934657000,2070
1630934657004,2074
1630934657008,2079
1630934657012,2086
1630934657016,2091
1630934657020,2096
1630934657024,2099
1630934657028,2100
1630934657032,2102
1630934657036,2103
1630934657040,2104
1630934657044,2105
1630934657048,2107
1630934657052,2108
1630934657056,2108
1630934657060,2106
1630934657064,2104
1630934657068,2100
1630934657072,2095
1630934657076,2090
1630934657080,2083
1630934657084,2076
1630934657088,2068
1630934657092,2061
1630934657096,2056
1630934657100,2051
1630934657104,2047
1630934657108,2041
1630934657112,2035
1630934657116,2031
1630934657120,2029
1630934657124,2029
1630934657128,2029
1630934657132,2028
1630934657136,2027
1630934657140,2024
1630934657144,2023
1630934657148,2023
1630934657152,2025
1630934657156,2027
1630934657160,2027
1630934657164,2026
1630934657168,2025
1630934657172,2024
1630934657176,2026
1630934657180,2028
1630934657184,2030
1630934657188,2031
1630934657192,2030
1630934657196,2027
1630934657200,2025
1630934657204,2026
1630934657208,2028
1630934657212,2031
1630934657216,2032
1630934657220,2032
1630934657224,2031
1630934657228,2031
1630934657232,2032
1630934657236,2033
1630934657240,2034
1630934657244,2034
1630934657248,2033
1630934657252,2032
1630934657256,2033
1630934657260,2033
1630934657264,2033
1630934657268,2032
1630934657272,2031
1630934657276,2030
1630934657280,2030
1630934657284,2030
1630934657288,2029
1630934657292,2030
1630934657296,2030
1630934657300,2031
1630934657304,2032
1630934657308,2032
1630934657312,2032
1630934657316,2030
1630934657320,2029
1630934657324,2028
1630934657328,2027
1630934657332,2029
1630934657336,2030
1630934657340,2032
1630934657344,2032
1630934657348,2031
1630934657352,2031
1630934657356,2030
1630934657360,2030
1630934657364,2030
1630934657368,2031
1630934657372,2032
1630934657376,2033
1630934657380,2034
1630934657384,2035
1630934657388,2035
1630934657392,2036
1630934657396,2035
1630934657400,2033
1630934657404,2031
1630934657408,2030
1630934657412,2031
1630934657416,2032
1630934657420,2033
1630934657424,2032
1630934657428,2031
1630934657432,2029
1630934657436,2030
1630934657440,2032
1630934657444,2035
1630934657448,2036
1630934657452,2037
1630934657456,2037
1630934657460,2037
1630934657464,2037
1630934657468,2036
1630934657472,2036
1630934657476,2035
1630934657480,2033
1630934657484,2034
1630934657488,2036
1630934657492,2039
1630934657496,2043
1630934657500,2045
1630934657504,2048
1630934657508,2048
1630934657512,2048
1630934657516,2048
1630934657520,2046
1630934657524,2042
1630934657528,2038
1630934657532,2036
1630934657536,2034
1630934657540,2032
1630934657544,2031
1630934657548,2031
1630934657552,2032
1630934657556,2033
1630934657560,2036
1630934657564,2039
1630934657568,2039
1630934657572,2038
1630934657576,2034
1630934657580,2030
1630934657584,2025
1630934657588,2023
1630934657592,2028
1630934657596,2045
1630934657600,2090
1630934657604,2165
1630934657608,2242
1630934657612,2290
1630934657616,2280
1630934657620,2210
1630934657624,2105
1630934657628,2010
1630934657632,1955
1630934657636,1948
1630934657640,1972
1630934657644,2001
1630934657648,2023
1630934657652,2030
1630934657656,2033
1630934657660,2039
1630934657664,2043
1630934657668,2044
1630934657672,2042
1630934657676,2041
1630934657680,2040
1630934657684,2040
1630934657688,2042
1630934657692,2044
1630934657696,2047
1630934657700,2047
1630934657704,2047
1630934657708,2047
1630934657712,2048
1630934657716,2048
1630934657720,2049
1630934657724,2051
1630934657728,2054
1630934657732,2057
1630934657736,2059
1630934657740,2061
1630934657744,2062
1630934657748,2063
1630934657752,2065
1630934657756,2066
1630934657760,2067
1630934657764,2070
1630934657768,2074
1630934657772,2080
1630934657776,2085
1630934657780,2090
1630934657784,2094
1630934657788,2096
1630934657792,2097
1630934657796,2100
1630934657800,2104
1630934657804,2111
1630934657808,2117
1630934657812,2122
1630934657816,2123
1630934657820,2121
1630934657824,2118
1630934657828,2116
1630934657832,2116
1630934657836,2115
1630934657840,2114
1630934657844,2111
1630934657848,2105
1630934657852,2098
1630934657856,2091
1630934657860,2084
1630934657864,2078
1630934657868,2070
1630934657872,2063
1630934657876,2057
1630934657880,2052
1630934657884,2051
1630934657888,2051
1630934657892,2050
1630934657896,2048
1630934657900,2044
1630934657904,2040
1630934657908,2037
1630934657912,2037
1630934657916,2038
1630934657920,2040
1630934657924,2040
1630934657928,2039
1630934657932,2038
1630934657936,2036
1630934657940,2036
1630934657944,2037
1630934657948,2039
1630934657952,2041
1630934657956,2042
1630934657960,2041
1630934657964,2038
1630934657968,2037
1630934657972,2038
1630934657976,2041
1630934657980,2045
1630934657984,2048
1630934657988,2048
1630934657992,2047
1630934657996,2045
1630934658000,2045
1630934658004,2046
1630934658008,2047
1630934658012,2048
1630934658016,2048
1630934658020,2047
1630934658024,2047
1630934658028,2048
1630934658032,2048
1630934658036,2047
1630934658040,2046
1630934658044,2044
1630934658048,2043
1630934658052,2044
1630934658056,2045
1630934658060,2046
1630934658064,2048
1630934658068,2048
1630934658072,2048
1630934658076,2048
1630934658080,2046
1630934658084,2045
1630934658088,2044
1630934658092,2045
1630934658096,2048
1630934658100,2049
1630934658104,2050
1630934658108,2050
1630934658112,2048
1630934658116,2046
1630934658120,2044
1630934658124,2044
1630934658128,2045
1630934658132,2048
1630934658136,2050
1630934658140,2053
1630934658144,2054
1630934658148,2052
1630934658152,2048
1630934658156,2045
1630934658160,2045
1630934658164,2047
1630934658168,2049
1630934658172,2051
1630934658176,2051
1630934658180,2048
1630934658184,2048
1630934658188,2048
1630934658192,2050
1630934658196,2053
1630934658200,2056
1630934658204,2057
1630934658208,2056
1630934658212,2054
1630934658216,2053
1630934658220,2053
1630934658224,2056
1630934658228,2058
1630934658232,2060
1630934658236,2059
1630934658240,2057
1630934658244,2055
1630934658248,2055
1630934658252,2058
1630934658256,2063
1630934658260,2066
1630934658264,2065
1630934658268,2061
1630934658272,2057
1630934658276,2053
1630934658280,2052
1630934658284,2051
1630934658288,2050
1630934658292,2050
1630934658296,2051
1630934658300,2053
1630934658304,2057
1630934658308,2060
1630934658312,2062
1630934658316,2061
1630934658320,2058
1630934658324,2053
1630934658328,2047
1630934658332,2038
1630934658336,2034
1630934658340,2042
1630934658344,2073
1630934658348,2142
1630934658352,2230
1630934658356,2301
1630934658360,2320
1630934658364,2268
1630934658368,2165
1630934658372,2053
1630934658376,1976
1630934658380,1952
1630934658384,1970
1630934658388,2004
1630934658392,2031
1630934658396,2045
1630934658400,2047
1630934658404,2051
1630934658408,2056
1630934658412,2059
1630934658416,2059
1630934658420,2057
1630934658424,2056
1630934658428,2054
1630934658432,2053
1630934658436,2053
1630934658440,2054
1630934658444,2058
1630934658448,2060
1630934658452,2060
1630934658456,2061
1630934658460,2062
1630934658464,2064
1630934658468,2068
1630934658472,2072
1630934658476,2074
1630934658480,2074
1630934658484,2072
1630934658488,2071
1630934658492,2072
1630934658496,2075
1630934658500,2081
1630934658504,2086
1630934658508,2090
1630934658512,2093
1630934658516,2095
1630934658520,2096
1630934658524,2097
1630934658528,2100
1630934658532,2105
1630934658536,2111
1630934658540,2117
1630934658544,2121
1630934658548,2124
1630934658552,2127
1630934658556,2128
1630934658560,2129
1630934658564,2131
1630934658568,2134
1630934658572,2137
1630934658576,2137
1630934658580,2135
1630934658584,2129
1630934658588,2121
1630934658592,2112
1630934658596,2104
1630934658600,2096
1630934658604,2090
1630934658608,2084
1630934658612,2079
1630934658616,2075
1630934658620,2070
1630934658624,2066
1630934658628,2060
1630934658632,2054
1630934658636,2049
1630934658640,2046
1630934658644,2043
1630934658648,2042
1630934658652,2041
1630934658656,2041
1630934658660,2040
1630934658664,2038
1630934658668,2036
1630934658672,2035
1630934658676,2035
1630934658680,2036
1630934658684,2038
1630934658688,2039
1630934658692,2039
1630934658696,2040
1630934658700,2040
1630934658704,2041
1630934658708,2041
1630934658712,2042
1630934658716,2042
1630934658720,2042
1630934658724,2043
1630934658728,2043
1630934658732,2044
1630934658736,2044
1630934658740,2044
1630934658744,2045
1630934658748,2045
1630934658752,2045
1630934658756,2044
1630934658760,2044
1630934658764,2044
1630934658768,2043
1630934658772,2043
1630934658776,2043
1630934658780,2043
1630934658784,2043
1630934658788,2042
1630934658792,2042
1630934658796,2041
1630934658800,2040
1630934658804,2040
1630934658808,2040
1630934658812,2041
1630934658816,2041
1630934658820,2040
1630934658824,2040
1630934658828,2039
1630934658832,2039
1630934658836,2038
1630934658840,2037
1630934658844,2038
1630934658848,2038
1630934658852,2038
1630934658856,2038
1630934658860,2038
1630934658864,2038
1630934658868,2038
1630934658872,2038
1630934658876,2037
1630934658880,2037
1630934658884,2037
1630934658888,2036
1630934658892,2037
1630934658896,2037
1630934658900,2037
1630934658904,2037
1630934658908,2037
1630934658912,2037
1630934658916,2037
1630934658920,2036
1630934658924,2036
1630934658928,2036
1630934658932,2036
1630934658936,2037
1630934658940,2037
1630934658944,2036
1630934658948,2036
1630934658952,2036
1630934658956,2036
1630934658960,2036
1630934658964,2036
1630934658968,2036
1630934658972,2036
1630934658976,2036
1630934658980,2035
1630934658984,2034
1630934658988,2034
1630934658992,2033
1630934658996,2034
1630934659000,2035
1630934659004,2038
1630934659008,2040
1630934659012,2043
1630934659016,2045
1630934659020,2046
1630934659024,2046
1630934659028,2045
1630934659032,2042
1630934659036,2039
1630934659040,2036
1630934659044,2034
1630934659048,2033
1630934659052,2033
1630934659056,2033
1630934659060,2034
1630934659064,2034
1630934659068,2035
1630934659072,2035
1630934659076,2035
1630934659080,2036
1630934659084,2037
1630934659088,2037
1630934659092,2036
1630934659096,2030
1630934659100,2020
1630934659104,2016
1630934659108,2024
1630934659112,2060
1630934659116,2132
1630934659120,2218
1630934659124,2283
1630934659128,2295
1630934659132,2241
1630934659136,2140
1630934659140,2035
1630934659144,1962
1630934659148,1941
1630934659152,1958
1630934659156,1989
1630934659160,2015
1630934659164,2028
1630934659168,2029
1630934659172,2031
1630934659176,2033
1630934659180,2033
1630934659184,2033
1630934659188,2034
1630934659192,2035
1630934659196,2036
1630934659200,2036
1630934659204,2037
1630934659208,2037
1630934659212,2038
1630934659216,2040
1630934659220,2041
1630934659224,2042
1630934659228,2043
1630934659232,2044
1630934659236,2045
1630934659240,2046
1630934659244,2047
1630934659248,2048
1630934659252,2050
1630934659256,2052
1630934659260,2054
1630934659264,2056
1630934659268,2059
1630934659272,2061
1630934659276,2063
1630934659280,2067
1630934659284,2070
1630934659288,2073
1630934659292,2077
1630934659296,2082
1630934659300,2086
1630934659304,2090
1630934659308,2094
1630934659312,2098
1630934659316,2101
1630934659320,2104
1630934659324,2106
1630934659328,2107
1630934659332,2108
1630934659336,2108
1630934659340,2108
1630934659344,2107
1630934659348,2105
1630934659352,2103
1630934659356,2099
1630934659360,2094
1630934659364,2088
1630934659368,2083
1630934659372,2077
1630934659376,2070
1630934659380,2064
1630934659384,2058
1630934659388,2053
1630934659392,2048
1630934659396,2044
1630934659400,2041
1630934659404,2037
1630934659408,2035
1630934659412,2033
1630934659416,2031
1630934659420,2030
1630934659424,2029
1630934659428,2028
1630934659432,2028
1630934659436,2027
1630934659440,2027
1630934659444,2027
1630934659448,2027
1630934659452,2028
1630934659456,2029
1630934659460,2029
1630934659464,2030
1630934659468,2031
1630934659472,2031
1630934659476,2032
1630934659480,2032
1630934659484,2032
1630934659488,2032
1630934659492,2033
1630934659496,2034
1630934659500,2035
1630934659504,2035
1630934659508,2035
1630934659512,2035
1630934659516,2035
1630934659520,2035
1630934659524,2035
1630934659528,2035
1630934659532,2035
1630934659536,2036
1630934659540,2035
1630934659544,2036
1630934659548,2035
1630934659552,2035
1630934659556,2034
1630934659560,2033
1630934659564,2033
1630934659568,2033
1630934659572,2034
1630934659576,2034
1630934659580,2034
1630934659584,2034
1630934659588,2034
1630934659592,2034
1630934659596,2034
1630934659600,2034
1630934659604,2034
1630934659608,2034
1630934659612,2034
1630934659616,2035
1630934659620,2035
1630934659624,2035
1630934659628,2035
1630934659632,2035
1630934659636,2034
1630934659640,2034
1630934659644,2034
1630934659648,2035
1630934659652,2035
1630934659656,2036
1630934659660,2036
1630934659664,2036
1630934659668,2036
1630934659672,2035
1630934659676,2034
1630934659680,2034
1630934659684,2035
1630934659688,2035
1630934659692,2036
1630934659696,2037
1630934659700,2037
1630934659704,2037
1630934659708,2037
1630934659712,2036
1630934659716,2035
1630934659720,2035
1630934659724,2035
1630934659728,2036
1630934659732,2038
1630934659736,2040
1630934659740,2042
1630934659744,2045
1630934659748,2047
1630934659752,2048
1630934659756,2048
1630934659760,2048
1630934659764,2046
1630934659768,2043
1630934659772,2041
1630934659776,2039
1630934659780,2038
1630934659784,2037
1630934659788,2036
1630934659792,2036
1630934659796,2036
1630934659800,2036
1630934659804,2036
1630934659808,2037
1630934659812,2037
1630934659816,2039
1630934659820,2041
1630934659824,2042
1630934659828,2040
1630934659832,2035
1630934659836,2026
1630934659840,2020
1630934659844,2027
1630934659848,2055
1630934659852,2119
1630934659856,2200
1630934659860,2266
1630934659864,2287
1630934659868,2244
1630934659872,2153
1630934659876,2049
1630934659880,1974
1630934659884,1946
1630934659888,1959
1630934659892,1989
1630934659896,2017
1630934659900,2033
1630934659904,2035
1630934659908,2037
1630934659912,2039
1630934659916,2038
1630934659920,2038
1630934659924,2038
1630934659928,2040
1630934659932,2041
1630934659936,2043
1630934659940,2044
1630934659944,2045
1630934659948,2046
1630934659952,2046
1630934659956,2047
1630934659960,2047
1630934659964,2048
1630934659968,2048
1630934659972,2049
1630934659976,2051
1630934659980,2053
1630934659984,2056
1630934659988,2058
1630934659992,2060
1630934659996,2061
1630934660000,2063
1630934660004,2065
1630934660008,2067
1630934660012,2070
1630934660016,2074
1630934660020,2078
1630934660024,2082
1630934660028,2086
1630934660032,2090
1630934660036,2094
1630934660040,2098
1630934660044,2102
1630934660048,2106
1630934660052,2109
1630934660056,2112
1630934660060,2114
1630934660064,2116
1630934660068,2117
1630934660072,2118
1630934660076,2118
1630934660080,2117
1630934660084,2115
1630934660088,2113
1630934660092,2110
1630934660096,2106
1630934660100,2101
1630934660104,2094
1630934660108,2087
1630934660112,2080
1630934660116,2073
1630934660120,2067
1630934660124,2062
1630934660128,2058
1630934660132,2054
1630934660136,2051
1630934660140,2048
1630934660144,2046
1630934660148,2043
1630934660152,2041
1630934660156,2038
1630934660160,2037
1630934660164,2037
1630934660168,2037
1630934660172,2038
1630934660176,2039
1630934660180,2039
1630934660184,2040
1630934660188,2040
1630934660192,2040
1630934660196,2039
1630934660200,2039
1630934660204,2039
1630934660208,2040
1630934660212,2041
1630934660216,2042
1630934660220,2043
1630934660224,2043
1630934660228,2043
1630934660232,2044
1630934660236,2044
1630934660240,2044
1630934660244,2045
1630934660248,2044
1630934660252,2045
1630934660256,2045
1630934660260,2045
1630934660264,2045
1630934660268,2044
1630934660272,2044
1630934660276,2044
1630934660280,2045
1630934660284,2046
1630934660288,2047
1630934660292,2047
1630934660296,2048
1630934660300,2047
1630934660304,2046
1630934660308,2045
1630934660312,2045
1630934660316,2044
1630934660320,2045
1630934660324,2045
1630934660328,2045
1630934660332,2046
1630934660336,2046
1630934660340,2047
1630934660344,2047
1630934660348,2047
1630934660352,2047
1630934660356,2046
1630934660360,2045
1630934660364,2044
1630934660368,2045
1630934660372,2045
1630934660376,2046
1630934660380,2046
1630934660384,2046
1630934660388,2047
1630934660392,2047
1630934660396,2047
1630934660400,2047
1630934660404,2047
1630934660408,2048
1630934660412,2048
1630934660416,2048
1630934660420,2048
1630934660424,2048
1630934660428,2048
1630934660432,2048
1630934660436,2048
1630934660440,2048
