timestamp,ecg_waveform
1629880721620,2045
1629880721624,2046
1629880721628,2047
1629880721632,2047
1629880721636,2047
1629880721640,2047
1629880721644,2048
1629880721648,2048
1629880721652,2048
1629880721656,2049
1629880721660,2051
1629880721664,2052
1629880721668,2053
1629880721672,2053
1629880721676,2054
1629880721680,2055
1629880721684,2056
1629880721688,2057
1629880721692,2059
1629880721696,2061
1629880721700,2063
1629880721704,2065
1629880721708,2067
1629880721712,2068
1629880721716,2070
1629880721720,2071
1629880721724,2072
1629880721728,2074
1629880721732,2077
1629880721736,2079
1629880721740,2082
1629880721744,2084
1629880721748,2086
1629880721752,2087
1629880721756,2088
1629880721760,2089
1629880721764,2089
1629880721768,2089
1629880721772,2089
1629880721776,2088
1629880721780,2088
1629880721784,2087
1629880721788,2085
1629880721792,2083
1629880721796,2080
1629880721800,2076
1629880721804,2072
1629880721808,2068
1629880721812,2064
1629880721816,2060
1629880721820,2057
1629880721824,2055
1629880721828,2052
1629880721832,2050
1629880721836,2048
1629880721840,2047
1629880721844,2045
1629880721848,2044
1629880721852,2043
1629880721856,2043
1629880721860,2043
1629880721864,2043
1629880721868,2043
1629880721872,2043
1629880721876,2042
1629880721880,2042
1629880721884,2042
1629880721888,2041
1629880721892,2041
1629880721896,2041
1629880721900,2041
1629880721904,2042
1629880721908,2042
1629880721912,2043
1629880721916,2043
1629880721920,2043
1629880721924,2043
1629880721928,2042
1629880721932,2042
1629880721936,2042
1629880721940,2042
1629880721944,2043
1629880721948,2044
1629880721952,2045
1629880721956,2045
1629880721960,2044
1629880721964,2044
1629880721968,2043
1629880721972,2043
1629880721976,2044
1629880721980,2044
1629880721984,2045
1629880721988,2045
1629880721992,2045
1629880721996,2044
1629880722000,2044
1629880722004,2043
1629880722008,2043
1629880722012,2043
1629880722016,2043
1629880722020,2043
1629880722024,2044
1629880722028,2044
1629880722032,2044
1629880722036,2043
1629880722040,2043
1629880722044,2042
1629880722048,2042
1629880722052,2042
1629880722056,2041
1629880722060,2042
1629880722064,2042
1629880722068,2042
1629880722072,2043
1629880722076,2043
1629880722080,2043
1629880722084,2043
1629880722088,2042
1629880722092,2042
1629880722096,2042
1629880722100,2043
1629880722104,2043
1629880722108,2044
1629880722112,2044
1629880722116,2044
1629880722120,2043
1629880722124,2042
1629880722128,2042
1629880722132,2042
1629880722136,2043
1629880722140,2043
1629880722144,2043
1629880722148,2043
1629880722152,2043
1629880722156,2043
1629880722160,2043
1629880722164,2043
1629880722168,2043
1629880722172,2043
1629880722176,2043
1629880722180,2043
1629880722184,2043
1629880722188,2043
1629880722192,2044
1629880722196,2044
1629880722200,2044
1629880722204,2044
1629880722208,2042
1629880722212,2041
1629880722216,2040
1629880722220,2040
1629880722224,2040
1629880722228,2041
1629880722232,2042
1629880722236,2042
1629880722240,2043
1629880722244,2045
1629880722248,2048
1629880722252,2052
1629880722256,2055
1629880722260,2057
1629880722264,2057
1629880722268,2055
1629880722272,2052
1629880722276,2049
1629880722280,2048
1629880722284,2047
1629880722288,2046
1629880722292,2046
1629880722296,2045
1629880722300,2046
1629880722304,2047
1629880722308,2048
1629880722312,2048
1629880722316,2047
1629880722320,2045
1629880722324,2042
1629880722328,2042
1629880722332,2052
1629880722336,2080
1629880722340,2130
1629880722344,2193
1629880722348,2248
1629880722352,2271
1629880722356,2249
1629880722360,2187
1629880722364,2109
1629880722368,2046
1629880722372,2012
1629880722376,2011
1629880722380,2026
1629880722384,2043
1629880722388,2051
1629880722392,2052
1629880722396,2049
1629880722400,2048
1629880722404,2046
1629880722408,2045
1629880722412,2045
1629880722416,2045
1629880722420,2045
1629880722424,2046
1629880722428,2046
1629880722432,2047
1629880722436,2047
1629880722440,2047
1629880722444,2047
1629880722448,2047
1629880722452,2047
1629880722456,2047
1629880722460,2047
1629880722464,2047
1629880722468,2048
1629880722472,2048
1629880722476,2048
1629880722480,2049
1629880722484,2049
1629880722488,2049
1629880722492,2050
1629880722496,2050
1629880722500,2051
1629880722504,2052
1629880722508,2053
1629880722512,2054
1629880722516,2055
1629880722520,2056
1629880722524,2057
1629880722528,2058
1629880722532,2059
1629880722536,2060
1629880722540,2061
1629880722544,2063
1629880722548,2064
1629880722552,2065
1629880722556,2067
1629880722560,2069
1629880722564,2070
1629880722568,2072
1629880722572,2073
1629880722576,2075
1629880722580,2077
1629880722584,2079
1629880722588,2082
1629880722592,2084
1629880722596,2086
1629880722600,2087
1629880722604,2087
1629880722608,2088
1629880722612,2089
1629880722616,2089
1629880722620,2090
1629880722624,2091
1629880722628,2091
1629880722632,2091
1629880722636,2090
1629880722640,2088
1629880722644,2086
1629880722648,2083
1629880722652,2080
1629880722656,2076
1629880722660,2073
1629880722664,2069
1629880722668,2066
1629880722672,2062
1629880722676,2058
1629880722680,2055
1629880722684,2052
1629880722688,2049
1629880722692,2048
1629880722696,2046
1629880722700,2045
1629880722704,2044
1629880722708,2043
1629880722712,2042
1629880722716,2042
1629880722720,2041
1629880722724,2041
1629880722728,2040
1629880722732,2040
1629880722736,2040
1629880722740,2041
1629880722744,2042
1629880722748,2042
1629880722752,2042
1629880722756,2042
1629880722760,2041
1629880722764,2041
1629880722768,2041
1629880722772,2042
1629880722776,2042
1629880722780,2043
1629880722784,2044
1629880722788,2044
1629880722792,2044
1629880722796,2044
1629880722800,2045
1629880722804,2044
1629880722808,2044
1629880722812,2044
1629880722816,2044
1629880722820,2044
1629880722824,2044
1629880722828,2045
1629880722832,2045
1629880722836,2045
1629880722840,2045
1629880722844,2044
1629880722848,2044
1629880722852,2043
1629880722856,2043
1629880722860,2043
1629880722864,2043
1629880722868,2043
1629880722872,2043
1629880722876,2043
1629880722880,2043
1629880722884,2042
1629880722888,2042
1629880722892,2041
1629880722896,2041
1629880722900,2041
1629880722904,2042
1629880722908,2042
1629880722912,2043
1629880722916,2043
1629880722920,2042
1629880722924,2042
1629880722928,2041
1629880722932,2041
1629880722936,2041
1629880722940,2041
1629880722944,2042
1629880722948,2042
1629880722952,2043
1629880722956,2042
1629880722960,2042
1629880722964,2041
1629880722968,2041
1629880722972,2041
1629880722976,2041
1629880722980,2041
1629880722984,2041
1629880722988,2042
1629880722992,2042
1629880722996,2042
1629880723000,2042
1629880723004,2042
1629880723008,2042
1629880723012,2042
1629880723016,2042
1629880723020,2042
1629880723024,2042
1629880723028,2043
1629880723032,2043
1629880723036,2043
1629880723040,2042
1629880723044,2042
1629880723048,2042
1629880723052,2042
1629880723056,2043
1629880723060,2043
1629880723064,2043
1629880723068,2043
1629880723072,2044
1629880723076,2044
1629880723080,2044
1629880723084,2044
1629880723088,2043
1629880723092,2043
1629880723096,2044
1629880723100,2044
1629880723104,2044
1629880723108,2044
1629880723112,2043
1629880723116,2042
1629880723120,2041
1629880723124,2042
1629880723128,2042
1629880723132,2043
1629880723136,2045
1629880723140,2048
1629880723144,2051
1629880723148,2055
1629880723152,2058
1629880723156,2059
1629880723160,2058
1629880723164,2054
1629880723168,2050
1629880723172,2048
1629880723176,2047
1629880723180,2047
1629880723184,2047
1629880723188,2047
1629880723192,2047
1629880723196,2047
1629880723200,2048
1629880723204,2048
1629880723208,2047
1629880723212,2045
1629880723216,2042
1629880723220,2041
1629880723224,2046
1629880723228,2064
1629880723232,2104
1629880723236,2161
1629880723240,2218
1629880723244,2254
1629880723248,2249
1629880723252,2200
1629880723256,2127
1629880723260,2057
1629880723264,2013
1629880723268,2001
1629880723272,2014
1629880723276,2033
1629880723280,2046
1629880723284,2049
1629880723288,2048
1629880723292,2046
1629880723296,2044
1629880723300,2044
1629880723304,2043
1629880723308,2043
1629880723312,2043
1629880723316,2043
1629880723320,2043
1629880723324,2043
1629880723328,2044
1629880723332,2044
1629880723336,2045
1629880723340,2045
1629880723344,2046
1629880723348,2047
1629880723352,2047
1629880723356,2047
1629880723360,2047
1629880723364,2047
1629880723368,2047
1629880723372,2047
1629880723376,2048
1629880723380,2048
1629880723384,2048
1629880723388,2049
1629880723392,2050
1629880723396,2050
1629880723400,2051
1629880723404,2052
1629880723408,2053
1629880723412,2054
1629880723416,2055
1629880723420,2056
1629880723424,2058
1629880723428,2059
1629880723432,2061
1629880723436,2062
1629880723440,2063
1629880723444,2063
1629880723448,2064
1629880723452,2065
1629880723456,2067
1629880723460,2069
1629880723464,2071
1629880723468,2074
1629880723472,2076
1629880723476,2078
1629880723480,2079
1629880723484,2081
1629880723488,2082
1629880723492,2083
1629880723496,2084
1629880723500,2085
1629880723504,2086
1629880723508,2087
1629880723512,2087
1629880723516,2088
1629880723520,2088
1629880723524,2088
1629880723528,2087
1629880723532,2086
1629880723536,2084
1629880723540,2081
1629880723544,2079
1629880723548,2076
1629880723552,2073
1629880723556,2069
1629880723560,2065
1629880723564,2061
1629880723568,2058
1629880723572,2055
1629880723576,2052
1629880723580,2050
1629880723584,2048
1629880723588,2047
1629880723592,2046
1629880723596,2044
1629880723600,2042
1629880723604,2041
1629880723608,2039
1629880723612,2039
1629880723616,2038
1629880723620,2038
1629880723624,2039
1629880723628,2039
1629880723632,2039
1629880723636,2040
1629880723640,2040
1629880723644,2040
1629880723648,2040
1629880723652,2041
1629880723656,2041
1629880723660,2042
1629880723664,2042
1629880723668,2043
1629880723672,2044
1629880723676,2044
1629880723680,2044
1629880723684,2044
1629880723688,2044
1629880723692,2043
1629880723696,2043
1629880723700,2044
1629880723704,2044
1629880723708,2044
1629880723712,2045
1629880723716,2045
1629880723720,2044
1629880723724,2044
1629880723728,2043
1629880723732,2042
1629880723736,2042
1629880723740,2042
1629880723744,2042
1629880723748,2042
1629880723752,2042
1629880723756,2042
1629880723760,2042
1629880723764,2041
1629880723768,2040
1629880723772,2039
1629880723776,2039
1629880723780,2040
1629880723784,2040
1629880723788,2040
1629880723792,2040
1629880723796,2040
1629880723800,2039
1629880723804,2039
1629880723808,2039
1629880723812,2039
1629880723816,2039
1629880723820,2039
1629880723824,2039
1629880723828,2039
1629880723832,2040
1629880723836,2039
1629880723840,2039
1629880723844,2039
1629880723848,2038
1629880723852,2038
1629880723856,2038
1629880723860,2039
1629880723864,2039
1629880723868,2040
1629880723872,2040
1629880723876,2040
1629880723880,2040
1629880723884,2040
1629880723888,2039
1629880723892,2039
1629880723896,2039
1629880723900,2040
1629880723904,2041
1629880723908,2041
1629880723912,2041
1629880723916,2041
1629880723920,2041
1629880723924,2040
1629880723928,2040
1629880723932,2040
1629880723936,2040
1629880723940,2041
1629880723944,2042
1629880723948,2042
1629880723952,2042
1629880723956,2041
1629880723960,2040
1629880723964,2039
1629880723968,2038
1629880723972,2039
1629880723976,2040
1629880723980,2041
1629880723984,2043
1629880723988,2046
1629880723992,2048
1629880723996,2051
1629880724000,2054
1629880724004,2056
1629880724008,2054
1629880724012,2052
1629880724016,2048
1629880724020,2047
1629880724024,2045
1629880724028,2045
1629880724032,2045
1629880724036,2045
1629880724040,2044
1629880724044,2044
1629880724048,2044
1629880724052,2045
1629880724056,2045
1629880724060,2043
1629880724064,2042
1629880724068,2040
1629880724072,2042
1629880724076,2057
1629880724080,2092
1629880724084,2146
1629880724088,2204
1629880724092,2244
1629880724096,2246
1629880724100,2203
1629880724104,2133
1629880724108,2061
1629880724112,2013
1629880724116,1996
1629880724120,2006
1629880724124,2025
1629880724128,2041
1629880724132,2048
1629880724136,2048
1629880724140,2047
1629880724144,2046
1629880724148,2045
1629880724152,2045
1629880724156,2045
1629880724160,2045
1629880724164,2044
1629880724168,2044
1629880724172,2044
1629880724176,2045
1629880724180,2045
1629880724184,2046
1629880724188,2046
1629880724192,2047
1629880724196,2047
1629880724200,2047
1629880724204,2047
1629880724208,2047
1629880724212,2048
1629880724216,2048
1629880724220,2049
1629880724224,2050
1629880724228,2050
1629880724232,2051
1629880724236,2051
1629880724240,2051
1629880724244,2052
1629880724248,2052
1629880724252,2053
1629880724256,2054
1629880724260,2055
1629880724264,2056
1629880724268,2058
1629880724272,2059
1629880724276,2061
1629880724280,2062
1629880724284,2063
1629880724288,2064
1629880724292,2066
1629880724296,2067
1629880724300,2069
1629880724304,2071
1629880724308,2073
1629880724312,2075
1629880724316,2077
1629880724320,2079
1629880724324,2080
1629880724328,2082
1629880724332,2083
1629880724336,2085
1629880724340,2086
1629880724344,2088
1629880724348,2089
1629880724352,2089
1629880724356,2089
1629880724360,2089
1629880724364,2089
1629880724368,2088
1629880724372,2088
1629880724376,2087
1629880724380,2087
1629880724384,2086
1629880724388,2084
1629880724392,2082
1629880724396,2078
1629880724400,2075
1629880724404,2070
1629880724408,2066
1629880724412,2062
1629880724416,2059
1629880724420,2056
1629880724424,2053
1629880724428,2051
1629880724432,2048
1629880724436,2047
1629880724440,2045
1629880724444,2043
1629880724448,2041
1629880724452,2040
1629880724456,2039
1629880724460,2039
1629880724464,2039
1629880724468,2040
1629880724472,2040
1629880724476,2040
1629880724480,2040
1629880724484,2040
1629880724488,2040
1629880724492,2040
1629880724496,2041
1629880724500,2042
1629880724504,2043
1629880724508,2043
1629880724512,2044
1629880724516,2044
1629880724520,2044
1629880724524,2044
1629880724528,2044
1629880724532,2044
1629880724536,2044
1629880724540,2044
1629880724544,2045
1629880724548,2045
1629880724552,2045
1629880724556,2045
1629880724560,2045
1629880724564,2044
1629880724568,2044
1629880724572,2043
1629880724576,2043
1629880724580,2044
1629880724584,2044
1629880724588,2044
1629880724592,2044
1629880724596,2043
1629880724600,2042
1629880724604,2041
1629880724608,2041
1629880724612,2041
1629880724616,2041
1629880724620,2041
1629880724624,2042
1629880724628,2042
1629880724632,2041
1629880724636,2041
1629880724640,2040
1629880724644,2040
1629880724648,2039
1629880724652,2039
1629880724656,2039
1629880724660,2039
1629880724664,2040
1629880724668,2040
1629880724672,2041
1629880724676,2041
1629880724680,2041
1629880724684,2041
1629880724688,2040
1629880724692,2040
1629880724696,2040
1629880724700,2040
1629880724704,2040
1629880724708,2040
1629880724712,2040
1629880724716,2040
1629880724720,2040
1629880724724,2040
1629880724728,2040
1629880724732,2040
1629880724736,2040
1629880724740,2040
1629880724744,2041
1629880724748,2042
1629880724752,2042
1629880724756,2042
1629880724760,2042
1629880724764,2041
1629880724768,2041
1629880724772,2041
1629880724776,2041
1629880724780,2041
1629880724784,2041
1629880724788,2040
1629880724792,2040
1629880724796,2039
1629880724800,2039
1629880724804,2040
1629880724808,2040
1629880724812,2042
1629880724816,2044
1629880724820,2047
1629880724824,2050
1629880724828,2054
1629880724832,2057
1629880724836,2057
1629880724840,2056
1629880724844,2053
1629880724848,2049
1629880724852,2047
1629880724856,2045
1629880724860,2045
1629880724864,2045
1629880724868,2045
1629880724872,2045
1629880724876,2046
1629880724880,2047
1629880724884,2047
1629880724888,2046
1629880724892,2044
1629880724896,2041
1629880724900,2039
1629880724904,2046
1629880724908,2070
1629880724912,2116
1629880724916,2175
1629880724920,2228
1629880724924,2250
1629880724928,2227
1629880724932,2166
1629880724936,2089
1629880724940,2027
1629880724944,1995
1629880724948,1995
1629880724952,2013
1629880724956,2034
1629880724960,2046
1629880724964,2049
1629880724968,2048
1629880724972,2047
1629880724976,2045
1629880724980,2045
1629880724984,2045
1629880724988,2046
1629880724992,2046
1629880724996,2046
1629880725000,2046
1629880725004,2046
1629880725008,2045
1629880725012,2045
1629880725016,2045
1629880725020,2046
1629880725024,2047
1629880725028,2048
1629880725032,2048
1629880725036,2048
1629880725040,2048
1629880725044,2048
1629880725048,2048
1629880725052,2049
1629880725056,2049
1629880725060,2050
1629880725064,2051
1629880725068,2052
1629880725072,2053
1629880725076,2054
1629880725080,2054
1629880725084,2055
1629880725088,2055
1629880725092,2056
1629880725096,2057
1629880725100,2058
1629880725104,2060
1629880725108,2062
1629880725112,2064
1629880725116,2065
1629880725120,2066
1629880725124,2067
1629880725128,2068
1629880725132,2070
1629880725136,2072
1629880725140,2074
1629880725144,2076
1629880725148,2078
1629880725152,2080
1629880725156,2082
1629880725160,2083
1629880725164,2084
1629880725168,2085
1629880725172,2086
1629880725176,2087
1629880725180,2088
1629880725184,2089
1629880725188,2089
1629880725192,2090
1629880725196,2089
1629880725200,2089
1629880725204,2088
1629880725208,2087
1629880725212,2086
1629880725216,2084
1629880725220,2082
1629880725224,2080
1629880725228,2077
1629880725232,2073
1629880725236,2069
1629880725240,2065
1629880725244,2061
1629880725248,2057
1629880725252,2053
1629880725256,2050
1629880725260,2048
1629880725264,2047
1629880725268,2045
1629880725272,2044
1629880725276,2042
1629880725280,2041
1629880725284,2039
1629880725288,2039
1629880725292,2038
1629880725296,2038
1629880725300,2039
1629880725304,2039
1629880725308,2040
1629880725312,2041
1629880725316,2041
1629880725320,2041
1629880725324,2041
1629880725328,2041
1629880725332,2042
1629880725336,2042
1629880725340,2043
1629880725344,2043
1629880725348,2044
1629880725352,2044
1629880725356,2044
1629880725360,2044
1629880725364,2044
1629880725368,2044
1629880725372,2044
1629880725376,2044
1629880725380,2044
1629880725384,2044
1629880725388,2044
1629880725392,2044
1629880725396,2044
1629880725400,2044
1629880725404,2043
1629880725408,2043
1629880725412,2042
1629880725416,2042
1629880725420,2042
1629880725424,2042
1629880725428,2042
1629880725432,2042
1629880725436,2042
1629880725440,2042
1629880725444,2041
1629880725448,2040
1629880725452,2040
1629880725456,2040
1629880725460,2040
1629880725464,2040
1629880725468,2041
1629880725472,2041
1629880725476,2040
1629880725480,2040
1629880725484,2040
1629880725488,2040
1629880725492,2040
1629880725496,2039
1629880725500,2040
1629880725504,2040
1629880725508,2040
1629880725512,2040
1629880725516,2040
1629880725520,2039
1629880725524,2039
1629880725528,2039
1629880725532,2039
1629880725536,2040
1629880725540,2040
1629880725544,2041
1629880725548,2041
1629880725552,2041
1629880725556,2041
1629880725560,2041
1629880725564,2041
1629880725568,2040
1629880725572,2040
1629880725576,2040
1629880725580,2041
1629880725584,2042
1629880725588,2042
1629880725592,2041
1629880725596,2040
1629880725600,2039
1629880725604,2038
1629880725608,2038
1629880725612,2039
1629880725616,2041
1629880725620,2042
1629880725624,2044
1629880725628,2047
1629880725632,2049
1629880725636,2053
1629880725640,2056
1629880725644,2056
1629880725648,2054
1629880725652,2050
1629880725656,2048
1629880725660,2045
1629880725664,2044
1629880725668,2044
1629880725672,2044
1629880725676,2044
1629880725680,2044
1629880725684,2044
1629880725688,2044
1629880725692,2045
1629880725696,2044
1629880725700,2042
1629880725704,2039
1629880725708,2038
1629880725712,2045
1629880725716,2068
1629880725720,2115
1629880725724,2174
1629880725728,2227
1629880725732,2250
1629880725736,2228
1629880725740,2167
1629880725744,2090
1629880725748,2027
1629880725752,1993
1629880725756,1992
1629880725760,2011
1629880725764,2031
1629880725768,2044
1629880725772,2048
1629880725776,2047
1629880725780,2046
1629880725784,2045
1629880725788,2044
1629880725792,2044
1629880725796,2044
1629880725800,2044
1629880725804,2044
1629880725808,2043
1629880725812,2044
1629880725816,2044
1629880725820,2044
1629880725824,2045
1629880725828,2045
1629880725832,2046
1629880725836,2046
1629880725840,2047
1629880725844,2047
1629880725848,2048
1629880725852,2048
1629880725856,2048
1629880725860,2048
1629880725864,2049
1629880725868,2050
1629880725872,2051
1629880725876,2051
1629880725880,2052
1629880725884,2052
1629880725888,2053
1629880725892,2054
1629880725896,2055
1629880725900,2056
1629880725904,2057
1629880725908,2059
1629880725912,2060
1629880725916,2061
1629880725920,2063
1629880725924,2064
1629880725928,2065
1629880725932,2066
1629880725936,2067
1629880725940,2069
1629880725944,2071
1629880725948,2073
1629880725952,2076
1629880725956,2077
1629880725960,2079
1629880725964,2081
1629880725968,2082
1629880725972,2084
1629880725976,2085
1629880725980,2086
1629880725984,2087
1629880725988,2088
1629880725992,2089
1629880725996,2089
1629880726000,2088
1629880726004,2088
1629880726008,2087
1629880726012,2086
1629880726016,2086
1629880726020,2085
1629880726024,2084
1629880726028,2081
1629880726032,2078
1629880726036,2075
1629880726040,2071
1629880726044,2066
1629880726048,2062
1629880726052,2058
1629880726056,2055
1629880726060,2052
1629880726064,2050
1629880726068,2048
1629880726072,2046
1629880726076,2044
1629880726080,2042
1629880726084,2040
1629880726088,2038
1629880726092,2037
1629880726096,2037
1629880726100,2037
1629880726104,2037
1629880726108,2038
1629880726112,2038
1629880726116,2038
1629880726120,2039
1629880726124,2039
1629880726128,2039
1629880726132,2039
1629880726136,2040
1629880726140,2041
1629880726144,2042
1629880726148,2043
1629880726152,2043
1629880726156,2043
1629880726160,2043
1629880726164,2042
1629880726168,2042
1629880726172,2042
1629880726176,2043
1629880726180,2043
1629880726184,2044
1629880726188,2044
1629880726192,2044
1629880726196,2044
1629880726200,2043
1629880726204,2043
1629880726208,2042
1629880726212,2042
1629880726216,2042
1629880726220,2043
1629880726224,2043
1629880726228,2043
1629880726232,2043
1629880726236,2042
1629880726240,2042
1629880726244,2041
1629880726248,2040
1629880726252,2040
1629880726256,2040
1629880726260,2040
1629880726264,2040
1629880726268,2041
1629880726272,2041
1629880726276,2040
1629880726280,2039
1629880726284,2039
1629880726288,2038
1629880726292,2038
1629880726296,2038
1629880726300,2039
1629880726304,2040
1629880726308,2040
1629880726312,2040
1629880726316,2040
1629880726320,2040
1629880726324,2039
1629880726328,2039
1629880726332,2038
1629880726336,2039
1629880726340,2039
1629880726344,2039
1629880726348,2040
1629880726352,2040
1629880726356,2040
1629880726360,2040
1629880726364,2040
1629880726368,2040
1629880726372,2040
1629880726376,2040
1629880726380,2040
1629880726384,2040
1629880726388,2039
1629880726392,2039
1629880726396,2039
1629880726400,2039
1629880726404,2040
1629880726408,2040
1629880726412,2041
1629880726416,2043
1629880726420,2046
1629880726424,2049
1629880726428,2054
1629880726432,2057
1629880726436,2057
1629880726440,2054
1629880726444,2050
1629880726448,2047
1629880726452,2045
1629880726456,2043
1629880726460,2043
1629880726464,2044
1629880726468,2044
1629880726472,2044
1629880726476,2044
1629880726480,2045
1629880726484,2045
1629880726488,2044
1629880726492,2042
1629880726496,2038
1629880726500,2037
1629880726504,2045
1629880726508,2071
1629880726512,2120
1629880726516,2182
1629880726520,2235
1629880726524,2256
1629880726528,2230
1629880726532,2165
1629880726536,2086
1629880726540,2024
1629880726544,1994
1629880726548,1996
1629880726552,2015
1629880726556,2035
1629880726560,2046
1629880726564,2048
1629880726568,2047
1629880726572,2045
1629880726576,2043
1629880726580,2043
1629880726584,2043
1629880726588,2044
1629880726592,2044
1629880726596,2045
1629880726600,2045
1629880726604,2045
1629880726608,2045
1629880726612,2045
1629880726616,2045
1629880726620,2046
1629880726624,2047
1629880726628,2048
1629880726632,2048
1629880726636,2048
1629880726640,2048
1629880726644,2048
1629880726648,2048
1629880726652,2048
1629880726656,2048
1629880726660,2049
1629880726664,2050
1629880726668,2051
1629880726672,2052
1629880726676,2053
1629880726680,2053
1629880726684,2054
1629880726688,2055
1629880726692,2056
1629880726696,2057
1629880726700,2059
1629880726704,2060
1629880726708,2062
1629880726712,2064
1629880726716,2065
1629880726720,2067
1629880726724,2068
1629880726728,2068
1629880726732,2070
1629880726736,2071
1629880726740,2074
1629880726744,2076
1629880726748,2079
1629880726752,2081
1629880726756,2083
1629880726760,2084
1629880726764,2085
1629880726768,2086
1629880726772,2087
1629880726776,2088
1629880726780,2089
1629880726784,2090
1629880726788,2090
1629880726792,2091
1629880726796,2091
1629880726800,2090
1629880726804,2089
1629880726808,2087
1629880726812,2086
1629880726816,2084
1629880726820,2081
1629880726824,2079
1629880726828,2075
1629880726832,2071
1629880726836,2067
1629880726840,2063
1629880726844,2059
1629880726848,2055
1629880726852,2052
1629880726856,2049
1629880726860,2047
1629880726864,2046
1629880726868,2044
1629880726872,2042
1629880726876,2041
1629880726880,2040
1629880726884,2038
1629880726888,2037
1629880726892,2037
1629880726896,2037
1629880726900,2037
1629880726904,2038
1629880726908,2038
1629880726912,2039
1629880726916,2039
1629880726920,2040
1629880726924,2040
1629880726928,2040
1629880726932,2041
1629880726936,2041
1629880726940,2042
1629880726944,2043
1629880726948,2044
1629880726952,2044
1629880726956,2044
1629880726960,2044
1629880726964,2043
1629880726968,2043
1629880726972,2043
1629880726976,2044
1629880726980,2044
1629880726984,2044
1629880726988,2045
1629880726992,2045
1629880726996,2044
1629880727000,2044
1629880727004,2043
1629880727008,2042
1629880727012,2042
1629880727016,2042
1629880727020,2042
1629880727024,2042
1629880727028,2042
1629880727032,2042
1629880727036,2042
1629880727040,2041
1629880727044,2041
1629880727048,2041
1629880727052,2041
1629880727056,2041
1629880727060,2040
1629880727064,2040
1629880727068,2040
1629880727072,2040
1629880727076,2040
1629880727080,2040
1629880727084,2040
1629880727088,2039
1629880727092,2039
1629880727096,2039
1629880727100,2040
1629880727104,2040
1629880727108,2040
1629880727112,2040
1629880727116,2040
1629880727120,2040
1629880727124,2039
1629880727128,2039
1629880727132,2039
1629880727136,2039
1629880727140,2039
1629880727144,2040
1629880727148,2040
1629880727152,2040
1629880727156,2041
1629880727160,2040
1629880727164,2040
1629880727168,2040
1629880727172,2040
1629880727176,2040
1629880727180,2039
1629880727184,2039
1629880727188,2039
1629880727192,2038
1629880727196,2039
1629880727200,2039
1629880727204,2040
1629880727208,2041
1629880727212,2043
1629880727216,2045
1629880727220,2048
1629880727224,2052
1629880727228,2055
1629880727232,2057
1629880727236,2055
1629880727240,2051
1629880727244,2048
1629880727248,2045
1629880727252,2043
1629880727256,2043
1629880727260,2043
1629880727264,2043
1629880727268,2043
1629880727272,2044
1629880727276,2045
1629880727280,2045
1629880727284,2045
1629880727288,2042
1629880727292,2039
1629880727296,2036
1629880727300,2041
1629880727304,2060
1629880727308,2103
1629880727312,2164
1629880727316,2223
1629880727320,2255
1629880727324,2243
1629880727328,2187
1629880727332,2109
1629880727336,2039
1629880727340,1998
1629880727344,1991
1629880727348,2007
1629880727352,2028
1629880727356,2042
1629880727360,2047
1629880727364,2046
1629880727368,2044
1629880727372,2043
1629880727376,2043
1629880727380,2043
1629880727384,2044
1629880727388,2044
1629880727392,2043
1629880727396,2043
1629880727400,2043
1629880727404,2043
1629880727408,2043
1629880727412,2043
1629880727416,2043
1629880727420,2044
1629880727424,2044
1629880727428,2045
1629880727432,2046
1629880727436,2047
1629880727440,2048
1629880727444,2048
1629880727448,2048
1629880727452,2048
1629880727456,2048
1629880727460,2048
1629880727464,2049
1629880727468,2051
1629880727472,2052
1629880727476,2053
1629880727480,2054
1629880727484,2055
1629880727488,2055
1629880727492,2056
1629880727496,2057
1629880727500,2059
1629880727504,2060
1629880727508,2062
1629880727512,2064
1629880727516,2066
1629880727520,2067
1629880727524,2069
1629880727528,2070
1629880727532,2072
1629880727536,2073
1629880727540,2075
1629880727544,2077
1629880727548,2079
1629880727552,2081
1629880727556,2083
1629880727560,2085
1629880727564,2086
1629880727568,2087
1629880727572,2089
1629880727576,2090
1629880727580,2091
1629880727584,2091
1629880727588,2092
1629880727592,2092
1629880727596,2091
1629880727600,2090
1629880727604,2088
1629880727608,2087
1629880727612,2085
1629880727616,2083
1629880727620,2080
1629880727624,2077
1629880727628,2074
1629880727632,2069
1629880727636,2064
1629880727640,2060
1629880727644,2055
1629880727648,2051
1629880727652,2048
1629880727656,2046
1629880727660,2043
1629880727664,2042
1629880727668,2040
1629880727672,2039
1629880727676,2038
1629880727680,2037
1629880727684,2036
1629880727688,2035
1629880727692,2035
1629880727696,2034
1629880727700,2034
1629880727704,2035
1629880727708,2036
1629880727712,2037
1629880727716,2037
1629880727720,2037
1629880727724,2037
1629880727728,2038
1629880727732,2038
1629880727736,2039
1629880727740,2040
1629880727744,2041
1629880727748,2041
1629880727752,2041
1629880727756,2041
1629880727760,2042
1629880727764,2041
1629880727768,2041
1629880727772,2040
1629880727776,2040
1629880727780,2040
1629880727784,2041
1629880727788,2042
1629880727792,2043
1629880727796,2043
1629880727800,2043
1629880727804,2042
1629880727808,2041
1629880727812,2041
1629880727816,2040
1629880727820,2040
1629880727824,2040
1629880727828,2040
1629880727832,2040
1629880727836,2039
1629880727840,2038
1629880727844,2037
1629880727848,2036
1629880727852,2036
1629880727856,2036
1629880727860,2037
1629880727864,2038
1629880727868,2038
1629880727872,2038
1629880727876,2038
1629880727880,2037
1629880727884,2036
1629880727888,2035
1629880727892,2034
1629880727896,2034
1629880727900,2035
1629880727904,2036
1629880727908,2037
1629880727912,2037
1629880727916,2036
1629880727920,2036
1629880727924,2036
1629880727928,2036
1629880727932,2036
1629880727936,2036
1629880727940,2036
1629880727944,2037
1629880727948,2037
1629880727952,2037
1629880727956,2037
1629880727960,2035
1629880727964,2034
1629880727968,2033
1629880727972,2034
1629880727976,2035
1629880727980,2037
1629880727984,2039
1629880727988,2041
1629880727992,2044
1629880727996,2047
1629880728000,2049
1629880728004,2051
1629880728008,2049
1629880728012,2048
1629880728016,2044
1629880728020,2041
1629880728024,2039
1629880728028,2038
1629880728032,2039
1629880728036,2039
1629880728040,2038
1629880728044,2037
1629880728048,2037
1629880728052,2037
1629880728056,2037
1629880728060,2036
1629880728064,2035
1629880728068,2034
1629880728072,2036
1629880728076,2048
1629880728080,2080
1629880728084,2131
1629880728088,2189
1629880728092,2231
1629880728096,2235
1629880728100,2195
1629880728104,2121
1629880728108,2043
1629880728112,1986
1629880728116,1963
1629880728120,1972
1629880728124,1997
1629880728128,2021
1629880728132,2035
1629880728136,2040
1629880728140,2040
1629880728144,2039
1629880728148,2038
1629880728152,2038
1629880728156,2038
1629880728160,2038
1629880728164,2038
1629880728168,2038
1629880728172,2038
1629880728176,2038
1629880728180,2038
1629880728184,2039
1629880728188,2040
1629880728192,2041
1629880728196,2041
1629880728200,2042
1629880728204,2042
1629880728208,2041
1629880728212,2042
1629880728216,2043
1629880728220,2044
1629880728224,2046
1629880728228,2047
1629880728232,2047
1629880728236,2047
1629880728240,2047
1629880728244,2047
1629880728248,2048
1629880728252,2049
1629880728256,2050
1629880728260,2052
1629880728264,2054
1629880728268,2055
1629880728272,2056
1629880728276,2057
1629880728280,2057
1629880728284,2059
1629880728288,2060
1629880728292,2062
1629880728296,2064
1629880728300,2066
1629880728304,2069
1629880728308,2071
1629880728312,2073
1629880728316,2075
1629880728320,2076
1629880728324,2078
1629880728328,2079
1629880728332,2080
1629880728336,2082
1629880728340,2085
1629880728344,2087
1629880728348,2088
1629880728352,2090
1629880728356,2090
1629880728360,2091
1629880728364,2091
1629880728368,2091
1629880728372,2090
1629880728376,2090
1629880728380,2090
1629880728384,2088
1629880728388,2086
1629880728392,2082
1629880728396,2077
1629880728400,2072
1629880728404,2066
1629880728408,2061
1629880728412,2056
1629880728416,2051
1629880728420,2048
1629880728424,2045
1629880728428,2043
1629880728432,2042
1629880728436,2040
1629880728440,2037
1629880728444,2034
1629880728448,2031
1629880728452,2030
1629880728456,2030
1629880728460,2030
1629880728464,2030
1629880728468,2030
1629880728472,2029
1629880728476,2028
1629880728480,2028
1629880728484,2029
1629880728488,2030
1629880728492,2031
1629880728496,2032
1629880728500,2032
1629880728504,2033
1629880728508,2033
1629880728512,2033
1629880728516,2033
1629880728520,2033
1629880728524,2034
1629880728528,2035
1629880728532,2036
1629880728536,2037
1629880728540,2038
1629880728544,2037
1629880728548,2036
1629880728552,2036
1629880728556,2035
1629880728560,2036
1629880728564,2037
1629880728568,2037
1629880728572,2037
1629880728576,2037
1629880728580,2036
1629880728584,2035
1629880728588,2036
1629880728592,2036
1629880728596,2037
1629880728600,2037
1629880728604,2037
1629880728608,2035
1629880728612,2034
1629880728616,2033
1629880728620,2032
1629880728624,2033
1629880728628,2034
1629880728632,2035
1629880728636,2035
1629880728640,2035
1629880728644,2035
1629880728648,2033
1629880728652,2032
1629880728656,2031
1629880728660,2031
1629880728664,2031
1629880728668,2032
1629880728672,2033
1629880728676,2034
1629880728680,2034
1629880728684,2033
1629880728688,2032
1629880728692,2030
1629880728696,2030
1629880728700,2031
1629880728704,2032
1629880728708,2034
1629880728712,2035
1629880728716,2035
1629880728720,2034
1629880728724,2032
1629880728728,2030
1629880728732,2030
1629880728736,2031
1629880728740,2033
1629880728744,2035
1629880728748,2037
1629880728752,2040
1629880728756,2042
1629880728760,2044
1629880728764,2046
1629880728768,2047
1629880728772,2047
1629880728776,2045
1629880728780,2042
1629880728784,2040
1629880728788,2038
1629880728792,2037
1629880728796,2037
1629880728800,2036
1629880728804,2035
1629880728808,2034
1629880728812,2035
1629880728816,2036
1629880728820,2037
1629880728824,2037
1629880728828,2036
1629880728832,2035
1629880728836,2036
1629880728840,2048
1629880728844,2078
1629880728848,2126
1629880728852,2179
1629880728856,2219
1629880728860,2223
1629880728864,2185
1629880728868,2116
1629880728872,2041
1629880728876,1986
1629880728880,1963
1629880728884,1971
1629880728888,1995
1629880728892,2019
1629880728896,2034
1629880728900,2040
1629880728904,2041
1629880728908,2040
1629880728912,2039
1629880728916,2039
1629880728920,2039
1629880728924,2040
1629880728928,2040
1629880728932,2040
1629880728936,2040
1629880728940,2040
1629880728944,2040
1629880728948,2040
1629880728952,2041
1629880728956,2043
1629880728960,2045
1629880728964,2046
1629880728968,2046
1629880728972,2045
1629880728976,2044
1629880728980,2045
1629880728984,2046
1629880728988,2047
1629880728992,2048
1629880728996,2048
1629880729000,2050
1629880729004,2051
1629880729008,2051
1629880729012,2051
1629880729016,2051
1629880729020,2051
1629880729024,2052
1629880729028,2055
1629880729032,2058
1629880729036,2061
1629880729040,2063
1629880729044,2063
1629880729048,2062
1629880729052,2062
1629880729056,2063
1629880729060,2066
1629880729064,2069
1629880729068,2072
1629880729072,2074
1629880729076,2076
1629880729080,2078
1629880729084,2080
1629880729088,2082
1629880729092,2085
1629880729096,2087
1629880729100,2089
1629880729104,2091
1629880729108,2093
1629880729112,2095
1629880729116,2096
1629880729120,2096
1629880729124,2096
1629880729128,2096
1629880729132,2096
1629880729136,2096
1629880729140,2096
1629880729144,2095
1629880729148,2093
1629880729152,2089
1629880729156,2085
1629880729160,2079
1629880729164,2074
1629880729168,2069
1629880729172,2066
1629880729176,2062
1629880729180,2057
1629880729184,2053
1629880729188,2048
1629880729192,2044
1629880729196,2041
1629880729200,2040
1629880729204,2039
1629880729208,2037
1629880729212,2036
1629880729216,2033
1629880729220,2032
1629880729224,2032
1629880729228,2033
1629880729232,2034
1629880729236,2034
1629880729240,2032
1629880729244,2030
1629880729248,2029
1629880729252,2030
1629880729256,2032
1629880729260,2034
1629880729264,2036
1629880729268,2036
1629880729272,2035
1629880729276,2034
1629880729280,2034
1629880729284,2035
1629880729288,2036
1629880729292,2037
1629880729296,2038
1629880729300,2039
1629880729304,2039
1629880729308,2039
1629880729312,2039
1629880729316,2039
1629880729320,2040
1629880729324,2041
1629880729328,2042
1629880729332,2042
1629880729336,2041
1629880729340,2040
1629880729344,2039
1629880729348,2040
1629880729352,2040
1629880729356,2041
1629880729360,2041
1629880729364,2040
1629880729368,2039
1629880729372,2039
1629880729376,2038
1629880729380,2039
1629880729384,2040
1629880729388,2040
1629880729392,2039
1629880729396,2038
1629880729400,2037
1629880729404,2038
1629880729408,2038
1629880729412,2039
1629880729416,2038
1629880729420,2038
1629880729424,2037
1629880729428,2036
1629880729432,2037
1629880729436,2037
1629880729440,2038
1629880729444,2038
1629880729448,2037
1629880729452,2037
1629880729456,2037
1629880729460,2037
1629880729464,2037
1629880729468,2037
1629880729472,2038
1629880729476,2038
1629880729480,2037
1629880729484,2036
1629880729488,2035
1629880729492,2035
1629880729496,2035
1629880729500,2037
1629880729504,2038
1629880729508,2038
1629880729512,2038
1629880729516,2038
1629880729520,2040
1629880729524,2043
1629880729528,2047
1629880729532,2049
1629880729536,2050
1629880729540,2048
1629880729544,2047
1629880729548,2045
1629880729552,2044
1629880729556,2042
1629880729560,2041
1629880729564,2040
1629880729568,2039
1629880729572,2039
1629880729576,2039
1629880729580,2041
1629880729584,2043
1629880729588,2043
1629880729592,2041
1629880729596,2039
1629880729600,2036
1629880729604,2039
1629880729608,2054
1629880729612,2089
1629880729616,2140
1629880729620,2193
1629880729624,2227
1629880729628,2222
1629880729632,2177
1629880729636,2106
1629880729640,2037
1629880729644,1990
1629880729648,1976
1629880729652,1989
1629880729656,2012
1629880729660,2032
1629880729664,2044
1629880729668,2047
1629880729672,2046
1629880729676,2045
1629880729680,2043
1629880729684,2043
1629880729688,2042
1629880729692,2043
1629880729696,2043
1629880729700,2044
1629880729704,2045
1629880729708,2046
1629880729712,2046
1629880729716,2046
1629880729720,2046
1629880729724,2045
1629880729728,2045
1629880729732,2046
1629880729736,2047
1629880729740,2048
1629880729744,2048
1629880729748,2049
1629880729752,2049
1629880729756,2050
1629880729760,2050
1629880729764,2050
1629880729768,2051
1629880729772,2052
1629880729776,2053
1629880729780,2054
1629880729784,2055
1629880729788,2056
1629880729792,2057
1629880729796,2058
1629880729800,2059
1629880729804,2060
1629880729808,2060
1629880729812,2061
1629880729816,2063
1629880729820,2066
1629880729824,2068
1629880729828,2070
1629880729832,2072
1629880729836,2074
1629880729840,2076
1629880729844,2078
1629880729848,2080
1629880729852,2083
1629880729856,2085
1629880729860,2088
1629880729864,2090
1629880729868,2093
1629880729872,2095
1629880729876,2097
1629880729880,2099
1629880729884,2100
1629880729888,2101
1629880729892,2102
1629880729896,2102
1629880729900,2103
1629880729904,2103
1629880729908,2102
1629880729912,2100
1629880729916,2096
1629880729920,2091
1629880729924,2086
1629880729928,2081
1629880729932,2076
1629880729936,2072
1629880729940,2067
1629880729944,2063
1629880729948,2059
1629880729952,2055
1629880729956,2052
1629880729960,2049
1629880729964,2047
1629880729968,2044
1629880729972,2042
1629880729976,2041
1629880729980,2040
1629880729984,2040
1629880729988,2040
1629880729992,2040
1629880729996,2039
1629880730000,2039
1629880730004,2038
1629880730008,2037
1629880730012,2037
1629880730016,2037
1629880730020,2038
1629880730024,2037
1629880730028,2037
1629880730032,2038
1629880730036,2039
1629880730040,2039
1629880730044,2040
1629880730048,2039
1629880730052,2039
1629880730056,2040
1629880730060,2041
1629880730064,2043
1629880730068,2044
1629880730072,2045
1629880730076,2045
1629880730080,2045
1629880730084,2045
1629880730088,2045
1629880730092,2045
1629880730096,2045
1629880730100,2046
1629880730104,2047
1629880730108,2047
1629880730112,2047
1629880730116,2046
1629880730120,2045
1629880730124,2045
1629880730128,2044
1629880730132,2045
1629880730136,2046
1629880730140,2046
1629880730144,2046
1629880730148,2046
1629880730152,2046
1629880730156,2045
1629880730160,2045
1629880730164,2044
1629880730168,2044
1629880730172,2044
1629880730176,2044
1629880730180,2044
1629880730184,2044
1629880730188,2044
1629880730192,2044
1629880730196,2043
1629880730200,2043
1629880730204,2042
1629880730208,2041
1629880730212,2042
1629880730216,2042
1629880730220,2043
1629880730224,2044
1629880730228,2044
1629880730232,2044
1629880730236,2044
1629880730240,2044
1629880730244,2043
1629880730248,2043
1629880730252,2043
1629880730256,2043
1629880730260,2043
1629880730264,2043
1629880730268,2043
1629880730272,2044
1629880730276,2044
1629880730280,2044
1629880730284,2044
1629880730288,2044
1629880730292,2044
1629880730296,2043
1629880730300,2043
1629880730304,2044
1629880730308,2044
1629880730312,2045
1629880730316,2045
1629880730320,2045
1629880730324,2044
1629880730328,2043
1629880730332,2042
1629880730336,2042
1629880730340,2042
1629880730344,2043
1629880730348,2045
1629880730352,2046
1629880730356,2048
1629880730360,2051
1629880730364,2055
1629880730368,2057
1629880730372,2058
1629880730376,2058
1629880730380,2055
1629880730384,2053
1629880730388,2051
1629880730392,2049
1629880730396,2048
1629880730400,2048
1629880730404,2047
1629880730408,2047
1629880730412,2048
1629880730416,2048
1629880730420,2048
1629880730424,2048
1629880730428,2048
1629880730432,2046
1629880730436,2044
1629880730440,2044
1629880730444,2052
1629880730448,2077
1629880730452,2124
1629880730456,2186
1629880730460,2244
1629880730464,2273
1629880730468,2258
1629880730472,2200
1629880730476,2122
1629880730480,2053
1629880730484,2014
1629880730488,2007
1629880730492,2021
1629880730496,2039
1629880730500,2049
1629880730504,2052
1629880730508,2050
1629880730512,2048
1629880730516,2047
1629880730520,2046
1629880730524,2046
1629880730528,2045
1629880730532,2046
1629880730536,2046
1629880730540,2047
1629880730544,2047
1629880730548,2047
1629880730552,2048
1629880730556,2048
1629880730560,2048
1629880730564,2048
1629880730568,2048
1629880730572,2048
1629880730576,2048
1629880730580,2049
1629880730584,2050
1629880730588,2051
1629880730592,2051
1629880730596,2051
1629880730600,2051
1629880730604,2051
1629880730608,2052
1629880730612,2053
1629880730616,2054
1629880730620,2056
1629880730624,2057
1629880730628,2058
1629880730632,2059
1629880730636,2060
1629880730640,2060
1629880730644,2061
1629880730648,2062
1629880730652,2063
1629880730656,2065
1629880730660,2067
1629880730664,2069
1629880730668,2071
1629880730672,2073
1629880730676,2075
1629880730680,2077
1629880730684,2079
1629880730688,2081
1629880730692,2084
1629880730696,2087
1629880730700,2090
1629880730704,2093
1629880730708,2096
1629880730712,2098
1629880730716,2101
1629880730720,2102
1629880730724,2104
1629880730728,2105
1629880730732,2107
1629880730736,2108
1629880730740,2108
1629880730744,2109
1629880730748,2108
1629880730752,2106
1629880730756,2103
1629880730760,2099
1629880730764,2094
1629880730768,2088
1629880730772,2083
1629880730776,2077
1629880730780,2072
1629880730784,2068
1629880730788,2064
1629880730792,2061
1629880730796,2057
1629880730800,2054
1629880730804,2051
1629880730808,2048
1629880730812,2047
1629880730816,2046
1629880730820,2045
1629880730824,2045
1629880730828,2045
1629880730832,2044
1629880730836,2044
1629880730840,2044
1629880730844,2044
1629880730848,2043
1629880730852,2043
1629880730856,2043
1629880730860,2044
1629880730864,2044
1629880730868,2044
1629880730872,2045
1629880730876,2045
1629880730880,2044
1629880730884,2044
1629880730888,2043
1629880730892,2043
1629880730896,2043
1629880730900,2044
1629880730904,2045
1629880730908,2045
1629880730912,2046
1629880730916,2047
1629880730920,2047
1629880730924,2047
1629880730928,2046
1629880730932,2046
1629880730936,2047
1629880730940,2047
1629880730944,2048
1629880730948,2048
1629880730952,2048
1629880730956,2048
1629880730960,2048
1629880730964,2048
1629880730968,2048
1629880730972,2048
1629880730976,2048
1629880730980,2048
1629880730984,2048
1629880730988,2048
1629880730992,2049
1629880730996,2048
1629880731000,2048
1629880731004,2048
1629880731008,2047
1629880731012,2047
1629880731016,2047
1629880731020,2047
1629880731024,2047
1629880731028,2048
1629880731032,2048
1629880731036,2048
1629880731040,2048
1629880731044,2048
1629880731048,2047
1629880731052,2047
1629880731056,2047
1629880731060,2047
1629880731064,2048
1629880731068,2048
1629880731072,2048
1629880731076,2048
1629880731080,2048
1629880731084,2047
1629880731088,2047
1629880731092,2047
1629880731096,2047
1629880731100,2047
1629880731104,2048
1629880731108,2048
1629880731112,2048
1629880731116,2048
1629880731120,2047
1629880731124,2047
1629880731128,2047
1629880731132,2047
1629880731136,2048
1629880731140,2048
1629880731144,2048
1629880731148,2048
1629880731152,2048
1629880731156,2048
1629880731160,2048
1629880731164,2048
1629880731168,2048
1629880731172,2048
1629880731176,2048
1629880731180,2048
1629880731184,2048
1629880731188,2049
1629880731192,2049
1629880731196,2049
1629880731200,2049
1629880731204,2048
1629880731208,2048
1629880731212,2048
1629880731216,2048
1629880731220,2048
1629880731224,2049
1629880731228,2050
1629880731232,2050
1629880731236,2050
1629880731240,2049
1629880731244,2049
1629880731248,2048
1629880731252,2048
1629880731256,2048
1629880731260,2049
1629880731264,2049
1629880731268,2050
1629880731272,2050
1629880731276,2050
1629880731280,2050
1629880731284,2050
1629880731288,2050
1629880731292,2050
1629880731296,2050
1629880731300,2050
1629880731304,2051
1629880731308,2051
1629880731312,2052
1629880731316,2052
1629880731320,2051
1629880731324,2051
1629880731328,2050
1629880731332,2050
1629880731336,2050
1629880731340,2050
1629880731344,2051
1629880731348,2051
1629880731352,2051
1629880731356,2050
1629880731360,2050
1629880731364,2050
1629880731368,2050
1629880731372,2050
1629880731376,2050
1629880731380,2050
1629880731384,2051
1629880731388,2051
1629880731392,2052
1629880731396,2051
1629880731400,2051
1629880731404,2051
1629880731408,2050
1629880731412,2050
1629880731416,2051
1629880731420,2051
1629880731424,2051
1629880731428,2051
1629880731432,2051
1629880731436,2052
1629880731440,2052
1629880731444,2052
1629880731448,2051
1629880731452,2051
1629880731456,2051
1629880731460,2052
1629880731464,2052
1629880731468,2053
1629880731472,2053
1629880731476,2052
1629880731480,2052
1629880731484,2052
1629880731488,2051
1629880731492,2051
1629880731496,2051
1629880731500,2052
1629880731504,2052
1629880731508,2053
1629880731512,2053
1629880731516,2053
1629880731520,2052
1629880731524,2052
1629880731528,2051
1629880731532,2052
1629880731536,2052
1629880731540,2052
1629880731544,2053
1629880731548,2053
1629880731552,2053
1629880731556,2052
1629880731560,2052
1629880731564,2052
1629880731568,2052
1629880731572,2052
1629880731576,2052
1629880731580,2052
1629880731584,2053
1629880731588,2053
1629880731592,2053
1629880731596,2053
1629880731600,2053
1629880731604,2052
1629880731608,2052
1629880731612,2051
1629880731616,2051
1629880731620,2051
1629880731624,2051
1629880731628,2051
1629880731632,2051
1629880731636,2050
1629880731640,2050
1629880731644,2051
1629880731648,2052
1629880731652,2054
1629880731656,2056
1629880731660,2059
1629880731664,2062
1629880731668,2064
1629880731672,2065
1629880731676,2064
1629880731680,2062
1629880731684,2059
1629880731688,2056
1629880731692,2054
1629880731696,2053
1629880731700,2053
1629880731704,2053
1629880731708,2054
1629880731712,2054
1629880731716,2055
1629880731720,2055
1629880731724,2055
1629880731728,2052
1629880731732,2049
1629880731736,2048
1629880731740,2050
1629880731744,2065
1629880731748,2098
1629880731752,2156
1629880731756,2224
1629880731760,2281
1629880731764,2301
1629880731768,2271
1629880731772,2200
1629880731776,2117
1629880731780,2051
1629880731784,2021
1629880731788,2022
1629880731792,2038
1629880731796,2051
1629880731800,2056
1629880731804,2053
1629880731808,2049
1629880731812,2048
1629880731816,2047
1629880731820,2046
1629880731824,2046
1629880731828,2046
1629880731832,2047
1629880731836,2047
1629880731840,2046
1629880731844,2046
1629880731848,2046
1629880731852,2046
1629880731856,2046
1629880731860,2047
1629880731864,2048
1629880731868,2048
1629880731872,2048
1629880731876,2048
1629880731880,2048
1629880731884,2049
1629880731888,2049
1629880731892,2050
1629880731896,2050
1629880731900,2051
1629880731904,2052
1629880731908,2052
1629880731912,2053
1629880731916,2054
1629880731920,2054
1629880731924,2055
1629880731928,2055
1629880731932,2056
1629880731936,2058
1629880731940,2059
1629880731944,2061
1629880731948,2062
1629880731952,2064
1629880731956,2065
1629880731960,2066
1629880731964,2067
1629880731968,2068
1629880731972,2070
1629880731976,2071
1629880731980,2074
1629880731984,2076
1629880731988,2079
1629880731992,2081
1629880731996,2084
1629880732000,2086
1629880732004,2088
1629880732008,2090
1629880732012,2093
1629880732016,2095
1629880732020,2097
1629880732024,2100
1629880732028,2102
1629880732032,2104
1629880732036,2105
1629880732040,2105
1629880732044,2105
1629880732048,2104
1629880732052,2103
1629880732056,2103
1629880732060,2101
1629880732064,2099
1629880732068,2096
1629880732072,2092
1629880732076,2087
1629880732080,2081
1629880732084,2076
1629880732088,2071
1629880732092,2066
1629880732096,2062
1629880732100,2059
1629880732104,2056
1629880732108,2053
1629880732112,2050
1629880732116,2048
1629880732120,2046
1629880732124,2044
1629880732128,2043
1629880732132,2042
1629880732136,2042
1629880732140,2042
1629880732144,2042
1629880732148,2042
1629880732152,2043
1629880732156,2042
1629880732160,2042
1629880732164,2041
1629880732168,2041
1629880732172,2040
1629880732176,2040
1629880732180,2040
1629880732184,2041
1629880732188,2041
1629880732192,2041
1629880732196,2041
1629880732200,2041
1629880732204,2041
1629880732208,2041
1629880732212,2041
1629880732216,2041
1629880732220,2041
1629880732224,2042
1629880732228,2042
1629880732232,2043
1629880732236,2043
1629880732240,2043
1629880732244,2043
1629880732248,2043
1629880732252,2044
1629880732256,2044
1629880732260,2044
1629880732264,2044
1629880732268,2045
1629880732272,2045
1629880732276,2045
1629880732280,2045
1629880732284,2044
1629880732288,2044
1629880732292,2044
1629880732296,2044
1629880732300,2044
1629880732304,2045
1629880732308,2045
1629880732312,2044
1629880732316,2044
1629880732320,2043
1629880732324,2043
1629880732328,2042
1629880732332,2042
1629880732336,2042
1629880732340,2042
1629880732344,2043
1629880732348,2043
1629880732352,2043
1629880732356,2043
1629880732360,2043
1629880732364,2042
1629880732368,2042
1629880732372,2042
1629880732376,2042
1629880732380,2042
1629880732384,2043
1629880732388,2043
1629880732392,2044
1629880732396,2044
1629880732400,2043
1629880732404,2043
1629880732408,2042
1629880732412,2041
1629880732416,2041
1629880732420,2042
1629880732424,2043
1629880732428,2043
1629880732432,2044
1629880732436,2044
1629880732440,2043
1629880732444,2043
1629880732448,2043
1629880732452,2043
1629880732456,2043
1629880732460,2043
1629880732464,2044
1629880732468,2044
1629880732472,2044
1629880732476,2044
1629880732480,2044
1629880732484,2044
1629880732488,2044
1629880732492,2044
1629880732496,2044
1629880732500,2044
1629880732504,2045
1629880732508,2046
1629880732512,2046
1629880732516,2046
1629880732520,2045
1629880732524,2045
1629880732528,2045
1629880732532,2045
1629880732536,2046
1629880732540,2046
1629880732544,2046
1629880732548,2046
1629880732552,2047
1629880732556,2047
1629880732560,2047
1629880732564,2046
1629880732568,2046
1629880732572,2046
1629880732576,2046
1629880732580,2046
1629880732584,2047
1629880732588,2047
1629880732592,2047
1629880732596,2047
1629880732600,2047
1629880732604,2047
1629880732608,2047
1629880732612,2047
1629880732616,2047
1629880732620,2047
1629880732624,2047
1629880732628,2048
1629880732632,2048
1629880732636,2048
1629880732640,2048
1629880732644,2048
1629880732648,2048
1629880732652,2048
1629880732656,2048
1629880732660,2048
1629880732664,2048
1629880732668,2048
1629880732672,2048
1629880732676,2048
1629880732680,2048
1629880732684,2048
1629880732688,2048
1629880732692,2048
1629880732696,2048
1629880732700,2048
1629880732704,2048
1629880732708,2048
1629880732712,2048
1629880732716,2048
1629880732720,2048
1629880732724,2048
1629880732728,2048
1629880732732,2048
1629880732736,2048
1629880732740,2048
1629880732744,2048
1629880732748,2048
1629880732752,2048
1629880732756,2048
1629880732760,2048
1629880732764,2048
1629880732768,2048
1629880732772,2048
1629880732776,2048
1629880732780,2048
1629880732784,2048
1629880732788,2049
1629880732792,2049
1629880732796,2048
1629880732800,2048
1629880732804,2048
1629880732808,2048
1629880732812,2048
1629880732816,2048
1629880732820,2047
1629880732824,2047
1629880732828,2047
1629880732832,2048
1629880732836,2048
1629880732840,2049
1629880732844,2050
1629880732848,2051
1629880732852,2054
1629880732856,2057
1629880732860,2060
1629880732864,2062
1629880732868,2062
1629880732872,2060
1629880732876,2057
1629880732880,2054
1629880732884,2052
1629880732888,2050
1629880732892,2050
1629880732896,2049
1629880732900,2050
1629880732904,2050
1629880732908,2051
1629880732912,2052
1629880732916,2052
1629880732920,2050
1629880732924,2048
1629880732928,2046
1629880732932,2046
1629880732936,2055
1629880732940,2082
1629880732944,2132
1629880732948,2197
1629880732952,2256
1629880732956,2284
1629880732960,2266
1629880732964,2204
1629880732968,2121
1629880732972,2050
1629880732976,2013
1629880732980,2009
1629880732984,2025
1629880732988,2044
1629880732992,2053
1629880732996,2053
1629880733000,2049
1629880733004,2048
1629880733008,2046
1629880733012,2046
1629880733016,2045
1629880733020,2046
1629880733024,2046
1629880733028,2046
1629880733032,2046
1629880733036,2046
1629880733040,2046
1629880733044,2046
1629880733048,2046
1629880733052,2047
1629880733056,2047
1629880733060,2047
1629880733064,2048
1629880733068,2048
1629880733072,2048
1629880733076,2049
1629880733080,2049
1629880733084,2049
1629880733088,2050
1629880733092,2050
1629880733096,2051
1629880733100,2052
1629880733104,2053
1629880733108,2054
1629880733112,2055
1629880733116,2056
1629880733120,2056
1629880733124,2056
1629880733128,2057
1629880733132,2058
1629880733136,2059
1629880733140,2061
1629880733144,2063
1629880733148,2064
1629880733152,2065
1629880733156,2067
1629880733160,2068
1629880733164,2069
1629880733168,2071
1629880733172,2073
1629880733176,2075
1629880733180,2078
1629880733184,2081
1629880733188,2083
1629880733192,2086
1629880733196,2089
1629880733200,2091
1629880733204,2094
1629880733208,2096
1629880733212,2098
1629880733216,2101
1629880733220,2103
1629880733224,2105
1629880733228,2106
1629880733232,2107
1629880733236,2107
1629880733240,2107
1629880733244,2106
1629880733248,2104
1629880733252,2102
1629880733256,2099
1629880733260,2096
1629880733264,2091
1629880733268,2087
1629880733272,2082
1629880733276,2076
1629880733280,2071
1629880733284,2066
1629880733288,2061
1629880733292,2057
1629880733296,2053
1629880733300,2050
1629880733304,2048
1629880733308,2047
1629880733312,2045
1629880733316,2043
1629880733320,2042
1629880733324,2041
1629880733328,2040
1629880733332,2039
1629880733336,2039
1629880733340,2039
1629880733344,2039
1629880733348,2039
1629880733352,2039
1629880733356,2039
1629880733360,2039
1629880733364,2039
1629880733368,2038
1629880733372,2038
1629880733376,2038
1629880733380,2039
1629880733384,2039
1629880733388,2040
1629880733392,2040
1629880733396,2040
1629880733400,2040
1629880733404,2040
1629880733408,2040
1629880733412,2041
1629880733416,2041
1629880733420,2042
1629880733424,2043
1629880733428,2043
1629880733432,2044
1629880733436,2044
1629880733440,2044
1629880733444,2043
1629880733448,2043
1629880733452,2044
1629880733456,2044
1629880733460,2044
1629880733464,2045
1629880733468,2045
1629880733472,2045
1629880733476,2045
1629880733480,2045
1629880733484,2045
1629880733488,2044
1629880733492,2044
1629880733496,2044
1629880733500,2044
1629880733504,2044
1629880733508,2044
1629880733512,2044
1629880733516,2044
1629880733520,2043
1629880733524,2043
1629880733528,2042
1629880733532,2042
1629880733536,2042
1629880733540,2042
1629880733544,2042
1629880733548,2042
1629880733552,2043
1629880733556,2043
1629880733560,2042
1629880733564,2042
1629880733568,2041
1629880733572,2041
1629880733576,2041
1629880733580,2041
1629880733584,2042
1629880733588,2042
1629880733592,2042
1629880733596,2042
1629880733600,2042
1629880733604,2042
1629880733608,2042
1629880733612,2042
1629880733616,2042
1629880733620,2042
1629880733624,2042
1629880733628,2043
1629880733632,2043
1629880733636,2043
1629880733640,2043
1629880733644,2043
1629880733648,2042
1629880733652,2042
1629880733656,2042
1629880733660,2043
1629880733664,2044
1629880733668,2044
1629880733672,2044
1629880733676,2044
1629880733680,2043
1629880733684,2043
1629880733688,2043
1629880733692,2043
1629880733696,2043
1629880733700,2043
1629880733704,2044
1629880733708,2044
1629880733712,2045
1629880733716,2045
1629880733720,2045
1629880733724,2045
1629880733728,2044
1629880733732,2044
1629880733736,2044
1629880733740,2045
1629880733744,2045
1629880733748,2045
1629880733752,2045
1629880733756,2045
1629880733760,2046
1629880733764,2045
1629880733768,2045
1629880733772,2045
1629880733776,2045
1629880733780,2046
1629880733784,2046
1629880733788,2047
1629880733792,2047
1629880733796,2047
1629880733800,2046
1629880733804,2046
1629880733808,2046
1629880733812,2046
1629880733816,2046
1629880733820,2047
1629880733824,2047
1629880733828,2047
1629880733832,2047
1629880733836,2047
1629880733840,2047
1629880733844,2047
1629880733848,2047
1629880733852,2047
1629880733856,2047
1629880733860,2048
1629880733864,2048
1629880733868,2048
1629880733872,2048
1629880733876,2048
1629880733880,2048
1629880733884,2048
1629880733888,2048
1629880733892,2048
1629880733896,2047
1629880733900,2047
1629880733904,2047
1629880733908,2047
1629880733912,2048
1629880733916,2048
1629880733920,2049
1629880733924,2050
1629880733928,2052
1629880733932,2054
1629880733936,2056
1629880733940,2060
1629880733944,2063
1629880733948,2063
1629880733952,2062
1629880733956,2059
1629880733960,2056
1629880733964,2053
1629880733968,2051
1629880733972,2050
1629880733976,2050
1629880733980,2050
1629880733984,2051
1629880733988,2051
1629880733992,2052
1629880733996,2053
1629880734000,2051
1629880734004,2049
1629880734008,2047
1629880734012,2046
1629880734016,2053
1629880734020,2077
1629880734024,2122
1629880734028,2183
1629880734032,2242
1629880734036,2273
1629880734040,2259
1629880734044,2201
1629880734048,2121
1629880734052,2049
1629880734056,2008
1629880734060,2002
1629880734064,2018
1629880734068,2038
1629880734072,2051
1629880734076,2053
1629880734080,2051
1629880734084,2048
1629880734088,2047
1629880734092,2046
1629880734096,2046
1629880734100,2046
1629880734104,2046
1629880734108,2047
1629880734112,2047
1629880734116,2047
1629880734120,2046
1629880734124,2046
1629880734128,2046
1629880734132,2046
1629880734136,2047
1629880734140,2048
1629880734144,2048
1629880734148,2048
1629880734152,2049
1629880734156,2049
1629880734160,2049
1629880734164,2049
1629880734168,2049
1629880734172,2050
1629880734176,2050
1629880734180,2051
1629880734184,2052
1629880734188,2053
1629880734192,2054
1629880734196,2055
1629880734200,2056
1629880734204,2057
1629880734208,2057
1629880734212,2058
1629880734216,2059
1629880734220,2061
1629880734224,2062
1629880734228,2064
1629880734232,2066
1629880734236,2067
1629880734240,2068
1629880734244,2070
1629880734248,2071
1629880734252,2073
1629880734256,2075
1629880734260,2078
1629880734264,2081
1629880734268,2084
1629880734272,2087
1629880734276,2090
1629880734280,2092
1629880734284,2094
1629880734288,2097
1629880734292,2099
1629880734296,2101
1629880734300,2103
1629880734304,2105
1629880734308,2106
1629880734312,2107
1629880734316,2107
1629880734320,2107
1629880734324,2107
1629880734328,2105
1629880734332,2103
1629880734336,2100
1629880734340,2097
1629880734344,2093
1629880734348,2088
1629880734352,2083
1629880734356,2077
1629880734360,2072
1629880734364,2067
1629880734368,2062
1629880734372,2058
1629880734376,2054
1629880734380,2051
1629880734384,2048
1629880734388,2047
1629880734392,2045
1629880734396,2044
1629880734400,2042
1629880734404,2041
1629880734408,2040
1629880734412,2039
1629880734416,2039
1629880734420,2039
1629880734424,2039
1629880734428,2039
1629880734432,2039
1629880734436,2039
1629880734440,2038
1629880734444,2038
1629880734448,2037
1629880734452,2038
1629880734456,2038
1629880734460,2039
1629880734464,2039
1629880734468,2040
1629880734472,2041
1629880734476,2041
1629880734480,2041
1629880734484,2041
1629880734488,2041
1629880734492,2042
1629880734496,2042
1629880734500,2043
1629880734504,2043
1629880734508,2044
1629880734512,2045
1629880734516,2045
1629880734520,2045
1629880734524,2045
1629880734528,2045
1629880734532,2045
1629880734536,2044
1629880734540,2045
1629880734544,2045
1629880734548,2045
1629880734552,2045
1629880734556,2045
1629880734560,2045
1629880734564,2044
1629880734568,2044
1629880734572,2044
1629880734576,2043
1629880734580,2043
1629880734584,2044
1629880734588,2043
1629880734592,2043
1629880734596,2043
1629880734600,2043
1629880734604,2042
1629880734608,2042
1629880734612,2041
1629880734616,2041
1629880734620,2041
1629880734624,2042
1629880734628,2042
1629880734632,2042
1629880734636,2042
1629880734640,2041
1629880734644,2041
1629880734648,2040
1629880734652,2040
1629880734656,2041
1629880734660,2041
1629880734664,2042
1629880734668,2042
1629880734672,2042
1629880734676,2042
1629880734680,2042
1629880734684,2042
1629880734688,2041
1629880734692,2041
1629880734696,2041
1629880734700,2041
1629880734704,2042
1629880734708,2042
1629880734712,2042
1629880734716,2042
1629880734720,2042
1629880734724,2042
1629880734728,2041
1629880734732,2041
1629880734736,2042
1629880734740,2042
1629880734744,2043
1629880734748,2043
1629880734752,2044
1629880734756,2043
1629880734760,2043
1629880734764,2043
1629880734768,2042
1629880734772,2043
1629880734776,2043
1629880734780,2044
1629880734784,2044
1629880734788,2045
1629880734792,2045
1629880734796,2045
1629880734800,2045
1629880734804,2045
1629880734808,2044
1629880734812,2044
1629880734816,2044
1629880734820,2044
1629880734824,2045
1629880734828,2045
1629880734832,2046
1629880734836,2046
1629880734840,2046
1629880734844,2045
1629880734848,2045
1629880734852,2045
1629880734856,2045
1629880734860,2045
1629880734864,2046
1629880734868,2046
1629880734872,2046
1629880734876,2046
1629880734880,2046
1629880734884,2045
1629880734888,2045
1629880734892,2045
1629880734896,2045
1629880734900,2045
1629880734904,2045
1629880734908,2045
1629880734912,2047
1629880734916,2048
1629880734920,2048
1629880734924,2049
1629880734928,2051
1629880734932,2053
1629880734936,2056
1629880734940,2059
1629880734944,2061
1629880734948,2061
1629880734952,2058
1629880734956,2054
1629880734960,2051
1629880734964,2048
1629880734968,2048
1629880734972,2048
1629880734976,2048
1629880734980,2048
1629880734984,2048
1629880734988,2049
1629880734992,2050
1629880734996,2049
1629880735000,2048
1629880735004,2045
1629880735008,2043
1629880735012,2048
1629880735016,2067
1629880735020,2107
1629880735024,2165
1629880735028,2223
1629880735032,2259
1629880735036,2253
1629880735040,2202
1629880735044,2124
1629880735048,2050
1629880735052,2004
1629880735056,1993
1629880735060,2008
1629880735064,2031
1629880735068,2047
1629880735072,2052
1629880735076,2051
1629880735080,2048
1629880735084,2047
1629880735088,2046
1629880735092,2046
1629880735096,2046
1629880735100,2047
1629880735104,2047
1629880735108,2048
1629880735112,2048
1629880735116,2048
1629880735120,2047
1629880735124,2047
1629880735128,2047
1629880735132,2047
1629880735136,2048
1629880735140,2048
1629880735144,2048
1629880735148,2049
1629880735152,2050
1629880735156,2050
1629880735160,2050
1629880735164,2051
1629880735168,2051
1629880735172,2052
1629880735176,2052
1629880735180,2053
1629880735184,2054
1629880735188,2055
1629880735192,2056
1629880735196,2057
1629880735200,2058
1629880735204,2058
1629880735208,2059
1629880735212,2060
1629880735216,2061
1629880735220,2062
1629880735224,2064
1629880735228,2066
1629880735232,2068
1629880735236,2069
1629880735240,2070
1629880735244,2072
1629880735248,2074
1629880735252,2076
1629880735256,2078
1629880735260,2081
1629880735264,2083
1629880735268,2086
1629880735272,2089
1629880735276,2091
1629880735280,2094
1629880735284,2096
1629880735288,2098
1629880735292,2100
1629880735296,2102
1629880735300,2104
1629880735304,2105
1629880735308,2106
1629880735312,2107
1629880735316,2107
1629880735320,2106
1629880735324,2105
1629880735328,2102
1629880735332,2099
1629880735336,2095
1629880735340,2091
1629880735344,2086
1629880735348,2081
1629880735352,2076
1629880735356,2070
1629880735360,2065
1629880735364,2060
1629880735368,2056
1629880735372,2052
1629880735376,2049
1629880735380,2047
1629880735384,2045
1629880735388,2043
1629880735392,2041
1629880735396,2040
1629880735400,2039
1629880735404,2038
1629880735408,2037
1629880735412,2037
1629880735416,2036
1629880735420,2036
1629880735424,2036
1629880735428,2036
1629880735432,2037
1629880735436,2037
1629880735440,2037
1629880735444,2037
1629880735448,2036
1629880735452,2037
1629880735456,2037
1629880735460,2038
1629880735464,2038
1629880735468,2039
1629880735472,2040
1629880735476,2041
1629880735480,2041
1629880735484,2041
1629880735488,2041
1629880735492,2041
1629880735496,2041
1629880735500,2042
1629880735504,2043
1629880735508,2043
1629880735512,2044
1629880735516,2043
1629880735520,2043
1629880735524,2042
1629880735528,2042
1629880735532,2043
1629880735536,2043
1629880735540,2044
1629880735544,2044
1629880735548,2044
1629880735552,2044
1629880735556,2044
1629880735560,2043
1629880735564,2042
1629880735568,2042
1629880735572,2042
1629880735576,2042
1629880735580,2042
1629880735584,2042
1629880735588,2043
1629880735592,2043
1629880735596,2043
1629880735600,2043
1629880735604,2043
1629880735608,2042
1629880735612,2042
1629880735616,2041
1629880735620,2041
1629880735624,2042
1629880735628,2042
1629880735632,2042
1629880735636,2042
1629880735640,2042
1629880735644,2041
1629880735648,2040
1629880735652,2040
1629880735656,2040
1629880735660,2041
1629880735664,2042
1629880735668,2042
1629880735672,2043
1629880735676,2043
1629880735680,2042
1629880735684,2042
1629880735688,2041
1629880735692,2041
1629880735696,2041
1629880735700,2042
1629880735704,2042
1629880735708,2043
1629880735712,2043
1629880735716,2042
1629880735720,2042
1629880735724,2042
1629880735728,2042
1629880735732,2043
1629880735736,2043
1629880735740,2043
1629880735744,2044
1629880735748,2044
1629880735752,2044
1629880735756,2044
1629880735760,2044
1629880735764,2044
1629880735768,2043
1629880735772,2043
1629880735776,2043
1629880735780,2044
1629880735784,2044
1629880735788,2044
1629880735792,2044
1629880735796,2044
1629880735800,2044
1629880735804,2044
1629880735808,2044
1629880735812,2044
1629880735816,2044
1629880735820,2044
1629880735824,2044
1629880735828,2044
1629880735832,2045
1629880735836,2045
1629880735840,2044
1629880735844,2044
1629880735848,2042
1629880735852,2042
1629880735856,2042
1629880735860,2043
1629880735864,2044
1629880735868,2046
1629880735872,2047
1629880735876,2048
1629880735880,2050
1629880735884,2053
1629880735888,2055
1629880735892,2057
1629880735896,2056
1629880735900,2054
1629880735904,2050
1629880735908,2048
1629880735912,2046
1629880735916,2045
1629880735920,2044
1629880735924,2044
1629880735928,2044
1629880735932,2044
1629880735936,2044
1629880735940,2045
1629880735944,2045
1629880735948,2043
1629880735952,2041
1629880735956,2039
1629880735960,2041
1629880735964,2055
1629880735968,2090
1629880735972,2143
1629880735976,2201
1629880735980,2243
1629880735984,2247
1629880735988,2206
1629880735992,2134
1629880735996,2058
1629880736000,2005
1629880736004,1984
1629880736008,1992
1629880736012,2014
1629880736016,2033
1629880736020,2043
1629880736024,2046
1629880736028,2045
1629880736032,2043
1629880736036,2042
1629880736040,2041
1629880736044,2041
1629880736048,2040
1629880736052,2040
1629880736056,2040
1629880736060,2041
1629880736064,2042
1629880736068,2043
1629880736072,2043
1629880736076,2043
1629880736080,2043
1629880736084,2042
1629880736088,2042
1629880736092,2043
1629880736096,2043
1629880736100,2045
1629880736104,2046
1629880736108,2047
1629880736112,2047
1629880736116,2047
1629880736120,2047
1629880736124,2047
1629880736128,2048
1629880736132,2048
1629880736136,2049
1629880736140,2050
1629880736144,2052
1629880736148,2054
1629880736152,2055
1629880736156,2055
1629880736160,2056
1629880736164,2056
1629880736168,2056
1629880736172,2057
1629880736176,2059
1629880736180,2061
1629880736184,2064
1629880736188,2066
1629880736192,2069
1629880736196,2070
1629880736200,2071
1629880736204,2072
1629880736208,2074
1629880736212,2076
1629880736216,2078
1629880736220,2082
1629880736224,2086
1629880736228,2089
1629880736232,2093
1629880736236,2095
1629880736240,2097
1629880736244,2098
1629880736248,2098
1629880736252,2099
1629880736256,2099
1629880736260,2100
1629880736264,2101
1629880736268,2102
1629880736272,2102
1629880736276,2100
1629880736280,2097
1629880736284,2093
1629880736288,2087
1629880736292,2081
1629880736296,2076
1629880736300,2070
1629880736304,2065
1629880736308,2061
1629880736312,2056
1629880736316,2051
1629880736320,2048
1629880736324,2044
1629880736328,2040
1629880736332,2037
1629880736336,2035
1629880736340,2033
1629880736344,2032
1629880736348,2031
1629880736352,2030
1629880736356,2029
1629880736360,2028
1629880736364,2028
1629880736368,2027
1629880736372,2027
1629880736376,2026
1629880736380,2026
1629880736384,2026
1629880736388,2027
1629880736392,2028
1629880736396,2029
1629880736400,2029
1629880736404,2030
1629880736408,2030
1629880736412,2029
1629880736416,2029
1629880736420,2030
1629880736424,2030
1629880736428,2031
1629880736432,2032
1629880736436,2032
1629880736440,2032
1629880736444,2031
1629880736448,2032
1629880736452,2032
1629880736456,2032
1629880736460,2033
1629880736464,2033
1629880736468,2033
1629880736472,2033
1629880736476,2033
1629880736480,2034
1629880736484,2034
1629880736488,2034
1629880736492,2033
1629880736496,2033
1629880736500,2033
1629880736504,2034
1629880736508,2033
1629880736512,2033
1629880736516,2031
1629880736520,2031
1629880736524,2030
1629880736528,2031
1629880736532,2031
1629880736536,2031
1629880736540,2031
1629880736544,2030
1629880736548,2030
1629880736552,2030
1629880736556,2030
1629880736560,2031
1629880736564,2031
1629880736568,2030
1629880736572,2030
1629880736576,2029
1629880736580,2029
1629880736584,2030
1629880736588,2030
1629880736592,2030
1629880736596,2030
1629880736600,2029
1629880736604,2029
1629880736608,2029
1629880736612,2030
1629880736616,2029
1629880736620,2029
1629880736624,2029
1629880736628,2028
1629880736632,2028
1629880736636,2028
1629880736640,2029
1629880736644,2029
1629880736648,2029
1629880736652,2030
1629880736656,2030
1629880736660,2030
1629880736664,2030
1629880736668,2030
1629880736672,2030
1629880736676,2030
1629880736680,2031
1629880736684,2031
1629880736688,2030
1629880736692,2029
1629880736696,2028
1629880736700,2028
1629880736704,2030
1629880736708,2032
1629880736712,2034
1629880736716,2035
1629880736720,2036
1629880736724,2037
1629880736728,2039
1629880736732,2042
1629880736736,2045
1629880736740,2046
1629880736744,2045
1629880736748,2042
1629880736752,2039
1629880736756,2036
1629880736760,2034
1629880736764,2033
1629880736768,2032
1629880736772,2032
1629880736776,2033
1629880736780,2034
1629880736784,2036
1629880736788,2037
1629880736792,2036
1629880736796,2033
1629880736800,2030
1629880736804,2031
1629880736808,2041
1629880736812,2068
1629880736816,2116
1629880736820,2173
1629880736824,2220
1629880736828,2233
1629880736832,2203
1629880736836,2136
1629880736840,2057
1629880736844,1994
1629880736848,1962
1629880736852,1964
1629880736856,1987
1629880736860,2013
1629880736864,2031
1629880736868,2039
1629880736872,2040
1629880736876,2039
1629880736880,2036
1629880736884,2035
1629880736888,2035
1629880736892,2035
1629880736896,2035
1629880736900,2036
1629880736904,2037
1629880736908,2038
1629880736912,2039
1629880736916,2039
1629880736920,2039
1629880736924,2039
1629880736928,2039
1629880736932,2040
1629880736936,2041
1629880736940,2041
1629880736944,2042
1629880736948,2043
1629880736952,2043
1629880736956,2043
1629880736960,2044
1629880736964,2045
1629880736968,2046
1629880736972,2047
1629880736976,2048
1629880736980,2048
1629880736984,2049
1629880736988,2050
1629880736992,2051
1629880736996,2052
1629880737000,2053
1629880737004,2054
1629880737008,2055
1629880737012,2057
1629880737016,2058
1629880737020,2060
1629880737024,2062
1629880737028,2063
1629880737032,2065
1629880737036,2067
1629880737040,2069
1629880737044,2070
1629880737048,2072
1629880737052,2075
1629880737056,2077
1629880737060,2080
1629880737064,2084
1629880737068,2087
1629880737072,2090
1629880737076,2093
1629880737080,2095
1629880737084,2096
1629880737088,2098
1629880737092,2099
1629880737096,2100
1629880737100,2102
1629880737104,2103
1629880737108,2104
1629880737112,2103
1629880737116,2102
1629880737120,2099
1629880737124,2096
1629880737128,2092
1629880737132,2087
1629880737136,2082
1629880737140,2077
1629880737144,2072
1629880737148,2066
1629880737152,2061
1629880737156,2056
1629880737160,2052
1629880737164,2048
1629880737168,2044
1629880737172,2040
1629880737176,2037
1629880737180,2034
1629880737184,2033
1629880737188,2032
1629880737192,2032
1629880737196,2031
1629880737200,2030
1629880737204,2030
1629880737208,2029
1629880737212,2029
1629880737216,2028
1629880737220,2028
1629880737224,2028
1629880737228,2029
1629880737232,2030
1629880737236,2031
1629880737240,2031
1629880737244,2031
1629880737248,2031
1629880737252,2032
1629880737256,2032
1629880737260,2033
1629880737264,2034
1629880737268,2034
1629880737272,2035
1629880737276,2035
1629880737280,2034
1629880737284,2034
1629880737288,2034
1629880737292,2034
1629880737296,2034
1629880737300,2035
1629880737304,2036
1629880737308,2037
1629880737312,2038
1629880737316,2037
1629880737320,2037
1629880737324,2037
1629880737328,2036
1629880737332,2036
1629880737336,2036
1629880737340,2037
1629880737344,2037
1629880737348,2038
1629880737352,2038
1629880737356,2037
1629880737360,2037
1629880737364,2036
1629880737368,2037
1629880737372,2037
1629880737376,2037
1629880737380,2037
1629880737384,2037
1629880737388,2036
1629880737392,2036
1629880737396,2036
1629880737400,2036
1629880737404,2035
1629880737408,2035
1629880737412,2035
1629880737416,2035
1629880737420,2036
1629880737424,2036
1629880737428,2036
1629880737432,2037
1629880737436,2037
1629880737440,2037
1629880737444,2036
1629880737448,2036
1629880737452,2036
1629880737456,2035
1629880737460,2036
1629880737464,2036
1629880737468,2036
1629880737472,2037
1629880737476,2037
1629880737480,2037
1629880737484,2037
1629880737488,2037
1629880737492,2037
1629880737496,2037
1629880737500,2037
1629880737504,2038
1629880737508,2038
1629880737512,2039
1629880737516,2038
1629880737520,2038
1629880737524,2037
1629880737528,2036
1629880737532,2036
1629880737536,2036
1629880737540,2036
1629880737544,2037
1629880737548,2038
1629880737552,2040
1629880737556,2042
1629880737560,2045
1629880737564,2048
1629880737568,2051
1629880737572,2053
1629880737576,2053
1629880737580,2051
1629880737584,2048
1629880737588,2045
1629880737592,2043
1629880737596,2042
1629880737600,2042
1629880737604,2041
1629880737608,2041
1629880737612,2041
1629880737616,2042
1629880737620,2043
1629880737624,2044
1629880737628,2043
1629880737632,2041
1629880737636,2038
1629880737640,2039
1629880737644,2049
1629880737648,2076
1629880737652,2125
1629880737656,2184
1629880737660,2235
1629880737664,2253
1629880737668,2227
1629880737672,2163
1629880737676,2084
1629880737680,2022
1629880737684,1990
1629880737688,1990
1629880737692,2010
1629880737696,2031
1629880737700,2044
1629880737704,2048
1629880737708,2047
1629880737712,2045
1629880737716,2043
1629880737720,2043
1629880737724,2042
1629880737728,2042
1629880737732,2043
1629880737736,2043
1629880737740,2043
1629880737744,2044
1629880737748,2045
1629880737752,2045
1629880737756,2045
1629880737760,2046
1629880737764,2046
1629880737768,2046
1629880737772,2046
1629880737776,2046
1629880737780,2047
1629880737784,2048
1629880737788,2048
1629880737792,2049
1629880737796,2049
1629880737800,2050
1629880737804,2050
1629880737808,2050
1629880737812,2051
1629880737816,2051
1629880737820,2052
1629880737824,2053
1629880737828,2054
1629880737832,2056
1629880737836,2057
1629880737840,2059
1629880737844,2060
1629880737848,2060
1629880737852,2061
1629880737856,2062
1629880737860,2064
1629880737864,2066
1629880737868,2068
1629880737872,2070
1629880737876,2072
1629880737880,2075
1629880737884,2077
1629880737888,2079
1629880737892,2081
1629880737896,2084
1629880737900,2087
1629880737904,2090
1629880737908,2093
1629880737912,2096
1629880737916,2098
1629880737920,2100
1629880737924,2102
1629880737928,2103
1629880737932,2104
1629880737936,2105
1629880737940,2106
1629880737944,2107
1629880737948,2107
1629880737952,2106
1629880737956,2104
1629880737960,2101
1629880737964,2097
1629880737968,2091
1629880737972,2086
1629880737976,2080
1629880737980,2075
1629880737984,2070
1629880737988,2065
1629880737992,2061
1629880737996,2057
1629880738000,2054
1629880738004,2050
1629880738008,2048
1629880738012,2045
1629880738016,2043
1629880738020,2042
1629880738024,2041
1629880738028,2041
1629880738032,2040
1629880738036,2040
1629880738040,2039
1629880738044,2039
1629880738048,2038
1629880738052,2038
1629880738056,2038
1629880738060,2038
1629880738064,2039
1629880738068,2039
1629880738072,2040
1629880738076,2040
1629880738080,2040
1629880738084,2040
1629880738088,2039
1629880738092,2040
1629880738096,2040
1629880738100,2041
1629880738104,2042
1629880738108,2043
1629880738112,2044
1629880738116,2044
1629880738120,2043
1629880738124,2043
1629880738128,2043
1629880738132,2043
1629880738136,2043
1629880738140,2044
1629880738144,2045
1629880738148,2045
1629880738152,2046
1629880738156,2046
1629880738160,2046
1629880738164,2045
1629880738168,2045
1629880738172,2044
1629880738176,2044
1629880738180,2044
1629880738184,2045
1629880738188,2045
1629880738192,2045
1629880738196,2045
1629880738200,2044
1629880738204,2043
1629880738208,2043
1629880738212,2043
1629880738216,2042
1629880738220,2043
1629880738224,2043
1629880738228,2044
1629880738232,2044
1629880738236,2043
1629880738240,2042
1629880738244,2042
1629880738248,2041
1629880738252,2041
1629880738256,2041
1629880738260,2042
1629880738264,2042
1629880738268,2043
1629880738272,2043
1629880738276,2042
1629880738280,2042
1629880738284,2042
1629880738288,2042
1629880738292,2042
1629880738296,2041
1629880738300,2042
1629880738304,2042
1629880738308,2042
1629880738312,2042
1629880738316,2042
1629880738320,2042
1629880738324,2042
1629880738328,2042
1629880738332,2042
1629880738336,2042
1629880738340,2042
1629880738344,2043
1629880738348,2043
1629880738352,2043
1629880738356,2042
1629880738360,2041
1629880738364,2039
1629880738368,2039
1629880738372,2039
1629880738376,2040
1629880738380,2042
1629880738384,2043
1629880738388,2045
1629880738392,2048
1629880738396,2050
1629880738400,2053
1629880738404,2055
1629880738408,2055
1629880738412,2054
1629880738416,2052
1629880738420,2049
1629880738424,2048
1629880738428,2046
1629880738432,2045
1629880738436,2045
1629880738440,2044
1629880738444,2044
1629880738448,2044
1629880738452,2045
1629880738456,2046
1629880738460,2046
1629880738464,2044
1629880738468,2042
1629880738472,2039
1629880738476,2043
1629880738480,2058
1629880738484,2094
1629880738488,2152
1629880738492,2215
1629880738496,2259
1629880738500,2264
1629880738504,2222
1629880738508,2148
1629880738512,2071
1629880738516,2018
1629880738520,1998
1629880738524,2007
1629880738528,2026
1629880738532,2041
1629880738536,2047
1629880738540,2046
1629880738544,2045
1629880738548,2043
1629880738552,2043
1629880738556,2043
1629880738560,2042
1629880738564,2042
1629880738568,2041
1629880738572,2041
1629880738576,2042
1629880738580,2042
1629880738584,2043
1629880738588,2043
1629880738592,2044
1629880738596,2044
1629880738600,2044
1629880738604,2044
1629880738608,2045
1629880738612,2045
1629880738616,2045
1629880738620,2046
1629880738624,2046
1629880738628,2047
1629880738632,2048
1629880738636,2048
1629880738640,2048
1629880738644,2049
1629880738648,2049
1629880738652,2049
1629880738656,2050
1629880738660,2052
1629880738664,2053
1629880738668,2055
1629880738672,2056
1629880738676,2057
1629880738680,2058
1629880738684,2059
1629880738688,2060
1629880738692,2061
1629880738696,2063
1629880738700,2065
1629880738704,2067
1629880738708,2069
1629880738712,2071
1629880738716,2073
1629880738720,2076
1629880738724,2078
1629880738728,2081
1629880738732,2083
1629880738736,2086
1629880738740,2089
1629880738744,2092
1629880738748,2094
1629880738752,2097
1629880738756,2099
1629880738760,2100
1629880738764,2101
1629880738768,2102
1629880738772,2103
1629880738776,2103
1629880738780,2103
1629880738784,2103
1629880738788,2102
1629880738792,2099
1629880738796,2096
1629880738800,2092
1629880738804,2087
1629880738808,2081
1629880738812,2076
1629880738816,2070
1629880738820,2066
1629880738824,2062
1629880738828,2058
1629880738832,2054
1629880738836,2051
1629880738840,2048
1629880738844,2047
1629880738848,2044
1629880738852,2042
1629880738856,2041
1629880738860,2040
1629880738864,2040
1629880738868,2040
1629880738872,2040
1629880738876,2040
1629880738880,2039
1629880738884,2039
1629880738888,2039
1629880738892,2039
1629880738896,2039
1629880738900,2039
1629880738904,2040
1629880738908,2040
1629880738912,2041
1629880738916,2041
1629880738920,2041
1629880738924,2041
1629880738928,2040
1629880738932,2040
1629880738936,2041
1629880738940,2041
1629880738944,2042
1629880738948,2043
1629880738952,2044
1629880738956,2044
1629880738960,2044
1629880738964,2044
1629880738968,2044
1629880738972,2044
1629880738976,2045
1629880738980,2045
1629880738984,2045
1629880738988,2045
1629880738992,2046
1629880738996,2046
1629880739000,2045
1629880739004,2045
1629880739008,2045
1629880739012,2045
1629880739016,2045
1629880739020,2045
1629880739024,2045
1629880739028,2045
1629880739032,2046
1629880739036,2045
1629880739040,2045
1629880739044,2044
1629880739048,2044
1629880739052,2044
1629880739056,2044
1629880739060,2044
1629880739064,2044
1629880739068,2045
1629880739072,2045
1629880739076,2045
1629880739080,2045
1629880739084,2044
1629880739088,2044
1629880739092,2044
1629880739096,2044
1629880739100,2044
1629880739104,2045
1629880739108,2045
1629880739112,2045
1629880739116,2045
1629880739120,2044
1629880739124,2044
1629880739128,2043
1629880739132,2044
1629880739136,2044
1629880739140,2044
1629880739144,2045
1629880739148,2045
1629880739152,2046
1629880739156,2046
1629880739160,2045
1629880739164,2045
1629880739168,2045
1629880739172,2045
1629880739176,2045
1629880739180,2045
1629880739184,2046
1629880739188,2046
1629880739192,2046
1629880739196,2047
1629880739200,2047
1629880739204,2046
1629880739208,2046
1629880739212,2046
1629880739216,2046
1629880739220,2046
1629880739224,2047
1629880739228,2047
1629880739232,2048
1629880739236,2048
1629880739240,2048
1629880739244,2047
1629880739248,2046
1629880739252,2046
1629880739256,2045
1629880739260,2044
1629880739264,2044
1629880739268,2045
1629880739272,2047
1629880739276,2048
1629880739280,2048
1629880739284,2049
1629880739288,2052
1629880739292,2055
1629880739296,2058
1629880739300,2061
1629880739304,2062
1629880739308,2061
1629880739312,2058
1629880739316,2055
1629880739320,2052
1629880739324,2050
1629880739328,2049
1629880739332,2048
1629880739336,2048
1629880739340,2049
1629880739344,2049
1629880739348,2050
1629880739352,2051
1629880739356,2051
1629880739360,2049
1629880739364,2047
1629880739368,2044
1629880739372,2047
1629880739376,2061
1629880739380,2095
1629880739384,2150
1629880739388,2213
1629880739392,2260
1629880739396,2268
1629880739400,2230
1629880739404,2158
1629880739408,2079
1629880739412,2024
1629880739416,2001
1629880739420,2009
1629880739424,2030
1629880739428,2047
1629880739432,2053
1629880739436,2052
1629880739440,2049
1629880739444,2048
1629880739448,2046
1629880739452,2046
1629880739456,2046
1629880739460,2047
1629880739464,2047
1629880739468,2047
1629880739472,2047
1629880739476,2047
1629880739480,2048
1629880739484,2048
1629880739488,2048
1629880739492,2048
1629880739496,2048
1629880739500,2048
1629880739504,2048
1629880739508,2049
1629880739512,2050
1629880739516,2050
1629880739520,2051
1629880739524,2051
1629880739528,2051
1629880739532,2052
1629880739536,2052
1629880739540,2053
1629880739544,2054
1629880739548,2055
1629880739552,2056
1629880739556,2057
1629880739560,2058
1629880739564,2058
1629880739568,2059
1629880739572,2060
1629880739576,2061
1629880739580,2062
1629880739584,2064
1629880739588,2066
1629880739592,2067
1629880739596,2069
1629880739600,2070
1629880739604,2072
1629880739608,2073
1629880739612,2075
1629880739616,2077
1629880739620,2080
1629880739624,2083
1629880739628,2085
1629880739632,2088
1629880739636,2090
1629880739640,2093
1629880739644,2095
1629880739648,2097
1629880739652,2099
1629880739656,2100
1629880739660,2102
1629880739664,2104
1629880739668,2105
1629880739672,2105
1629880739676,2105
1629880739680,2105
1629880739684,2103
1629880739688,2101
1629880739692,2098
1629880739696,2095
1629880739700,2091
1629880739704,2086
1629880739708,2081
1629880739712,2076
1629880739716,2071
1629880739720,2067
1629880739724,2062
1629880739728,2057
1629880739732,2054
1629880739736,2051
1629880739740,2048
1629880739744,2048
1629880739748,2046
1629880739752,2045
1629880739756,2044
1629880739760,2043
1629880739764,2042
1629880739768,2041
1629880739772,2040
1629880739776,2040
1629880739780,2040
1629880739784,2041
1629880739788,2041
1629880739792,2041
1629880739796,2041
1629880739800,2041
1629880739804,2041
1629880739808,2040
1629880739812,2040
1629880739816,2040
1629880739820,2041
1629880739824,2041
1629880739828,2042
1629880739832,2042
1629880739836,2042
1629880739840,2043
1629880739844,2043
1629880739848,2043
1629880739852,2043
1629880739856,2043
1629880739860,2044
1629880739864,2045
1629880739868,2046
1629880739872,2046
1629880739876,2046
1629880739880,2046
1629880739884,2046
1629880739888,2045
1629880739892,2045
1629880739896,2045
1629880739900,2045
1629880739904,2046
1629880739908,2046
1629880739912,2046
1629880739916,2046
1629880739920,2045
1629880739924,2045
1629880739928,2044
1629880739932,2043
1629880739936,2043
1629880739940,2044
1629880739944,2044
1629880739948,2044
1629880739952,2044
1629880739956,2044
1629880739960,2043
1629880739964,2043
1629880739968,2042
1629880739972,2042
1629880739976,2042
1629880739980,2042
1629880739984,2043
1629880739988,2043
1629880739992,2043
1629880739996,2043
1629880740000,2043
1629880740004,2043
1629880740008,2042
1629880740012,2042
1629880740016,2042
1629880740020,2042
1629880740024,2043
1629880740028,2043
1629880740032,2044
1629880740036,2043
1629880740040,2043
1629880740044,2043
1629880740048,2042
1629880740052,2042
1629880740056,2042
1629880740060,2043
1629880740064,2043
1629880740068,2044
1629880740072,2044
1629880740076,2044
1629880740080,2044
1629880740084,2043
1629880740088,2043
1629880740092,2043
1629880740096,2043
1629880740100,2044
1629880740104,2044
1629880740108,2045
1629880740112,2045
1629880740116,2045
1629880740120,2044
1629880740124,2044
1629880740128,2044
1629880740132,2044
1629880740136,2044
1629880740140,2044
1629880740144,2045
1629880740148,2045
1629880740152,2046
1629880740156,2046
1629880740160,2046
1629880740164,2045
1629880740168,2045
1629880740172,2045
1629880740176,2045
1629880740180,2045
1629880740184,2046
1629880740188,2046
1629880740192,2046
1629880740196,2046
1629880740200,2045
1629880740204,2045
1629880740208,2045
1629880740212,2045
1629880740216,2045
1629880740220,2046
1629880740224,2047
1629880740228,2047
1629880740232,2047
1629880740236,2047
1629880740240,2047
1629880740244,2047
1629880740248,2046
1629880740252,2046
1629880740256,2045
1629880740260,2045
1629880740264,2045
1629880740268,2045
1629880740272,2046
1629880740276,2047
1629880740280,2048
1629880740284,2048
1629880740288,2050
1629880740292,2052
1629880740296,2055
1629880740300,2059
1629880740304,2061
1629880740308,2060
1629880740312,2058
1629880740316,2055
1629880740320,2051
1629880740324,2049
1629880740328,2048
1629880740332,2048
1629880740336,2048
1629880740340,2048
1629880740344,2048
1629880740348,2049
1629880740352,2049
1629880740356,2049
1629880740360,2048
1629880740364,2046
1629880740368,2044
1629880740372,2044
1629880740376,2053
1629880740380,2080
1629880740384,2129
1629880740388,2192
1629880740392,2248
1629880740396,2272
1629880740400,2250
1629880740404,2186
1629880740408,2105
1629880740412,2039
1629880740416,2005
1629880740420,2004
1629880740424,2022
1629880740428,2041
1629880740432,2050
1629880740436,2051
1629880740440,2048
1629880740444,2046
1629880740448,2045
1629880740452,2044
1629880740456,2044
1629880740460,2044
1629880740464,2045
1629880740468,2045
1629880740472,2045
1629880740476,2045
1629880740480,2045
1629880740484,2045
1629880740488,2045
1629880740492,2045
1629880740496,2045
1629880740500,2046
1629880740504,2047
1629880740508,2048
1629880740512,2048
1629880740516,2048
1629880740520,2048
1629880740524,2048
1629880740528,2048
1629880740532,2049
1629880740536,2049
1629880740540,2050
1629880740544,2051
1629880740548,2052
1629880740552,2053
1629880740556,2054
1629880740560,2055
1629880740564,2055
1629880740568,2056
1629880740572,2057
1629880740576,2058
1629880740580,2060
1629880740584,2061
1629880740588,2063
1629880740592,2064
1629880740596,2065
1629880740600,2067
1629880740604,2068
1629880740608,2069
1629880740612,2071
1629880740616,2073
1629880740620,2075
1629880740624,2078
1629880740628,2081
1629880740632,2084
1629880740636,2086
1629880740640,2088
1629880740644,2090
1629880740648,2091
1629880740652,2093
1629880740656,2095
1629880740660,2097
1629880740664,2099
1629880740668,2100
1629880740672,2101
1629880740676,2101
1629880740680,2101
1629880740684,2100
1629880740688,2099
1629880740692,2096
1629880740696,2094
1629880740700,2090
1629880740704,2086
1629880740708,2082
1629880740712,2077
1629880740716,2072
1629880740720,2067
1629880740724,2062
1629880740728,2058
1629880740732,2054
1629880740736,2051
1629880740740,2048
1629880740744,2047
1629880740748,2045
1629880740752,2043
1629880740756,2042
1629880740760,2040
1629880740764,2039
1629880740768,2038
1629880740772,2038
1629880740776,2037
1629880740780,2037
1629880740784,2038
1629880740788,2038
1629880740792,2038
1629880740796,2038
1629880740800,2038
1629880740804,2038
1629880740808,2037
1629880740812,2037
1629880740816,2037
1629880740820,2038
1629880740824,2039
1629880740828,2039
1629880740832,2040
1629880740836,2040
1629880740840,2040
1629880740844,2040
1629880740848,2040
1629880740852,2040
1629880740856,2041
1629880740860,2042
1629880740864,2043
1629880740868,2043
1629880740872,2043
1629880740876,2043
1629880740880,2043
1629880740884,2043
1629880740888,2042
1629880740892,2043
1629880740896,2043
1629880740900,2043
1629880740904,2043
1629880740908,2043
1629880740912,2044
1629880740916,2043
1629880740920,2043
1629880740924,2043
1629880740928,2042
1629880740932,2042
1629880740936,2042
1629880740940,2042
1629880740944,2042
1629880740948,2042
1629880740952,2042
1629880740956,2041
1629880740960,2041
1629880740964,2040
1629880740968,2040
1629880740972,2040
1629880740976,2040
1629880740980,2040
1629880740984,2040
1629880740988,2041
1629880740992,2041
1629880740996,2041
1629880741000,2040
1629880741004,2040
1629880741008,2039
1629880741012,2039
1629880741016,2039
1629880741020,2040
1629880741024,2041
1629880741028,2041
1629880741032,2041
1629880741036,2041
1629880741040,2040
1629880741044,2040
1629880741048,2040
1629880741052,2040
1629880741056,2040
1629880741060,2041
1629880741064,2041
1629880741068,2041
1629880741072,2042
1629880741076,2042
1629880741080,2041
1629880741084,2041
1629880741088,2040
1629880741092,2040
1629880741096,2041
1629880741100,2041
1629880741104,2042
1629880741108,2042
1629880741112,2042
1629880741116,2042
1629880741120,2041
1629880741124,2041
1629880741128,2041
1629880741132,2041
1629880741136,2041
1629880741140,2042
1629880741144,2042
1629880741148,2042
1629880741152,2042
1629880741156,2042
1629880741160,2042
1629880741164,2042
1629880741168,2042
1629880741172,2042
1629880741176,2042
1629880741180,2042
1629880741184,2042
1629880741188,2042
1629880741192,2043
1629880741196,2043
1629880741200,2043
1629880741204,2043
1629880741208,2043
1629880741212,2043
1629880741216,2042
1629880741220,2043
1629880741224,2043
1629880741228,2043
1629880741232,2043
1629880741236,2043
1629880741240,2042
1629880741244,2041
1629880741248,2040
1629880741252,2041
1629880741256,2042
1629880741260,2044
1629880741264,2045
1629880741268,2047
1629880741272,2049
1629880741276,2052
1629880741280,2055
1629880741284,2057
1629880741288,2056
1629880741292,2054
1629880741296,2051
1629880741300,2048
1629880741304,2047
1629880741308,2046
1629880741312,2045
1629880741316,2045
1629880741320,2045
1629880741324,2045
1629880741328,2045
1629880741332,2046
1629880741336,2046
1629880741340,2045
1629880741344,2043
1629880741348,2041
1629880741352,2040
1629880741356,2047
1629880741360,2069
1629880741364,2112
1629880741368,2172
1629880741372,2230
1629880741376,2260
1629880741380,2247
1629880741384,2190
1629880741388,2112
1629880741392,2043
1629880741396,2002
1629880741400,1996
1629880741404,2012
1629880741408,2033
1629880741412,2046
1629880741416,2048
1629880741420,2047
1629880741424,2045
1629880741428,2044
1629880741432,2043
1629880741436,2043
1629880741440,2043
1629880741444,2043
1629880741448,2043
1629880741452,2043
1629880741456,2043
1629880741460,2044
1629880741464,2045
1629880741468,2045
1629880741472,2045
1629880741476,2046
1629880741480,2046
1629880741484,2046
1629880741488,2046
1629880741492,2047
1629880741496,2047
1629880741500,2048
1629880741504,2048
1629880741508,2049
1629880741512,2049
1629880741516,2050
1629880741520,2050
1629880741524,2050
1629880741528,2051
1629880741532,2052
1629880741536,2053
1629880741540,2054
1629880741544,2055
1629880741548,2056
1629880741552,2058
1629880741556,2059
1629880741560,2060
1629880741564,2061
1629880741568,2062
1629880741572,2063
1629880741576,2064
1629880741580,2066
1629880741584,2069
1629880741588,2071
1629880741592,2073
1629880741596,2075
1629880741600,2077
1629880741604,2078
1629880741608,2080
1629880741612,2083
1629880741616,2085
1629880741620,2088
1629880741624,2091
1629880741628,2094
1629880741632,2096
1629880741636,2098
1629880741640,2099
1629880741644,2100
1629880741648,2101
1629880741652,2101
1629880741656,2102
1629880741660,2102
1629880741664,2102
1629880741668,2101
1629880741672,2100
1629880741676,2097
1629880741680,2093
1629880741684,2088
1629880741688,2083
1629880741692,2078
1629880741696,2073
1629880741700,2068
1629880741704,2064
1629880741708,2060
1629880741712,2056
1629880741716,2053
1629880741720,2049
1629880741724,2047
1629880741728,2044
1629880741732,2042
1629880741736,2041
1629880741740,2040
1629880741744,2039
1629880741748,2039
1629880741752,2038
1629880741756,2037
1629880741760,2037
1629880741764,2036
1629880741768,2036
1629880741772,2036
1629880741776,2036
1629880741780,2036
1629880741784,2036
1629880741788,2037
1629880741792,2037
1629880741796,2037
1629880741800,2038
1629880741804,2038
1629880741808,2038
1629880741812,2038
1629880741816,2039
1629880741820,2040
1629880741824,2041
1629880741828,2042
1629880741832,2042
1629880741836,2043
1629880741840,2043
1629880741844,2042
1629880741848,2042
1629880741852,2042
1629880741856,2042
1629880741860,2042
1629880741864,2043
1629880741868,2043
1629880741872,2044
1629880741876,2044
1629880741880,2044
1629880741884,2043
1629880741888,2042
1629880741892,2042
1629880741896,2042
1629880741900,2042
1629880741904,2043
1629880741908,2043
1629880741912,2043
1629880741916,2043
1629880741920,2042
1629880741924,2042
1629880741928,2041
1629880741932,2041
1629880741936,2040
1629880741940,2040
1629880741944,2040
1629880741948,2041
1629880741952,2041
1629880741956,2041
1629880741960,2040
1629880741964,2040
1629880741968,2039
1629880741972,2039
1629880741976,2039
1629880741980,2040
1629880741984,2040
1629880741988,2040
1629880741992,2040
1629880741996,2040
1629880742000,2040
1629880742004,2040
1629880742008,2040
1629880742012,2040
1629880742016,2040
1629880742020,2040
1629880742024,2041
1629880742028,2041
1629880742032,2041
1629880742036,2041
1629880742040,2041
1629880742044,2041
1629880742048,2041
1629880742052,2041
1629880742056,2041
1629880742060,2041
1629880742064,2041
1629880742068,2042
1629880742072,2042
1629880742076,2042
1629880742080,2042
1629880742084,2042
1629880742088,2041
1629880742092,2041
1629880742096,2041
1629880742100,2042
1629880742104,2042
1629880742108,2043
1629880742112,2043
1629880742116,2043
1629880742120,2043
1629880742124,2041
1629880742128,2041
1629880742132,2041
1629880742136,2041
1629880742140,2041
1629880742144,2042
1629880742148,2042
1629880742152,2042
1629880742156,2042
1629880742160,2042
1629880742164,2042
1629880742168,2041
1629880742172,2041
1629880742176,2041
1629880742180,2041
1629880742184,2042
1629880742188,2042
1629880742192,2043
1629880742196,2042
1629880742200,2042
1629880742204,2040
1629880742208,2039
1629880742212,2039
1629880742216,2040
1629880742220,2041
1629880742224,2043
1629880742228,2045
1629880742232,2046
1629880742236,2048
1629880742240,2049
1629880742244,2052
1629880742248,2054
1629880742252,2054
1629880742256,2052
1629880742260,2049
1629880742264,2046
1629880742268,2044
1629880742272,2043
1629880742276,2043
1629880742280,2043
1629880742284,2042
1629880742288,2042
1629880742292,2042
1629880742296,2042
1629880742300,2041
1629880742304,2040
1629880742308,2039
1629880742312,2037
1629880742316,2038
1629880742320,2048
1629880742324,2076
1629880742328,2125
1629880742332,2185
1629880742336,2234
1629880742340,2251
1629880742344,2222
1629880742348,2156
1629880742352,2077
1629880742356,2014
1629880742360,1982
1629880742364,1984
1629880742368,2004
1629880742372,2025
1629880742376,2039
1629880742380,2043
1629880742384,2042
1629880742388,2040
1629880742392,2039
1629880742396,2039
1629880742400,2039
1629880742404,2039
1629880742408,2038
1629880742412,2038
1629880742416,2038
1629880742420,2038
1629880742424,2038
1629880742428,2038
1629880742432,2038
1629880742436,2039
1629880742440,2039
1629880742444,2039
1629880742448,2039
1629880742452,2039
1629880742456,2040
1629880742460,2041
1629880742464,2042
1629880742468,2043
1629880742472,2044
1629880742476,2045
1629880742480,2044
1629880742484,2044
1629880742488,2044
1629880742492,2045
1629880742496,2046
1629880742500,2047
1629880742504,2048
1629880742508,2049
1629880742512,2051
1629880742516,2052
1629880742520,2053
1629880742524,2054
1629880742528,2054
1629880742532,2055
1629880742536,2055
1629880742540,2057
1629880742544,2059
1629880742548,2062
1629880742552,2065
1629880742556,2067
1629880742560,2069
1629880742564,2071
1629880742568,2073
1629880742572,2075
1629880742576,2077
1629880742580,2080
1629880742584,2083
1629880742588,2085
1629880742592,2087
1629880742596,2089
1629880742600,2091
1629880742604,2092
1629880742608,2094
1629880742612,2097
1629880742616,2098
1629880742620,2099
1629880742624,2098
1629880742628,2097
1629880742632,2095
1629880742636,2092
1629880742640,2089
1629880742644,2086
1629880742648,2081
1629880742652,2077
1629880742656,2072
1629880742660,2067
1629880742664,2061
1629880742668,2056
1629880742672,2051
1629880742676,2046
1629880742680,2042
1629880742684,2038
1629880742688,2034
1629880742692,2031
1629880742696,2029
1629880742700,2028
1629880742704,2028
1629880742708,2028
1629880742712,2027
1629880742716,2026
1629880742720,2025
1629880742724,2023
1629880742728,2022
1629880742732,2022
1629880742736,2022
1629880742740,2021
1629880742744,2021
1629880742748,2022
1629880742752,2023
1629880742756,2024
1629880742760,2025
1629880742764,2026
1629880742768,2026
1629880742772,2027
1629880742776,2027
1629880742780,2028
1629880742784,2028
1629880742788,2028
1629880742792,2028
1629880742796,2028
1629880742800,2029
1629880742804,2030
1629880742808,2030
1629880742812,2030
1629880742816,2030
1629880742820,2029
1629880742824,2029
1629880742828,2030
1629880742832,2031
1629880742836,2032
1629880742840,2032
1629880742844,2032
1629880742848,2031
1629880742852,2031
1629880742856,2031
1629880742860,2031
1629880742864,2031
1629880742868,2031
1629880742872,2030
1629880742876,2030
1629880742880,2029
1629880742884,2029
1629880742888,2028
1629880742892,2028
1629880742896,2027
1629880742900,2027
1629880742904,2028
1629880742908,2029
1629880742912,2029
1629880742916,2029
1629880742920,2028
1629880742924,2027
1629880742928,2027
1629880742932,2028
1629880742936,2028
1629880742940,2029
1629880742944,2028
1629880742948,2028
1629880742952,2028
1629880742956,2028
1629880742960,2029
1629880742964,2029
1629880742968,2028
1629880742972,2027
1629880742976,2026
1629880742980,2027
1629880742984,2028
1629880742988,2030
1629880742992,2031
1629880742996,2031
1629880743000,2030
1629880743004,2029
1629880743008,2028
1629880743012,2028
1629880743016,2029
1629880743020,2030
1629880743024,2030
1629880743028,2030
1629880743032,2030
1629880743036,2030
1629880743040,2030
1629880743044,2031
1629880743048,2032
1629880743052,2033
1629880743056,2035
1629880743060,2038
1629880743064,2042
1629880743068,2045
1629880743072,2047
1629880743076,2046
1629880743080,2044
1629880743084,2040
1629880743088,2036
1629880743092,2034
1629880743096,2033
1629880743100,2034
1629880743104,2034
1629880743108,2034
1629880743112,2033
1629880743116,2033
1629880743120,2033
1629880743124,2033
1629880743128,2032
1629880743132,2031
1629880743136,2030
1629880743140,2033
1629880743144,2046
1629880743148,2075
1629880743152,2123
1629880743156,2178
1629880743160,2219
1629880743164,2225
1629880743168,2188
1629880743172,2118
1629880743176,2041
1629880743180,1983
1629880743184,1958
1629880743188,1964
1629880743192,1989
1629880743196,2013
1629880743200,2030
1629880743204,2036
1629880743208,2038
1629880743212,2037
1629880743216,2036
1629880743220,2036
1629880743224,2037
1629880743228,2038
1629880743232,2038
1629880743236,2039
1629880743240,2039
1629880743244,2039
1629880743248,2039
1629880743252,2039
1629880743256,2040
1629880743260,2041
1629880743264,2042
1629880743268,2043
1629880743272,2043
1629880743276,2043
1629880743280,2042
1629880743284,2042
1629880743288,2043
1629880743292,2044
1629880743296,2045
1629880743300,2047
1629880743304,2048
1629880743308,2048
1629880743312,2049
1629880743316,2049
1629880743320,2050
1629880743324,2050
1629880743328,2052
1629880743332,2053
1629880743336,2055
1629880743340,2057
1629880743344,2059
1629880743348,2060
1629880743352,2061
1629880743356,2061
1629880743360,2062
1629880743364,2063
1629880743368,2066
1629880743372,2068
1629880743376,2071
1629880743380,2073
1629880743384,2075
1629880743388,2078
1629880743392,2081
1629880743396,2083
1629880743400,2086
1629880743404,2088
1629880743408,2091
1629880743412,2093
1629880743416,2096
1629880743420,2098
1629880743424,2101
1629880743428,2103
1629880743432,2104
1629880743436,2105
1629880743440,2106
1629880743444,2105
1629880743448,2104
1629880743452,2103
1629880743456,2100
1629880743460,2098
1629880743464,2095
1629880743468,2091
1629880743472,2087
1629880743476,2081
1629880743480,2074
1629880743484,2068
1629880743488,2061
1629880743492,2056
1629880743496,2052
1629880743500,2049
1629880743504,2047
1629880743508,2043
1629880743512,2041
1629880743516,2038
1629880743520,2036
1629880743524,2036
1629880743528,2035
1629880743532,2034
1629880743536,2033
1629880743540,2032
1629880743544,2031
1629880743548,2031
1629880743552,2032
1629880743556,2032
1629880743560,2032
1629880743564,2032
1629880743568,2032
1629880743572,2032
1629880743576,2033
1629880743580,2033
1629880743584,2034
1629880743588,2035
1629880743592,2036
1629880743596,2036
1629880743600,2037
1629880743604,2037
1629880743608,2036
1629880743612,2037
1629880743616,2037
1629880743620,2038
1629880743624,2039
1629880743628,2040
1629880743632,2041
1629880743636,2041
1629880743640,2041
1629880743644,2041
1629880743648,2041
1629880743652,2041
1629880743656,2041
1629880743660,2041
1629880743664,2041
1629880743668,2041
1629880743672,2042
1629880743676,2041
1629880743680,2041
1629880743684,2040
1629880743688,2040
1629880743692,2040
1629880743696,2040
1629880743700,2040
1629880743704,2041
1629880743708,2040
1629880743712,2040
1629880743716,2040
1629880743720,2039
1629880743724,2039
1629880743728,2038
1629880743732,2038
1629880743736,2038
1629880743740,2039
1629880743744,2039
1629880743748,2039
1629880743752,2039
1629880743756,2039
1629880743760,2038
1629880743764,2038
1629880743768,2038
1629880743772,2038
1629880743776,2038
1629880743780,2039
1629880743784,2039
1629880743788,2040
1629880743792,2040
1629880743796,2040
1629880743800,2040
1629880743804,2040
1629880743808,2039
1629880743812,2039
1629880743816,2039
1629880743820,2040
1629880743824,2041
1629880743828,2041
1629880743832,2042
1629880743836,2041
1629880743840,2041
1629880743844,2041
1629880743848,2040
1629880743852,2040
1629880743856,2041
1629880743860,2041
1629880743864,2042
1629880743868,2041
1629880743872,2041
1629880743876,2040
1629880743880,2040
1629880743884,2040
1629880743888,2040
1629880743892,2041
1629880743896,2043
1629880743900,2046
1629880743904,2049
1629880743908,2053
1629880743912,2055
1629880743916,2056
1629880743920,2055
1629880743924,2053
1629880743928,2049
1629880743932,2048
1629880743936,2046
1629880743940,2045
1629880743944,2045
1629880743948,2045
1629880743952,2045
1629880743956,2046
1629880743960,2046
1629880743964,2047
1629880743968,2046
1629880743972,2045
1629880743976,2042
1629880743980,2040
1629880743984,2043
1629880743988,2055
1629880743992,2086
1629880743996,2137
1629880744000,2197
1629880744004,2246
1629880744008,2261
1629880744012,2231
1629880744016,2165
1629880744020,2087
1629880744024,2027
1629880744028,1998
1629880744032,2000
1629880744036,2019
1629880744040,2038
1629880744044,2048
1629880744048,2049
1629880744052,2048
1629880744056,2046
1629880744060,2044
1629880744064,2044
1629880744068,2044
1629880744072,2045
1629880744076,2045
1629880744080,2045
1629880744084,2044
1629880744088,2044
1629880744092,2045
1629880744096,2045
1629880744100,2046
1629880744104,2047
1629880744108,2047
1629880744112,2048
1629880744116,2048
1629880744120,2048
1629880744124,2048
1629880744128,2048
1629880744132,2048
1629880744136,2048
1629880744140,2049
1629880744144,2051
1629880744148,2051
1629880744152,2052
1629880744156,2053
1629880744160,2053
1629880744164,2054
1629880744168,2054
1629880744172,2055
1629880744176,2056
1629880744180,2057
1629880744184,2059
1629880744188,2060
1629880744192,2062
1629880744196,2063
1629880744200,2064
1629880744204,2065
1629880744208,2066
1629880744212,2068
1629880744216,2069
1629880744220,2072
1629880744224,2074
1629880744228,2077
1629880744232,2079
1629880744236,2082
1629880744240,2084
1629880744244,2086
1629880744248,2089
1629880744252,2092
1629880744256,2094
1629880744260,2097
1629880744264,2099
1629880744268,2101
1629880744272,2103
1629880744276,2104
1629880744280,2105
1629880744284,2105
1629880744288,2105
1629880744292,2105
1629880744296,2104
1629880744300,2102
1629880744304,2100
1629880744308,2097
1629880744312,2093
1629880744316,2088
1629880744320,2083
1629880744324,2078
1629880744328,2073
1629880744332,2068
1629880744336,2064
1629880744340,2060
1629880744344,2057
1629880744348,2054
1629880744352,2051
1629880744356,2049
1629880744360,2047
1629880744364,2045
1629880744368,2044
1629880744372,2043
1629880744376,2042
1629880744380,2042
1629880744384,2042
1629880744388,2042
1629880744392,2043
1629880744396,2043
1629880744400,2042
1629880744404,2042
1629880744408,2041
1629880744412,2041
1629880744416,2041
1629880744420,2042
1629880744424,2043
1629880744428,2043
1629880744432,2043
1629880744436,2043
1629880744440,2043
1629880744444,2043
1629880744448,2043
1629880744452,2043
1629880744456,2044
1629880744460,2044
1629880744464,2044
1629880744468,2045
1629880744472,2046
1629880744476,2047
1629880744480,2047
1629880744484,2047
1629880744488,2046
1629880744492,2046
1629880744496,2046
1629880744500,2046
1629880744504,2047
1629880744508,2047
1629880744512,2048
1629880744516,2048
1629880744520,2047
1629880744524,2047
1629880744528,2046
1629880744532,2046
1629880744536,2046
1629880744540,2046
1629880744544,2046
1629880744548,2046
1629880744552,2046
1629880744556,2046
1629880744560,2046
1629880744564,2045
1629880744568,2045
1629880744572,2044
1629880744576,2044
1629880744580,2045
1629880744584,2045
1629880744588,2045
1629880744592,2045
1629880744596,2045
1629880744600,2045
1629880744604,2044
1629880744608,2044
1629880744612,2044
1629880744616,2044
1629880744620,2044
1629880744624,2045
1629880744628,2045
1629880744632,2045
1629880744636,2045
1629880744640,2045
1629880744644,2044
1629880744648,2044
1629880744652,2044
1629880744656,2044
1629880744660,2044
1629880744664,2045
1629880744668,2045
1629880744672,2046
1629880744676,2046
1629880744680,2046
1629880744684,2045
1629880744688,2044
1629880744692,2044
1629880744696,2043
1629880744700,2043
1629880744704,2044
1629880744708,2044
1629880744712,2045
1629880744716,2045
1629880744720,2046
1629880744724,2047
1629880744728,2048
1629880744732,2051
1629880744736,2055
1629880744740,2058
1629880744744,2060
1629880744748,2059
1629880744752,2057
1629880744756,2054
1629880744760,2051
1629880744764,2048
1629880744768,2048
1629880744772,2047
1629880744776,2047
1629880744780,2048
1629880744784,2048
1629880744788,2048
1629880744792,2050
1629880744796,2050
1629880744800,2048
1629880744804,2046
1629880744808,2043
1629880744812,2043
1629880744816,2053
1629880744820,2083
1629880744824,2135
1629880744828,2199
1629880744832,2253
1629880744836,2273
1629880744840,2245
1629880744844,2178
1629880744848,2098
1629880744852,2035
1629880744856,2004
1629880744860,2006
1629880744864,2024
1629880744868,2042
1629880744872,2050
1629880744876,2051
1629880744880,2048
1629880744884,2047
1629880744888,2046
1629880744892,2045
1629880744896,2045
1629880744900,2046
1629880744904,2046
1629880744908,2046
1629880744912,2047
1629880744916,2047
1629880744920,2047
1629880744924,2047
1629880744928,2047
1629880744932,2047
1629880744936,2048
1629880744940,2048
1629880744944,2048
1629880744948,2049
1629880744952,2050
1629880744956,2050
1629880744960,2050
1629880744964,2050
1629880744968,2050
1629880744972,2051
1629880744976,2051
1629880744980,2053
1629880744984,2054
1629880744988,2055
1629880744992,2055
1629880744996,2056
1629880745000,2056
1629880745004,2057
1629880745008,2058
1629880745012,2059
1629880745016,2060
1629880745020,2062
1629880745024,2063
1629880745028,2065
1629880745032,2067
1629880745036,2068
1629880745040,2070
1629880745044,2071
1629880745048,2073
1629880745052,2075
1629880745056,2078
1629880745060,2080
1629880745064,2083
1629880745068,2086
1629880745072,2089
1629880745076,2091
1629880745080,2093
1629880745084,2095
1629880745088,2097
1629880745092,2099
1629880745096,2101
1629880745100,2103
1629880745104,2104
1629880745108,2106
1629880745112,2107
1629880745116,2106
1629880745120,2106
1629880745124,2104
1629880745128,2102
1629880745132,2100
1629880745136,2097
1629880745140,2093
1629880745144,2089
1629880745148,2084
1629880745152,2078
1629880745156,2073
1629880745160,2069
1629880745164,2064
1629880745168,2060
1629880745172,2056
1629880745176,2053
1629880745180,2051
1629880745184,2049
1629880745188,2048
1629880745192,2047
1629880745196,2046
1629880745200,2045
1629880745204,2044
1629880745208,2043
1629880745212,2042
1629880745216,2042
1629880745220,2042
1629880745224,2043
1629880745228,2043
1629880745232,2044
1629880745236,2044
1629880745240,2043
1629880745244,2043
1629880745248,2042
1629880745252,2043
1629880745256,2043
1629880745260,2044
1629880745264,2045
1629880745268,2045
1629880745272,2045
1629880745276,2045
1629880745280,2045
1629880745284,2045
1629880745288,2046
1629880745292,2046
1629880745296,2046
1629880745300,2047
1629880745304,2047
1629880745308,2048
1629880745312,2048
1629880745316,2048
1629880745320,2048
1629880745324,2048
1629880745328,2047
1629880745332,2047
1629880745336,2047
1629880745340,2048
1629880745344,2048
1629880745348,2048
1629880745352,2048
1629880745356,2048
1629880745360,2047
1629880745364,2047
1629880745368,2047
1629880745372,2046
1629880745376,2046
1629880745380,2046
1629880745384,2047
1629880745388,2047
1629880745392,2047
1629880745396,2047
1629880745400,2046
1629880745404,2046
1629880745408,2046
1629880745412,2046
1629880745416,2046
1629880745420,2046
1629880745424,2046
1629880745428,2046
1629880745432,2046
1629880745436,2046
1629880745440,2046
1629880745444,2046
1629880745448,2045
1629880745452,2045
1629880745456,2045
1629880745460,2046
1629880745464,2046
1629880745468,2047
1629880745472,2047
1629880745476,2047
1629880745480,2047
1629880745484,2046
1629880745488,2046
1629880745492,2046
1629880745496,2046
1629880745500,2046
1629880745504,2047
1629880745508,2047
1629880745512,2047
1629880745516,2047
1629880745520,2047
1629880745524,2047
1629880745528,2046
1629880745532,2046
1629880745536,2047
1629880745540,2047
1629880745544,2047
1629880745548,2048
1629880745552,2048
1629880745556,2048
1629880745560,2048
1629880745564,2047
1629880745568,2046
1629880745572,2045
1629880745576,2044
1629880745580,2045
1629880745584,2046
1629880745588,2047
1629880745592,2048
1629880745596,2049
1629880745600,2051
1629880745604,2053
1629880745608,2056
1629880745612,2059
1629880745616,2061
1629880745620,2062
1629880745624,2060
1629880745628,2057
1629880745632,2054
1629880745636,2051
1629880745640,2049
1629880745644,2049
1629880745648,2048
1629880745652,2048
1629880745656,2048
1629880745660,2048
1629880745664,2050
1629880745668,2051
1629880745672,2050
1629880745676,2048
1629880745680,2046
1629880745684,2044
1629880745688,2049
1629880745692,2070
1629880745696,2112
1629880745700,2171
1629880745704,2230
1629880745708,2264
1629880745712,2255
1629880745716,2202
1629880745720,2124
1629880745724,2052
1629880745728,2009
1629880745732,1999
1629880745736,2014
1629880745740,2035
1629880745744,2048
1629880745748,2052
1629880745752,2050
1629880745756,2048
1629880745760,2047
1629880745764,2046
1629880745768,2046
1629880745772,2046
1629880745776,2046
1629880745780,2046
1629880745784,2046
1629880745788,2047
1629880745792,2047
1629880745796,2047
1629880745800,2048
1629880745804,2047
1629880745808,2047
1629880745812,2048
1629880745816,2048
1629880745820,2048
1629880745824,2049
1629880745828,2049
1629880745832,2050
1629880745836,2050
1629880745840,2050
1629880745844,2050
1629880745848,2050
1629880745852,2051
1629880745856,2052
1629880745860,2053
1629880745864,2054
1629880745868,2055
1629880745872,2057
1629880745876,2057
1629880745880,2058
1629880745884,2058
1629880745888,2059
1629880745892,2060
1629880745896,2061
1629880745900,2063
1629880745904,2065
1629880745908,2067
1629880745912,2068
1629880745916,2070
1629880745920,2071
1629880745924,2073
1629880745928,2075
1629880745932,2077
1629880745936,2079
1629880745940,2082
1629880745944,2085
1629880745948,2087
1629880745952,2090
1629880745956,2092
1629880745960,2094
1629880745964,2096
1629880745968,2097
1629880745972,2098
1629880745976,2099
1629880745980,2100
1629880745984,2101
1629880745988,2102
1629880745992,2102
1629880745996,2102
1629880746000,2101
1629880746004,2098
1629880746008,2095
1629880746012,2092
1629880746016,2087
1629880746020,2083
1629880746024,2079
1629880746028,2074
1629880746032,2070
1629880746036,2065
1629880746040,2061
1629880746044,2057
1629880746048,2053
1629880746052,2049
1629880746056,2048
1629880746060,2046
1629880746064,2045
1629880746068,2044
1629880746072,2043
1629880746076,2042
1629880746080,2041
1629880746084,2040
1629880746088,2040
1629880746092,2039
1629880746096,2039
1629880746100,2040
1629880746104,2041
1629880746108,2041
1629880746112,2041
1629880746116,2041
1629880746120,2040
1629880746124,2040
1629880746128,2039
1629880746132,2040
1629880746136,2040
1629880746140,2041
1629880746144,2042
1629880746148,2043
1629880746152,2043
1629880746156,2043
1629880746160,2043
1629880746164,2043
1629880746168,2043
1629880746172,2044
1629880746176,2044
1629880746180,2044
1629880746184,2045
1629880746188,2045
1629880746192,2045
1629880746196,2045
1629880746200,2045
1629880746204,2044
1629880746208,2043
1629880746212,2043
1629880746216,2043
1629880746220,2044
1629880746224,2044
1629880746228,2044
1629880746232,2044
1629880746236,2043
1629880746240,2043
1629880746244,2042
1629880746248,2042
1629880746252,2042
1629880746256,2041
1629880746260,2041
1629880746264,2042
1629880746268,2042
1629880746272,2042
1629880746276,2042
1629880746280,2041
1629880746284,2041
1629880746288,2041
1629880746292,2041
1629880746296,2041
1629880746300,2041
1629880746304,2041
1629880746308,2041
1629880746312,2041
1629880746316,2041
1629880746320,2041
1629880746324,2041
1629880746328,2040
1629880746332,2040
1629880746336,2040
1629880746340,2041
1629880746344,2041
1629880746348,2042
1629880746352,2042
1629880746356,2042
1629880746360,2042
1629880746364,2042
1629880746368,2042
1629880746372,2042
1629880746376,2042
1629880746380,2042
1629880746384,2042
1629880746388,2042
1629880746392,2043
1629880746396,2042
1629880746400,2042
1629880746404,2042
1629880746408,2042
1629880746412,2042
1629880746416,2041
1629880746420,2042
1629880746424,2042
1629880746428,2043
1629880746432,2043
1629880746436,2043
1629880746440,2043
1629880746444,2042
1629880746448,2042
1629880746452,2042
1629880746456,2043
1629880746460,2043
1629880746464,2043
1629880746468,2043
1629880746472,2042
1629880746476,2042
1629880746480,2041
1629880746484,2040
1629880746488,2041
1629880746492,2042
1629880746496,2043
1629880746500,2045
1629880746504,2047
1629880746508,2049
1629880746512,2053
1629880746516,2056
1629880746520,2058
1629880746524,2058
1629880746528,2055
1629880746532,2052
1629880746536,2048
1629880746540,2047
1629880746544,2046
1629880746548,2046
1629880746552,2046
1629880746556,2046
1629880746560,2046
1629880746564,2046
1629880746568,2046
1629880746572,2046
1629880746576,2045
1629880746580,2044
1629880746584,2041
1629880746588,2040
1629880746592,2048
1629880746596,2070
1629880746600,2113
1629880746604,2173
1629880746608,2228
1629880746612,2257
1629880746616,2241
1629880746620,2185
1629880746624,2108
1629880746628,2040
1629880746632,2002
1629880746636,1996
1629880746640,2012
1629880746644,2032
1629880746648,2045
1629880746652,2048
1629880746656,2047
1629880746660,2045
1629880746664,2044
1629880746668,2043
1629880746672,2043
1629880746676,2042
1629880746680,2042
1629880746684,2042
1629880746688,2042
1629880746692,2042
1629880746696,2043
1629880746700,2043
1629880746704,2044
1629880746708,2045
1629880746712,2045
1629880746716,2045
1629880746720,2045
1629880746724,2045
1629880746728,2046
1629880746732,2046
1629880746736,2047
1629880746740,2048
1629880746744,2048
1629880746748,2048
1629880746752,2048
1629880746756,2049
1629880746760,2049
1629880746764,2050
1629880746768,2050
1629880746772,2051
1629880746776,2052
1629880746780,2053
1629880746784,2055
1629880746788,2056
1629880746792,2058
1629880746796,2059
1629880746800,2060
1629880746804,2061
1629880746808,2062
1629880746812,2063
1629880746816,2065
1629880746820,2067
1629880746824,2069
1629880746828,2071
1629880746832,2073
1629880746836,2075
1629880746840,2077
1629880746844,2079
1629880746848,2081
1629880746852,2083
1629880746856,2085
1629880746860,2088
1629880746864,2090
1629880746868,2093
1629880746872,2095
