timestamp,ecg_waveform
1630415911987,2115
1630415911991,2114
1630415911995,2114
1630415911999,2116
1630415912003,2118
1630415912007,2120
1630415912011,2121
1630415912015,2121
1630415912019,2121
1630415912023,2120
1630415912027,2119
1630415912031,2119
1630415912035,2118
1630415912039,2117
1630415912043,2116
1630415912047,2115
1630415912051,2114
1630415912055,2114
1630415912059,2114
1630415912063,2113
1630415912067,2113
1630415912071,2112
1630415912075,2112
1630415912079,2110
1630415912083,2109
1630415912087,2108
1630415912091,2108
1630415912095,2107
1630415912099,2105
1630415912103,2104
1630415912107,2103
1630415912111,2101
1630415912115,2098
1630415912119,2096
1630415912123,2093
1630415912127,2092
1630415912131,2093
1630415912135,2094
1630415912139,2096
1630415912143,2095
1630415912147,2094
1630415912151,2092
1630415912155,2089
1630415912159,2087
1630415912163,2086
1630415912167,2085
1630415912171,2086
1630415912175,2086
1630415912179,2087
1630415912183,2088
1630415912187,2088
1630415912191,2088
1630415912195,2088
1630415912199,2087
1630415912203,2085
1630415912207,2085
1630415912211,2085
1630415912215,2086
1630415912219,2087
1630415912223,2086
1630415912227,2085
1630415912231,2083
1630415912235,2082
1630415912239,2082
1630415912243,2082
1630415912247,2083
1630415912251,2083
1630415912255,2083
1630415912259,2083
1630415912263,2082
1630415912267,2081
1630415912271,2080
1630415912275,2080
1630415912279,2079
1630415912283,2078
1630415912287,2076
1630415912291,2075
1630415912295,2073
1630415912299,2072
1630415912303,2073
1630415912307,2074
1630415912311,2075
1630415912315,2076
1630415912319,2076
1630415912323,2075
1630415912327,2073
1630415912331,2072
1630415912335,2071
1630415912339,2070
1630415912343,2070
1630415912347,2070
1630415912351,2070
1630415912355,2071
1630415912359,2071
1630415912363,2070
1630415912367,2069
1630415912371,2068
1630415912375,2068
1630415912379,2069
1630415912383,2070
1630415912387,2070
1630415912391,2069
1630415912395,2068
1630415912399,2069
1630415912403,2070
1630415912407,2072
1630415912411,2074
1630415912415,2074
1630415912419,2073
1630415912423,2070
1630415912427,2069
1630415912431,2067
1630415912435,2067
1630415912439,2066
1630415912443,2066
1630415912447,2066
1630415912451,2065
1630415912455,2064
1630415912459,2063
1630415912463,2061
1630415912467,2060
1630415912471,2059
1630415912475,2059
1630415912479,2059
1630415912483,2059
1630415912487,2059
1630415912491,2059
1630415912495,2058
1630415912499,2058
1630415912503,2056
1630415912507,2055
1630415912511,2054
1630415912515,2053
1630415912519,2052
1630415912523,2051
1630415912527,2053
1630415912531,2058
1630415912535,2069
1630415912539,2085
1630415912543,2102
1630415912547,2114
1630415912551,2114
1630415912555,2101
1630415912559,2078
1630415912563,2053
1630415912567,2036
1630415912571,2026
1630415912575,2025
1630415912579,2028
1630415912583,2032
1630415912587,2035
1630415912591,2037
1630415912595,2039
1630415912599,2042
1630415912603,2044
1630415912607,2047
1630415912611,2048
1630415912615,2049
1630415912619,2049
1630415912623,2048
1630415912627,2048
1630415912631,2049
1630415912635,2051
1630415912639,2052
1630415912643,2052
1630415912647,2051
1630415912651,2050
1630415912655,2050
1630415912659,2050
1630415912663,2051
1630415912667,2052
1630415912671,2052
1630415912675,2053
1630415912679,2053
1630415912683,2053
1630415912687,2052
1630415912691,2051
1630415912695,2050
1630415912699,2049
1630415912703,2049
1630415912707,2050
1630415912711,2051
1630415912715,2052
1630415912719,2052
1630415912723,2053
1630415912727,2054
1630415912731,2055
1630415912735,2055
1630415912739,2055
1630415912743,2055
1630415912747,2055
1630415912751,2055
1630415912755,2055
1630415912759,2056
1630415912763,2056
1630415912767,2057
1630415912771,2057
1630415912775,2057
1630415912779,2056
1630415912783,2054
1630415912787,2053
1630415912791,2052
1630415912795,2052
1630415912799,2051
1630415912803,2050
1630415912807,2049
1630415912811,2049
1630415912815,2049
1630415912819,2050
1630415912823,2050
1630415912827,2049
1630415912831,2048
1630415912835,2045
1630415912839,2043
1630415912843,2042
1630415912847,2042
1630415912851,2043
1630415912855,2044
1630415912859,2044
1630415912863,2043
1630415912867,2041
1630415912871,2038
1630415912875,2036
1630415912879,2034
1630415912883,2034
1630415912887,2034
1630415912891,2036
1630415912895,2038
1630415912899,2039
1630415912903,2039
1630415912907,2038
1630415912911,2037
1630415912915,2035
1630415912919,2033
1630415912923,2034
1630415912927,2035
1630415912931,2036
1630415912935,2037
1630415912939,2036
1630415912943,2034
1630415912947,2033
1630415912951,2033
1630415912955,2034
1630415912959,2035
1630415912963,2035
1630415912967,2035
1630415912971,2035
1630415912975,2035
1630415912979,2034
1630415912983,2033
1630415912987,2033
1630415912991,2033
1630415912995,2033
1630415912999,2034
1630415913003,2034
1630415913007,2034
1630415913011,2032
1630415913015,2030
1630415913019,2030
1630415913023,2031
1630415913027,2032
1630415913031,2033
1630415913035,2032
1630415913039,2031
1630415913043,2030
1630415913047,2030
1630415913051,2031
1630415913055,2031
1630415913059,2032
1630415913063,2032
1630415913067,2031
1630415913071,2029
1630415913075,2029
1630415913079,2029
1630415913083,2030
1630415913087,2031
1630415913091,2032
1630415913095,2032
1630415913099,2031
1630415913103,2029
1630415913107,2028
1630415913111,2028
1630415913115,2028
1630415913119,2029
1630415913123,2032
1630415913127,2034
1630415913131,2035
1630415913135,2035
1630415913139,2034
1630415913143,2034
1630415913147,2033
1630415913151,2033
1630415913155,2034
1630415913159,2034
1630415913163,2034
1630415913167,2034
1630415913171,2033
1630415913175,2031
1630415913179,2028
1630415913183,2026
1630415913187,2026
1630415913191,2026
1630415913195,2028
1630415913199,2030
1630415913203,2031
1630415913207,2032
1630415913211,2031
1630415913215,2029
1630415913219,2027
1630415913223,2027
1630415913227,2027
1630415913231,2029
1630415913235,2030
1630415913239,2029
1630415913243,2026
1630415913247,2022
1630415913251,2018
1630415913255,2018
1630415913259,2020
1630415913263,2024
1630415913267,2029
1630415913271,2037
1630415913275,2048
1630415913279,2063
1630415913283,2076
1630415913287,2083
1630415913291,2078
1630415913295,2061
1630415913299,2039
1630415913303,2018
1630415913307,2003
1630415913311,1998
1630415913315,2000
1630415913319,2005
1630415913323,2011
1630415913327,2016
1630415913331,2019
1630415913335,2021
1630415913339,2021
1630415913343,2022
1630415913347,2022
1630415913351,2023
1630415913355,2025
1630415913359,2026
1630415913363,2026
1630415913367,2026
1630415913371,2026
1630415913375,2027
1630415913379,2027
1630415913383,2027
1630415913387,2027
1630415913391,2026
1630415913395,2025
1630415913399,2026
1630415913403,2027
1630415913407,2029
1630415913411,2030
1630415913415,2030
1630415913419,2029
1630415913423,2028
1630415913427,2027
1630415913431,2027
1630415913435,2028
1630415913439,2029
1630415913443,2030
1630415913447,2030
1630415913451,2031
1630415913455,2032
1630415913459,2033
1630415913463,2033
1630415913467,2033
1630415913471,2034
1630415913475,2034
1630415913479,2036
1630415913483,2037
1630415913487,2038
1630415913491,2037
1630415913495,2037
1630415913499,2036
1630415913503,2035
1630415913507,2035
1630415913511,2035
1630415913515,2036
1630415913519,2036
1630415913523,2037
1630415913527,2037
1630415913531,2036
1630415913535,2035
1630415913539,2033
1630415913543,2031
1630415913547,2031
1630415913551,2031
1630415913555,2033
1630415913559,2034
1630415913563,2035
1630415913567,2035
1630415913571,2034
1630415913575,2033
1630415913579,2031
1630415913583,2030
1630415913587,2029
1630415913591,2029
1630415913595,2029
1630415913599,2029
1630415913603,2029
1630415913607,2029
1630415913611,2028
1630415913615,2026
1630415913619,2025
1630415913623,2024
1630415913627,2023
1630415913631,2023
1630415913635,2024
1630415913639,2025
1630415913643,2025
1630415913647,2026
1630415913651,2026
1630415913655,2026
1630415913659,2026
1630415913663,2026
1630415913667,2026
1630415913671,2026
1630415913675,2026
1630415913679,2027
1630415913683,2027
1630415913687,2028
1630415913691,2028
1630415913695,2027
1630415913699,2027
1630415913703,2027
1630415913707,2028
1630415913711,2028
1630415913715,2029
1630415913719,2028
1630415913723,2026
1630415913727,2025
1630415913731,2024
1630415913735,2025
1630415913739,2025
1630415913743,2025
1630415913747,2024
1630415913751,2024
1630415913755,2024
1630415913759,2026
1630415913763,2027
1630415913767,2027
1630415913771,2026
1630415913775,2024
1630415913779,2022
1630415913783,2021
1630415913787,2022
1630415913791,2023
1630415913795,2025
1630415913799,2026
1630415913803,2026
1630415913807,2025
1630415913811,2025
1630415913815,2025
1630415913819,2025
1630415913823,2025
1630415913827,2024
1630415913831,2024
1630415913835,2025
1630415913839,2025
1630415913843,2026
1630415913847,2026
1630415913851,2025
1630415913855,2023
1630415913859,2022
1630415913863,2023
1630415913867,2026
1630415913871,2029
1630415913875,2031
1630415913879,2033
1630415913883,2033
1630415913887,2033
1630415913891,2033
1630415913895,2032
1630415913899,2031
1630415913903,2029
1630415913907,2027
1630415913911,2025
1630415913915,2025
1630415913919,2025
1630415913923,2025
1630415913927,2025
1630415913931,2023
1630415913935,2022
1630415913939,2022
1630415913943,2022
1630415913947,2023
1630415913951,2024
1630415913955,2025
1630415913959,2025
1630415913963,2024
1630415913967,2022
1630415913971,2019
1630415913975,2017
1630415913979,2017
1630415913983,2018
1630415913987,2020
1630415913991,2022
1630415913995,2023
1630415913999,2022
1630415914003,2022
1630415914007,2022
1630415914011,2023
1630415914015,2028
1630415914019,2036
1630415914023,2048
1630415914027,2063
1630415914031,2075
1630415914035,2078
1630415914039,2069
1630415914043,2048
1630415914047,2025
1630415914051,2004
1630415914055,1992
1630415914059,1989
1630415914063,1991
1630415914067,1996
1630415914071,2000
1630415914075,2005
1630415914079,2011
1630415914083,2016
1630415914087,2020
1630415914091,2022
1630415914095,2023
1630415914099,2023
1630415914103,2023
1630415914107,2024
1630415914111,2024
1630415914115,2024
1630415914119,2025
1630415914123,2025
1630415914127,2026
1630415914131,2026
1630415914135,2026
1630415914139,2026
1630415914143,2026
1630415914147,2025
1630415914151,2025
1630415914155,2026
1630415914159,2027
1630415914163,2027
1630415914167,2027
1630415914171,2026
1630415914175,2025
1630415914179,2024
1630415914183,2024
1630415914187,2025
1630415914191,2026
1630415914195,2027
1630415914199,2028
1630415914203,2029
1630415914207,2030
1630415914211,2030
1630415914215,2030
1630415914219,2030
1630415914223,2031
1630415914227,2033
1630415914231,2036
1630415914235,2038
1630415914239,2040
1630415914243,2040
1630415914247,2039
1630415914251,2038
1630415914255,2038
1630415914259,2038
1630415914263,2038
1630415914267,2037
1630415914271,2036
1630415914275,2034
1630415914279,2034
1630415914283,2035
1630415914287,2037
1630415914291,2039
1630415914295,2041
1630415914299,2041
1630415914303,2040
1630415914307,2037
1630415914311,2034
1630415914315,2031
1630415914319,2029
1630415914323,2028
1630415914327,2029
1630415914331,2030
1630415914335,2029
1630415914339,2028
1630415914343,2026
1630415914347,2026
1630415914351,2027
1630415914355,2028
1630415914359,2029
1630415914363,2029
1630415914367,2028
1630415914371,2027
1630415914375,2027
1630415914379,2027
1630415914383,2027
1630415914387,2028
1630415914391,2027
1630415914395,2025
1630415914399,2024
1630415914403,2023
1630415914407,2024
1630415914411,2025
1630415914415,2026
1630415914419,2026
1630415914423,2025
1630415914427,2024
1630415914431,2025
1630415914435,2028
1630415914439,2032
1630415914443,2035
1630415914447,2036
1630415914451,2034
1630415914455,2031
1630415914459,2028
1630415914463,2027
1630415914467,2028
1630415914471,2030
1630415914475,2033
1630415914479,2034
1630415914483,2033
1630415914487,2032
1630415914491,2030
1630415914495,2027
1630415914499,2023
1630415914503,2019
1630415914507,2017
1630415914511,2019
1630415914515,2023
1630415914519,2030
1630415914523,2034
1630415914527,2035
1630415914531,2034
1630415914535,2031
1630415914539,2031
1630415914543,2033
1630415914547,2036
1630415914551,2038
1630415914555,2039
1630415914559,2038
1630415914563,2036
1630415914567,2034
1630415914571,2034
1630415914575,2034
1630415914579,2034
1630415914583,2034
1630415914587,2033
1630415914591,2033
1630415914595,2032
1630415914599,2033
1630415914603,2034
1630415914607,2035
1630415914611,2037
1630415914615,2038
1630415914619,2039
1630415914623,2040
1630415914627,2040
1630415914631,2040
1630415914635,2040
1630415914639,2039
1630415914643,2038
1630415914647,2037
1630415914651,2037
1630415914655,2037
1630415914659,2036
1630415914663,2035
1630415914667,2034
1630415914671,2032
1630415914675,2032
1630415914679,2032
1630415914683,2033
1630415914687,2033
1630415914691,2034
1630415914695,2033
1630415914699,2031
1630415914703,2029
1630415914707,2028
1630415914711,2028
1630415914715,2030
1630415914719,2032
1630415914723,2033
1630415914727,2032
1630415914731,2031
1630415914735,2028
1630415914739,2026
1630415914743,2025
1630415914747,2026
1630415914751,2028
1630415914755,2035
1630415914759,2047
1630415914763,2063
1630415914767,2081
1630415914771,2094
1630415914775,2095
1630415914779,2083
1630415914783,2062
1630415914787,2039
1630415914791,2020
1630415914795,2010
1630415914799,2008
1630415914803,2011
1630415914807,2015
1630415914811,2018
1630415914815,2022
1630415914819,2025
1630415914823,2027
1630415914827,2028
1630415914831,2028
1630415914835,2028
1630415914839,2029
1630415914843,2031
1630415914847,2033
1630415914851,2035
1630415914855,2036
1630415914859,2035
1630415914863,2034
1630415914867,2033
1630415914871,2033
1630415914875,2034
1630415914879,2037
1630415914883,2039
1630415914887,2041
1630415914891,2041
1630415914895,2041
1630415914899,2040
1630415914903,2040
1630415914907,2039
1630415914911,2039
1630415914915,2039
1630415914919,2040
1630415914923,2041
1630415914927,2042
1630415914931,2041
1630415914935,2040
1630415914939,2038
1630415914943,2039
1630415914947,2040
1630415914951,2043
1630415914955,2045
1630415914959,2047
1630415914963,2047
1630415914967,2047
1630415914971,2047
1630415914975,2048
1630415914979,2048
1630415914983,2048
1630415914987,2048
1630415914991,2048
1630415914995,2048
1630415914999,2047
1630415915003,2048
1630415915007,2048
1630415915011,2048
1630415915015,2048
1630415915019,2047
1630415915023,2045
1630415915027,2044
1630415915031,2044
1630415915035,2047
1630415915039,2050
1630415915043,2051
1630415915047,2051
1630415915051,2049
1630415915055,2046
1630415915059,2042
1630415915063,2039
1630415915067,2038
1630415915071,2038
1630415915075,2040
1630415915079,2043
1630415915083,2043
1630415915087,2041
1630415915091,2038
1630415915095,2035
1630415915099,2034
1630415915103,2035
1630415915107,2038
1630415915111,2040
1630415915115,2042
1630415915119,2042
1630415915123,2042
1630415915127,2041
1630415915131,2041
1630415915135,2040
1630415915139,2040
1630415915143,2039
1630415915147,2038
1630415915151,2036
1630415915155,2035
1630415915159,2035
1630415915163,2037
1630415915167,2039
1630415915171,2041
1630415915175,2042
1630415915179,2040
1630415915183,2038
1630415915187,2036
1630415915191,2036
1630415915195,2038
1630415915199,2041
1630415915203,2044
1630415915207,2044
1630415915211,2043
1630415915215,2040
1630415915219,2038
1630415915223,2038
1630415915227,2039
1630415915231,2041
1630415915235,2042
1630415915239,2042
1630415915243,2041
1630415915247,2042
1630415915251,2042
1630415915255,2044
1630415915259,2045
1630415915263,2044
1630415915267,2043
1630415915271,2040
1630415915275,2038
1630415915279,2037
1630415915283,2038
1630415915287,2041
1630415915291,2044
1630415915295,2046
1630415915299,2046
1630415915303,2044
1630415915307,2043
1630415915311,2043
1630415915315,2045
1630415915319,2047
1630415915323,2049
1630415915327,2050
1630415915331,2050
1630415915335,2049
1630415915339,2048
1630415915343,2048
1630415915347,2048
1630415915351,2050
1630415915355,2052
1630415915359,2055
1630415915363,2056
1630415915367,2056
1630415915371,2054
1630415915375,2051
1630415915379,2049
1630415915383,2048
1630415915387,2047
1630415915391,2048
1630415915395,2048
1630415915399,2048
1630415915403,2049
1630415915407,2049
1630415915411,2049
1630415915415,2049
1630415915419,2049
1630415915423,2048
1630415915427,2047
1630415915431,2045
1630415915435,2044
1630415915439,2043
1630415915443,2043
1630415915447,2045
1630415915451,2047
1630415915455,2048
1630415915459,2048
1630415915463,2046
1630415915467,2045
1630415915471,2044
1630415915475,2045
1630415915479,2047
1630415915483,2051
1630415915487,2061
1630415915491,2076
1630415915495,2094
1630415915499,2107
1630415915503,2109
1630415915507,2098
1630415915511,2078
1630415915515,2056
1630415915519,2040
1630415915523,2031
1630415915527,2029
1630415915531,2031
1630415915535,2034
1630415915539,2036
1630415915543,2040
1630415915547,2044
1630415915551,2046
1630415915555,2046
1630415915559,2046
1630415915563,2045
1630415915567,2045
1630415915571,2046
1630415915575,2048
1630415915579,2049
1630415915583,2050
1630415915587,2050
1630415915591,2049
1630415915595,2048
1630415915599,2048
1630415915603,2048
1630415915607,2051
1630415915611,2053
1630415915615,2055
1630415915619,2055
1630415915623,2054
1630415915627,2054
1630415915631,2053
1630415915635,2054
1630415915639,2055
1630415915643,2055
1630415915647,2054
1630415915651,2052
1630415915655,2050
1630415915659,2050
1630415915663,2051
1630415915667,2054
1630415915671,2057
1630415915675,2059
1630415915679,2059
1630415915683,2058
1630415915687,2057
1630415915691,2058
1630415915695,2060
1630415915699,2062
1630415915703,2063
1630415915707,2063
1630415915711,2063
1630415915715,2062
1630415915719,2062
1630415915723,2062
1630415915727,2062
1630415915731,2062
1630415915735,2060
1630415915739,2059
1630415915743,2057
1630415915747,2056
1630415915751,2056
1630415915755,2057
1630415915759,2059
1630415915763,2063
1630415915767,2066
1630415915771,2067
1630415915775,2066
1630415915779,2063
1630415915783,2060
1630415915787,2058
1630415915791,2057
1630415915795,2056
1630415915799,2055
1630415915803,2054
1630415915807,2053
1630415915811,2052
1630415915815,2049
1630415915819,2047
1630415915823,2045
1630415915827,2044
1630415915831,2046
1630415915835,2049
1630415915839,2053
1630415915843,2054
1630415915847,2052
1630415915851,2049
1630415915855,2047
1630415915859,2045
1630415915863,2046
1630415915867,2048
1630415915871,2050
1630415915875,2052
1630415915879,2052
1630415915883,2050
1630415915887,2048
1630415915891,2048
1630415915895,2050
1630415915899,2052
1630415915903,2053
1630415915907,2053
1630415915911,2053
1630415915915,2052
1630415915919,2053
1630415915923,2054
1630415915927,2055
1630415915931,2054
1630415915935,2053
1630415915939,2051
1630415915943,2049
1630415915947,2048
1630415915951,2049
1630415915955,2049
1630415915959,2050
1630415915963,2051
1630415915967,2052
1630415915971,2052
1630415915975,2051
1630415915979,2049
1630415915983,2048
1630415915987,2048
1630415915991,2048
1630415915995,2048
1630415915999,2049
1630415916003,2050
1630415916007,2050
1630415916011,2050
1630415916015,2050
1630415916019,2049
1630415916023,2049
1630415916027,2049
1630415916031,2050
1630415916035,2050
1630415916039,2049
1630415916043,2048
1630415916047,2048
1630415916051,2049
1630415916055,2050
1630415916059,2051
1630415916063,2052
1630415916067,2051
1630415916071,2051
1630415916075,2051
1630415916079,2051
1630415916083,2053
1630415916087,2055
1630415916091,2057
1630415916095,2057
1630415916099,2056
1630415916103,2055
1630415916107,2054
1630415916111,2054
1630415916115,2055
1630415916119,2056
1630415916123,2057
1630415916127,2056
1630415916131,2055
1630415916135,2053
1630415916139,2052
1630415916143,2051
1630415916147,2051
1630415916151,2050
1630415916155,2050
1630415916159,2050
1630415916163,2051
1630415916167,2052
1630415916171,2052
1630415916175,2051
1630415916179,2049
1630415916183,2048
1630415916187,2046
1630415916191,2045
1630415916195,2047
1630415916199,2048
1630415916203,2048
1630415916207,2048
1630415916211,2045
1630415916215,2043
1630415916219,2045
1630415916223,2051
1630415916227,2065
1630415916231,2082
1630415916235,2098
1630415916239,2105
1630415916243,2101
1630415916247,2086
1630415916251,2065
1630415916255,2045
1630415916259,2031
1630415916263,2024
1630415916267,2025
1630415916271,2031
1630415916275,2038
1630415916279,2043
1630415916283,2046
1630415916287,2047
1630415916291,2045
1630415916295,2043
1630415916299,2042
1630415916303,2043
1630415916307,2046
1630415916311,2048
1630415916315,2050
1630415916319,2049
1630415916323,2048
1630415916327,2048
1630415916331,2048
1630415916335,2049
1630415916339,2051
1630415916343,2053
1630415916347,2052
1630415916351,2051
1630415916355,2050
1630415916359,2050
1630415916363,2051
1630415916367,2054
1630415916371,2056
1630415916375,2056
1630415916379,2056
1630415916383,2055
1630415916387,2055
1630415916391,2056
1630415916395,2057
1630415916399,2058
1630415916403,2059
1630415916407,2059
1630415916411,2059
1630415916415,2058
1630415916419,2058
1630415916423,2058
1630415916427,2057
1630415916431,2058
1630415916435,2058
1630415916439,2059
1630415916443,2060
1630415916447,2061
1630415916451,2062
1630415916455,2060
1630415916459,2058
1630415916463,2055
1630415916467,2054
1630415916471,2055
1630415916475,2059
1630415916479,2063
1630415916483,2065
1630415916487,2065
1630415916491,2064
1630415916495,2064
1630415916499,2064
1630415916503,2065
1630415916507,2065
1630415916511,2065
1630415916515,2063
1630415916519,2061
1630415916523,2059
1630415916527,2058
1630415916531,2058
1630415916535,2058
1630415916539,2056
1630415916543,2054
1630415916547,2052
1630415916551,2050
1630415916555,2050
1630415916559,2050
1630415916563,2049
1630415916567,2048
1630415916571,2048
1630415916575,2049
1630415916579,2051
1630415916583,2054
1630415916587,2057
1630415916591,2058
1630415916595,2057
1630415916599,2054
1630415916603,2051
1630415916607,2049
1630415916611,2048
1630415916615,2049
1630415916619,2050
1630415916623,2051
1630415916627,2051
1630415916631,2050
1630415916635,2050
1630415916639,2050
1630415916643,2052
1630415916647,2053
1630415916651,2053
1630415916655,2052
1630415916659,2051
1630415916663,2050
1630415916667,2050
1630415916671,2051
1630415916675,2052
1630415916679,2053
1630415916683,2053
1630415916687,2051
1630415916691,2051
1630415916695,2050
1630415916699,2051
1630415916703,2052
1630415916707,2052
1630415916711,2052
1630415916715,2050
1630415916719,2049
1630415916723,2049
1630415916727,2049
1630415916731,2050
1630415916735,2050
1630415916739,2050
1630415916743,2049
1630415916747,2049
1630415916751,2049
1630415916755,2049
1630415916759,2049
1630415916763,2049
1630415916767,2049
1630415916771,2049
1630415916775,2049
1630415916779,2049
1630415916783,2048
1630415916787,2049
1630415916791,2049
1630415916795,2050
1630415916799,2051
1630415916803,2052
1630415916807,2054
1630415916811,2054
1630415916815,2055
1630415916819,2054
1630415916823,2054
1630415916827,2053
1630415916831,2054
1630415916835,2056
1630415916839,2058
1630415916843,2058
1630415916847,2058
1630415916851,2057
1630415916855,2055
1630415916859,2054
1630415916863,2053
1630415916867,2053
1630415916871,2052
1630415916875,2051
1630415916879,2050
1630415916883,2050
1630415916887,2050
1630415916891,2050
1630415916895,2049
1630415916899,2048
1630415916903,2046
1630415916907,2045
1630415916911,2046
1630415916915,2047
1630415916919,2048
1630415916923,2048
1630415916927,2048
1630415916931,2049
1630415916935,2049
1630415916939,2050
1630415916943,2049
1630415916947,2048
1630415916951,2048
1630415916955,2048
1630415916959,2052
1630415916963,2060
1630415916967,2074
1630415916971,2089
1630415916975,2100
1630415916979,2102
1630415916983,2092
1630415916987,2073
1630415916991,2051
1630415916995,2034
1630415916999,2024
1630415917003,2022
1630415917007,2026
1630415917011,2031
1630415917015,2037
1630415917019,2040
1630415917023,2043
1630415917027,2044
1630415917031,2045
1630415917035,2045
1630415917039,2047
1630415917043,2048
1630415917047,2049
1630415917051,2051
1630415917055,2052
1630415917059,2052
1630415917063,2052
1630415917067,2051
1630415917071,2051
1630415917075,2051
1630415917079,2051
1630415917083,2052
1630415917087,2053
1630415917091,2054
1630415917095,2054
1630415917099,2054
1630415917103,2054
1630415917107,2055
1630415917111,2055
1630415917115,2055
1630415917119,2056
1630415917123,2056
1630415917127,2057
1630415917131,2057
1630415917135,2057
1630415917139,2057
1630415917143,2058
1630415917147,2059
1630415917151,2059
1630415917155,2060
1630415917159,2060
1630415917163,2060
1630415917167,2060
1630415917171,2060
1630415917175,2060
1630415917179,2060
1630415917183,2060
1630415917187,2060
1630415917191,2060
1630415917195,2061
1630415917199,2062
1630415917203,2063
1630415917207,2064
1630415917211,2064
1630415917215,2064
1630415917219,2063
1630415917223,2061
1630415917227,2060
1630415917231,2060
1630415917235,2061
1630415917239,2063
1630415917243,2064
1630415917247,2065
1630415917251,2065
1630415917255,2064
1630415917259,2062
1630415917263,2061
1630415917267,2060
1630415917271,2059
1630415917275,2057
1630415917279,2055
1630415917283,2054
1630415917287,2054
1630415917291,2053
1630415917295,2053
1630415917299,2052
1630415917303,2051
1630415917307,2051
1630415917311,2051
1630415917315,2052
1630415917319,2053
1630415917323,2054
1630415917327,2054
1630415917331,2054
1630415917335,2053
1630415917339,2052
1630415917343,2052
1630415917347,2051
1630415917351,2051
1630415917355,2052
1630415917359,2053
1630415917363,2054
1630415917367,2055
1630415917371,2055
1630415917375,2054
1630415917379,2052
1630415917383,2050
1630415917387,2049
1630415917391,2050
1630415917395,2051
1630415917399,2052
1630415917403,2053
1630415917407,2054
1630415917411,2054
1630415917415,2054
1630415917419,2054
1630415917423,2053
1630415917427,2053
1630415917431,2052
1630415917435,2053
1630415917439,2053
1630415917443,2055
1630415917447,2056
1630415917451,2057
1630415917455,2057
1630415917459,2057
1630415917463,2055
1630415917467,2053
1630415917471,2052
1630415917475,2052
1630415917479,2053
1630415917483,2054
1630415917487,2053
1630415917491,2052
1630415917495,2050
1630415917499,2049
1630415917503,2048
1630415917507,2048
1630415917511,2050
1630415917515,2052
1630415917519,2053
1630415917523,2054
1630415917527,2055
1630415917531,2054
1630415917535,2054
1630415917539,2053
1630415917543,2053
1630415917547,2054
1630415917551,2055
1630415917555,2057
1630415917559,2059
1630415917563,2060
1630415917567,2060
1630415917571,2059
1630415917575,2057
1630415917579,2056
1630415917583,2053
1630415917587,2052
1630415917591,2051
1630415917595,2050
1630415917599,2049
1630415917603,2050
1630415917607,2050
1630415917611,2050
1630415917615,2049
1630415917619,2048
1630415917623,2047
1630415917627,2047
1630415917631,2047
1630415917635,2048
1630415917639,2048
1630415917643,2047
1630415917647,2048
1630415917651,2048
1630415917655,2048
1630415917659,2048
1630415917663,2048
1630415917667,2047
1630415917671,2046
1630415917675,2046
1630415917679,2047
1630415917683,2048
1630415917687,2055
1630415917691,2065
1630415917695,2079
1630415917699,2092
1630415917703,2099
1630415917707,2095
1630415917711,2080
1630415917715,2058
1630415917719,2037
1630415917723,2022
1630415917727,2015
1630415917731,2016
1630415917735,2020
1630415917739,2025
1630415917743,2030
1630415917747,2033
1630415917751,2036
1630415917755,2038
1630415917759,2039
1630415917763,2040
1630415917767,2042
1630415917771,2045
1630415917775,2047
1630415917779,2048
1630415917783,2048
1630415917787,2048
1630415917791,2048
1630415917795,2048
1630415917799,2048
1630415917803,2048
1630415917807,2048
1630415917811,2049
1630415917815,2050
1630415917819,2050
1630415917823,2049
1630415917827,2048
1630415917831,2048
1630415917835,2048
1630415917839,2048
1630415917843,2049
1630415917847,2050
1630415917851,2051
1630415917855,2051
1630415917859,2050
1630415917863,2050
1630415917867,2050
1630415917871,2051
1630415917875,2052
1630415917879,2053
1630415917883,2054
1630415917887,2054
1630415917891,2054
1630415917895,2055
1630415917899,2055
1630415917903,2055
1630415917907,2055
1630415917911,2056
1630415917915,2057
1630415917919,2057
1630415917923,2058
1630415917927,2059
1630415917931,2059
1630415917935,2059
1630415917939,2059
1630415917943,2059
1630415917947,2059
1630415917951,2058
1630415917955,2058
1630415917959,2058
1630415917963,2058
1630415917967,2058
1630415917971,2058
1630415917975,2058
1630415917979,2057
1630415917983,2055
1630415917987,2054
1630415917991,2052
1630415917995,2051
1630415917999,2051
1630415918003,2050
1630415918007,2050
1630415918011,2049
1630415918015,2048
1630415918019,2046
1630415918023,2045
1630415918027,2044
1630415918031,2044
1630415918035,2044
1630415918039,2044
1630415918043,2043
1630415918047,2043
1630415918051,2043
1630415918055,2044
1630415918059,2045
1630415918063,2045
1630415918067,2044
1630415918071,2044
1630415918075,2044
1630415918079,2044
1630415918083,2045
1630415918087,2046
1630415918091,2046
1630415918095,2045
1630415918099,2045
1630415918103,2045
1630415918107,2044
1630415918111,2044
1630415918115,2043
1630415918119,2043
1630415918123,2043
1630415918127,2044
1630415918131,2045
1630415918135,2045
1630415918139,2045
1630415918143,2044
1630415918147,2043
1630415918151,2043
1630415918155,2043
1630415918159,2043
1630415918163,2044
1630415918167,2044
1630415918171,2044
1630415918175,2044
1630415918179,2043
1630415918183,2043
1630415918187,2042
1630415918191,2042
1630415918195,2042
1630415918199,2043
1630415918203,2043
1630415918207,2043
1630415918211,2042
1630415918215,2040
1630415918219,2039
1630415918223,2038
1630415918227,2039
1630415918231,2040
1630415918235,2042
1630415918239,2044
1630415918243,2044
1630415918247,2044
1630415918251,2044
1630415918255,2044
1630415918259,2044
1630415918263,2044
1630415918267,2044
1630415918271,2045
1630415918275,2048
1630415918279,2048
1630415918283,2049
1630415918287,2049
1630415918291,2048
1630415918295,2048
1630415918299,2047
1630415918303,2047
1630415918307,2047
1630415918311,2047
1630415918315,2046
1630415918319,2045
1630415918323,2043
1630415918327,2041
1630415918331,2039
1630415918335,2038
1630415918339,2038
1630415918343,2038
1630415918347,2039
1630415918351,2039
1630415918355,2038
1630415918359,2037
1630415918363,2037
1630415918367,2038
1630415918371,2039
1630415918375,2039
1630415918379,2037
1630415918383,2035
1630415918387,2033
1630415918391,2033
1630415918395,2035
1630415918399,2040
1630415918403,2046
1630415918407,2056
1630415918411,2071
1630415918415,2086
1630415918419,2094
1630415918423,2091
1630415918427,2077
1630415918431,2054
1630415918435,2034
1630415918439,2018
1630415918443,2012
1630415918447,2013
1630415918451,2016
1630415918455,2020
1630415918459,2023
1630415918463,2026
1630415918467,2029
1630415918471,2030
1630415918475,2031
1630415918479,2031
1630415918483,2031
1630415918487,2032
1630415918491,2033
1630415918495,2035
1630415918499,2037
1630415918503,2038
1630415918507,2039
1630415918511,2039
1630415918515,2040
1630415918519,2040
1630415918523,2041
1630415918527,2042
1630415918531,2043
1630415918535,2045
1630415918539,2045
1630415918543,2043
1630415918547,2042
1630415918551,2040
1630415918555,2039
1630415918559,2040
1630415918563,2042
1630415918567,2043
1630415918571,2044
1630415918575,2044
1630415918579,2044
1630415918583,2043
1630415918587,2042
1630415918591,2042
1630415918595,2042
1630415918599,2043
1630415918603,2043
1630415918607,2045
1630415918611,2046
1630415918615,2047
1630415918619,2047
1630415918623,2047
1630415918627,2047
1630415918631,2048
1630415918635,2048
1630415918639,2048
1630415918643,2048
1630415918647,2048
1630415918651,2048
1630415918655,2049
1630415918659,2049
1630415918663,2049
1630415918667,2048
1630415918671,2047
1630415918675,2046
1630415918679,2047
1630415918683,2047
1630415918687,2047
1630415918691,2047
1630415918695,2046
1630415918699,2045
1630415918703,2045
1630415918707,2045
1630415918711,2044
1630415918715,2043
1630415918719,2041
1630415918723,2038
1630415918727,2037
1630415918731,2038
1630415918735,2039
1630415918739,2039
1630415918743,2038
1630415918747,2036
1630415918751,2035
1630415918755,2036
1630415918759,2038
1630415918763,2041
1630415918767,2043
1630415918771,2043
1630415918775,2042
1630415918779,2040
1630415918783,2039
1630415918787,2038
1630415918791,2038
1630415918795,2039
1630415918799,2039
1630415918803,2038
1630415918807,2037
1630415918811,2036
1630415918815,2034
1630415918819,2033
1630415918823,2034
1630415918827,2036
1630415918831,2039
1630415918835,2041
1630415918839,2041
1630415918843,2040
1630415918847,2037
1630415918851,2034
1630415918855,2033
1630415918859,2035
1630415918863,2038
1630415918867,2041
1630415918871,2042
1630415918875,2042
1630415918879,2040
1630415918883,2038
1630415918887,2037
1630415918891,2037
1630415918895,2038
1630415918899,2039
1630415918903,2039
1630415918907,2040
1630415918911,2039
1630415918915,2038
1630415918919,2037
1630415918923,2037
1630415918927,2038
1630415918931,2038
1630415918935,2038
1630415918939,2036
1630415918943,2035
1630415918947,2034
1630415918951,2034
1630415918955,2036
1630415918959,2038
1630415918963,2041
1630415918967,2043
1630415918971,2045
1630415918975,2047
1630415918979,2047
1630415918983,2047
1630415918987,2046
1630415918991,2046
1630415918995,2046
1630415918999,2047
1630415919003,2047
1630415919007,2047
1630415919011,2047
1630415919015,2046
1630415919019,2043
1630415919023,2040
1630415919027,2038
1630415919031,2037
1630415919035,2037
1630415919039,2038
1630415919043,2039
1630415919047,2040
1630415919051,2041
1630415919055,2043
1630415919059,2044
1630415919063,2043
1630415919067,2042
1630415919071,2040
1630415919075,2040
1630415919079,2040
1630415919083,2042
1630415919087,2043
1630415919091,2043
1630415919095,2040
1630415919099,2037
1630415919103,2034
1630415919107,2033
1630415919111,2036
1630415919115,2043
1630415919119,2054
1630415919123,2070
1630415919127,2087
1630415919131,2100
1630415919135,2102
1630415919139,2091
1630415919143,2070
1630415919147,2047
1630415919151,2028
1630415919155,2019
1630415919159,2018
1630415919163,2022
1630415919167,2027
1630415919171,2030
1630415919175,2032
1630415919179,2034
1630415919183,2035
1630415919187,2037
1630415919191,2038
1630415919195,2040
1630415919199,2042
1630415919203,2044
1630415919207,2046
1630415919211,2046
1630415919215,2046
1630415919219,2047
1630415919223,2047
1630415919227,2048
1630415919231,2048
1630415919235,2048
1630415919239,2048
1630415919243,2048
1630415919247,2048
1630415919251,2048
1630415919255,2048
1630415919259,2048
1630415919263,2048
1630415919267,2048
1630415919271,2048
1630415919275,2050
1630415919279,2051
1630415919283,2051
1630415919287,2051
1630415919291,2051
1630415919295,2050
1630415919299,2050
1630415919303,2050
1630415919307,2051
1630415919311,2052
1630415919315,2054
1630415919319,2055
1630415919323,2056
1630415919327,2057
1630415919331,2057
1630415919335,2057
1630415919339,2057
1630415919343,2056
1630415919347,2056
1630415919351,2055
1630415919355,2055
1630415919359,2056
1630415919363,2056
1630415919367,2057
1630415919371,2058
1630415919375,2058
1630415919379,2058
1630415919383,2058
1630415919387,2057
1630415919391,2057
1630415919395,2058
1630415919399,2059
1630415919403,2060
1630415919407,2061
1630415919411,2059
1630415919415,2056
1630415919419,2053
1630415919423,2051
1630415919427,2050
1630415919431,2052
1630415919435,2053
1630415919439,2054
1630415919443,2054
1630415919447,2053
1630415919451,2052
1630415919455,2050
1630415919459,2049
1630415919463,2048
1630415919467,2048
1630415919471,2048
1630415919475,2049
1630415919479,2050
1630415919483,2050
1630415919487,2050
1630415919491,2049
1630415919495,2048
1630415919499,2046
1630415919503,2045
1630415919507,2046
1630415919511,2048
1630415919515,2050
1630415919519,2052
1630415919523,2052
1630415919527,2051
1630415919531,2050
1630415919535,2050
1630415919539,2050
1630415919543,2051
1630415919547,2051
1630415919551,2050
1630415919555,2050
1630415919559,2050
1630415919563,2052
1630415919567,2053
1630415919571,2054
1630415919575,2053
1630415919579,2051
1630415919583,2049
1630415919587,2048
1630415919591,2049
1630415919595,2052
1630415919599,2054
1630415919603,2054
1630415919607,2052
1630415919611,2049
1630415919615,2048
1630415919619,2048
1630415919623,2048
1630415919627,2050
1630415919631,2052
1630415919635,2053
1630415919639,2052
1630415919643,2051
1630415919647,2051
1630415919651,2052
1630415919655,2052
1630415919659,2050
1630415919663,2048
1630415919667,2047
1630415919671,2047
1630415919675,2049
1630415919679,2054
1630415919683,2057
1630415919687,2058
1630415919691,2059
1630415919695,2059
1630415919699,2060
1630415919703,2060
1630415919707,2059
1630415919711,2057
1630415919715,2056
1630415919719,2055
1630415919723,2055
1630415919727,2055
1630415919731,2056
1630415919735,2054
1630415919739,2051
1630415919743,2048
1630415919747,2046
1630415919751,2045
1630415919755,2046
1630415919759,2048
1630415919763,2053
1630415919767,2056
1630415919771,2057
1630415919775,2055
1630415919779,2051
1630415919783,2047
1630415919787,2045
1630415919791,2044
1630415919795,2044
1630415919799,2045
1630415919803,2046
1630415919807,2048
1630415919811,2048
1630415919815,2048
1630415919819,2050
1630415919823,2054
1630415919827,2064
1630415919831,2078
1630415919835,2094
1630415919839,2103
1630415919843,2100
1630415919847,2084
1630415919851,2062
1630415919855,2043
1630415919859,2031
1630415919863,2027
1630415919867,2030
1630415919871,2033
1630415919875,2034
1630415919879,2035
1630415919883,2036
1630415919887,2037
1630415919891,2040
1630415919895,2042
1630415919899,2042
1630415919903,2042
1630415919907,2044
1630415919911,2047
1630415919915,2049
1630415919919,2051
1630415919923,2050
1630415919927,2049
1630415919931,2048
1630415919935,2048
1630415919939,2048
1630415919943,2048
1630415919947,2047
1630415919951,2047
1630415919955,2048
1630415919959,2049
1630415919963,2053
1630415919967,2055
1630415919971,2055
1630415919975,2054
1630415919979,2052
1630415919983,2050
1630415919987,2050
1630415919991,2050
1630415919995,2050
1630415919999,2051
1630415920003,2052
1630415920007,2053
1630415920011,2055
1630415920015,2056
1630415920019,2056
1630415920023,2056
1630415920027,2055
1630415920031,2054
1630415920035,2054
1630415920039,2053
1630415920043,2054
1630415920047,2056
1630415920051,2058
1630415920055,2060
1630415920059,2061
1630415920063,2060
1630415920067,2059
1630415920071,2057
1630415920075,2056
1630415920079,2056
1630415920083,2058
1630415920087,2060
1630415920091,2062
1630415920095,2063
1630415920099,2062
1630415920103,2061
1630415920107,2060
1630415920111,2058
1630415920115,2058
1630415920119,2058
1630415920123,2059
1630415920127,2059
1630415920131,2059
1630415920135,2057
1630415920139,2054
1630415920143,2052
1630415920147,2052
1630415920151,2053
1630415920155,2055
1630415920159,2055
1630415920163,2053
1630415920167,2050
1630415920171,2048
1630415920175,2048
1630415920179,2049
1630415920183,2050
1630415920187,2050
1630415920191,2049
1630415920195,2048
1630415920199,2049
1630415920203,2050
1630415920207,2052
1630415920211,2053
1630415920215,2052
1630415920219,2050
1630415920223,2048
1630415920227,2047
1630415920231,2048
1630415920235,2049
1630415920239,2051
1630415920243,2052
1630415920247,2052
1630415920251,2051
1630415920255,2049
1630415920259,2048
1630415920263,2048
1630415920267,2048
1630415920271,2048
1630415920275,2048
1630415920279,2049
1630415920283,2050
1630415920287,2051
1630415920291,2052
1630415920295,2052
1630415920299,2051
1630415920303,2050
1630415920307,2050
1630415920311,2050
1630415920315,2052
1630415920319,2055
1630415920323,2057
1630415920327,2058
1630415920331,2057
1630415920335,2055
1630415920339,2053
1630415920343,2050
1630415920347,2048
1630415920351,2046
1630415920355,2046
1630415920359,2047
1630415920363,2048
1630415920367,2050
1630415920371,2053
1630415920375,2055
1630415920379,2056
1630415920383,2057
1630415920387,2059
1630415920391,2061
1630415920395,2063
1630415920399,2064
1630415920403,2063
1630415920407,2060
1630415920411,2055
1630415920415,2050
1630415920419,2047
1630415920423,2045
1630415920427,2047
1630415920431,2048
1630415920435,2049
1630415920439,2048
1630415920443,2048
1630415920447,2047
1630415920451,2046
1630415920455,2047
1630415920459,2048
1630415920463,2049
1630415920467,2049
1630415920471,2048
1630415920475,2048
1630415920479,2048
1630415920483,2050
1630415920487,2051
1630415920491,2052
1630415920495,2051
1630415920499,2051
1630415920503,2052
1630415920507,2057
1630415920511,2068
1630415920515,2085
1630415920519,2103
1630415920523,2118
1630415920527,2121
1630415920531,2111
1630415920535,2089
1630415920539,2064
1630415920543,2044
1630415920547,2033
1630415920551,2031
1630415920555,2034
1630415920559,2038
1630415920563,2040
1630415920567,2042
1630415920571,2044
1630415920575,2046
1630415920579,2048
1630415920583,2049
1630415920587,2050
1630415920591,2051
1630415920595,2053
1630415920599,2055
1630415920603,2058
1630415920607,2060
1630415920611,2062
1630415920615,2063
1630415920619,2063
1630415920623,2063
1630415920627,2061
1630415920631,2060
1630415920635,2059
1630415920639,2059
1630415920643,2062
1630415920647,2066
1630415920651,2069
1630415920655,2069
1630415920659,2068
1630415920663,2065
1630415920667,2062
1630415920671,2061
1630415920675,2061
1630415920679,2061
1630415920683,2062
1630415920687,2065
1630415920691,2067
1630415920695,2069
1630415920699,2069
1630415920703,2068
1630415920707,2068
1630415920711,2068
1630415920715,2071
1630415920719,2076
1630415920723,2080
1630415920727,2082
1630415920731,2080
1630415920735,2077
1630415920739,2072
1630415920743,2070
1630415920747,2070
1630415920751,2071
1630415920755,2074
1630415920759,2076
1630415920763,2076
1630415920767,2076
1630415920771,2076
1630415920775,2077
1630415920779,2077
1630415920783,2075
1630415920787,2073
1630415920791,2071
1630415920795,2071
1630415920799,2072
1630415920803,2074
1630415920807,2075
1630415920811,2075
1630415920815,2073
1630415920819,2070
1630415920823,2066
1630415920827,2064
1630415920831,2063
1630415920835,2062
1630415920839,2061
1630415920843,2058
1630415920847,2055
1630415920851,2053
1630415920855,2054
1630415920859,2057
1630415920863,2061
1630415920867,2067
1630415920871,2070
1630415920875,2070
1630415920879,2069
1630415920883,2067
1630415920887,2066
1630415920891,2064
1630415920895,2061
1630415920899,2058
1630415920903,2056
1630415920907,2055
1630415920911,2055
1630415920915,2057
1630415920919,2060
1630415920923,2063
1630415920927,2065
1630415920931,2066
1630415920935,2064
1630415920939,2062
1630415920943,2061
1630415920947,2060
1630415920951,2060
1630415920955,2061
1630415920959,2062
1630415920963,2063
1630415920967,2064
1630415920971,2065
1630415920975,2064
1630415920979,2062
1630415920983,2058
1630415920987,2055
1630415920991,2054
1630415920995,2054
1630415920999,2055
1630415921003,2056
1630415921007,2055
1630415921011,2055
1630415921015,2054
1630415921019,2056
1630415921023,2059
1630415921027,2063
1630415921031,2065
1630415921035,2066
1630415921039,2065
1630415921043,2063
1630415921047,2061
1630415921051,2057
1630415921055,2055
1630415921059,2054
1630415921063,2056
1630415921067,2058
1630415921071,2060
1630415921075,2061
1630415921079,2063
1630415921083,2064
1630415921087,2065
1630415921091,2064
1630415921095,2060
1630415921099,2056
1630415921103,2052
1630415921107,2051
1630415921111,2052
1630415921115,2052
1630415921119,2051
1630415921123,2049
1630415921127,2047
1630415921131,2048
1630415921135,2051
1630415921139,2056
1630415921143,2059
1630415921147,2059
1630415921151,2056
1630415921155,2052
1630415921159,2050
1630415921163,2050
1630415921167,2052
1630415921171,2056
1630415921175,2061
1630415921179,2068
1630415921183,2080
1630415921187,2094
1630415921191,2107
1630415921195,2115
1630415921199,2112
1630415921203,2098
1630415921207,2077
1630415921211,2056
1630415921215,2043
1630415921219,2038
1630415921223,2041
1630415921227,2045
1630415921231,2045
1630415921235,2041
1630415921239,2034
1630415921243,2031
1630415921247,2033
1630415921251,2041
1630415921255,2049
1630415921259,2054
1630415921263,2055
1630415921267,2051
1630415921271,2048
1630415921275,2047
1630415921279,2049
1630415921283,2054
1630415921287,2058
1630415921291,2059
1630415921295,2057
1630415921299,2054
1630415921303,2052
1630415921307,2053
1630415921311,2056
1630415921315,2061
1630415921319,2065
1630415921323,2065
1630415921327,2062
1630415921331,2059
1630415921335,2055
1630415921339,2053
1630415921343,2052
1630415921347,2052
1630415921351,2052
1630415921355,2055
1630415921359,2058
1630415921363,2062
1630415921367,2065
1630415921371,2066
1630415921375,2066
1630415921379,2065
1630415921383,2064
1630415921387,2063
1630415921391,2063
1630415921395,2062
1630415921399,2063
1630415921403,2064
1630415921407,2065
1630415921411,2066
1630415921415,2068
1630415921419,2069
1630415921423,2069
1630415921427,2068
1630415921431,2067
1630415921435,2066
1630415921439,2067
1630415921443,2068
1630415921447,2070
1630415921451,2071
1630415921455,2072
1630415921459,2073
1630415921463,2072
1630415921467,2070
1630415921471,2067
1630415921475,2063
1630415921479,2060
1630415921483,2058
1630415921487,2059
1630415921491,2062
1630415921495,2065
1630415921499,2066
1630415921503,2065
1630415921507,2063
1630415921511,2059
1630415921515,2056
1630415921519,2055
1630415921523,2056
1630415921527,2057
1630415921531,2059
1630415921535,2061
1630415921539,2062
1630415921543,2062
1630415921547,2062
1630415921551,2062
1630415921555,2061
1630415921559,2060
1630415921563,2059
1630415921567,2058
1630415921571,2057
1630415921575,2055
1630415921579,2053
1630415921583,2052
1630415921587,2052
1630415921591,2053
1630415921595,2054
1630415921599,2055
1630415921603,2055
1630415921607,2055
1630415921611,2055
1630415921615,2055
1630415921619,2054
1630415921623,2053
1630415921627,2051
1630415921631,2050
1630415921635,2049
1630415921639,2049
1630415921643,2048
1630415921647,2048
1630415921651,2046
1630415921655,2046
1630415921659,2046
1630415921663,2048
1630415921667,2049
1630415921671,2051
1630415921675,2051
1630415921679,2050
1630415921683,2048
1630415921687,2047
1630415921691,2046
1630415921695,2046
1630415921699,2046
1630415921703,2045
1630415921707,2045
1630415921711,2044
1630415921715,2045
1630415921719,2045
1630415921723,2046
1630415921727,2046
1630415921731,2044
1630415921735,2041
1630415921739,2038
1630415921743,2037
1630415921747,2036
1630415921751,2036
1630415921755,2036
1630415921759,2037
1630415921763,2039
1630415921767,2043
1630415921771,2046
1630415921775,2046
1630415921779,2042
1630415921783,2037
1630415921787,2032
1630415921791,2031
1630415921795,2034
1630415921799,2038
1630415921803,2041
1630415921807,2041
1630415921811,2039
1630415921815,2038
1630415921819,2043
1630415921823,2057
1630415921827,2078
1630415921831,2099
1630415921835,2112
1630415921839,2110
1630415921843,2092
1630415921847,2066
1630415921851,2041
1630415921855,2022
1630415921859,2013
1630415921863,2012
1630415921867,2015
1630415921871,2018
1630415921875,2021
1630415921879,2024
1630415921883,2026
1630415921887,2028
1630415921891,2029
1630415921895,2030
1630415921899,2032
1630415921903,2034
1630415921907,2035
1630415921911,2035
1630415921915,2036
1630415921919,2037
1630415921923,2037
1630415921927,2038
1630415921931,2037
1630415921935,2036
1630415921939,2035
1630415921943,2034
1630415921947,2032
1630415921951,2032
1630415921955,2034
1630415921959,2038
1630415921963,2043
1630415921967,2047
1630415921971,2048
1630415921975,2048
1630415921979,2044
1630415921983,2041
1630415921987,2040
1630415921991,2042
1630415921995,2045
1630415921999,2048
1630415922003,2048
1630415922007,2049
1630415922011,2049
1630415922015,2048
1630415922019,2048
1630415922023,2048
1630415922027,2047
1630415922031,2047
1630415922035,2047
1630415922039,2048
1630415922043,2049
1630415922047,2050
1630415922051,2050
1630415922055,2049
1630415922059,2048
1630415922063,2048
1630415922067,2048
1630415922071,2049
1630415922075,2051
1630415922079,2052
1630415922083,2054
1630415922087,2056
1630415922091,2056
1630415922095,2057
1630415922099,2056
1630415922103,2055
1630415922107,2053
1630415922111,2050
1630415922115,2048
1630415922119,2047
1630415922123,2045
1630415922127,2043
1630415922131,2042
1630415922135,2041
1630415922139,2041
1630415922143,2041
1630415922147,2040
1630415922151,2039
1630415922155,2038
1630415922159,2037
1630415922163,2037
1630415922167,2038
1630415922171,2039
1630415922175,2039
1630415922179,2038
1630415922183,2037
1630415922187,2037
1630415922191,2037
1630415922195,2038
1630415922199,2038
1630415922203,2038
1630415922207,2038
1630415922211,2037
1630415922215,2037
1630415922219,2037
1630415922223,2037
1630415922227,2038
1630415922231,2037
1630415922235,2037
1630415922239,2038
1630415922243,2038
1630415922247,2039
1630415922251,2039
1630415922255,2040
1630415922259,2041
1630415922263,2041
1630415922267,2042
1630415922271,2042
1630415922275,2043
1630415922279,2043
1630415922283,2044
1630415922287,2044
1630415922291,2043
1630415922295,2043
1630415922299,2043
1630415922303,2043
1630415922307,2043
1630415922311,2044
1630415922315,2045
1630415922319,2046
1630415922323,2046
1630415922327,2046
1630415922331,2046
1630415922335,2047
1630415922339,2048
1630415922343,2049
1630415922347,2050
1630415922351,2049
1630415922355,2049
1630415922359,2048
1630415922363,2048
1630415922367,2047
1630415922371,2046
1630415922375,2045
1630415922379,2042
1630415922383,2041
1630415922387,2040
1630415922391,2039
1630415922395,2039
1630415922399,2038
1630415922403,2036
1630415922407,2034
1630415922411,2034
1630415922415,2035
1630415922419,2036
1630415922423,2037
1630415922427,2037
1630415922431,2037
1630415922435,2037
1630415922439,2037
1630415922443,2036
1630415922447,2035
1630415922451,2033
1630415922455,2031
1630415922459,2030
1630415922463,2032
1630415922467,2037
1630415922471,2047
1630415922475,2064
1630415922479,2086
1630415922483,2107
1630415922487,2118
1630415922491,2113
1630415922495,2094
1630415922499,2067
1630415922503,2043
1630415922507,2026
1630415922511,2020
1630415922515,2020
1630415922519,2024
1630415922523,2026
1630415922527,2027
1630415922531,2030
1630415922535,2034
1630415922539,2037
1630415922543,2040
1630415922547,2040
1630415922551,2040
1630415922555,2040
1630415922559,2042
1630415922563,2043
1630415922567,2043
1630415922571,2042
1630415922575,2041
1630415922579,2042
1630415922583,2046
1630415922587,2050
1630415922591,2055
1630415922595,2059
1630415922599,2060
1630415922603,2060
1630415922607,2060
1630415922611,2059
1630415922615,2059
1630415922619,2059
1630415922623,2059
1630415922627,2059
1630415922631,2061
1630415922635,2063
1630415922639,2065
1630415922643,2066
1630415922647,2067
1630415922651,2067
1630415922655,2066
1630415922659,2065
1630415922663,2065
1630415922667,2065
1630415922671,2066
1630415922675,2068
1630415922679,2069
1630415922683,2070
1630415922687,2069
1630415922691,2066
1630415922695,2062
1630415922699,2061
1630415922703,2062
1630415922707,2066
1630415922711,2072
1630415922715,2077
1630415922719,2080
1630415922723,2081
1630415922727,2080
1630415922731,2078
1630415922735,2078
1630415922739,2077
1630415922743,2076
1630415922747,2076
1630415922751,2074
1630415922755,2072
1630415922759,2070
1630415922763,2069
1630415922767,2069
1630415922771,2068
1630415922775,2068
1630415922779,2066
1630415922783,2065
1630415922787,2064
1630415922791,2063
1630415922795,2063
1630415922799,2063
1630415922803,2063
1630415922807,2063
1630415922811,2063
1630415922815,2062
1630415922819,2061
1630415922823,2060
1630415922827,2057
1630415922831,2056
1630415922835,2055
1630415922839,2056
1630415922843,2057
1630415922847,2060
1630415922851,2061
1630415922855,2060
1630415922859,2058
1630415922863,2055
1630415922867,2053
1630415922871,2052
1630415922875,2053
1630415922879,2055
1630415922883,2057
1630415922887,2059
1630415922891,2060
1630415922895,2060
1630415922899,2061
1630415922903,2062
1630415922907,2062
1630415922911,2061
1630415922915,2062
1630415922919,2062
1630415922923,2062
1630415922927,2061
1630415922931,2060
1630415922935,2058
1630415922939,2057
1630415922943,2058
1630415922947,2060
1630415922951,2063
1630415922955,2065
1630415922959,2067
1630415922963,2068
1630415922967,2070
1630415922971,2071
1630415922975,2071
1630415922979,2070
1630415922983,2069
1630415922987,2068
1630415922991,2069
1630415922995,2070
1630415922999,2071
1630415923003,2071
1630415923007,2070
1630415923011,2069
1630415923015,2068
1630415923019,2069
1630415923023,2068
1630415923027,2067
1630415923031,2066
1630415923035,2066
1630415923039,2066
1630415923043,2068
1630415923047,2068
1630415923051,2069
1630415923055,2068
1630415923059,2068
1630415923063,2069
1630415923067,2070
1630415923071,2071
1630415923075,2071
1630415923079,2070
1630415923083,2070
1630415923087,2070
1630415923091,2069
1630415923095,2068
1630415923099,2066
1630415923103,2064
1630415923107,2065
1630415923111,2073
1630415923115,2089
1630415923119,2111
1630415923123,2134
1630415923127,2152
1630415923131,2155
1630415923135,2142
1630415923139,2117
1630415923143,2089
1630415923147,2065
1630415923151,2052
1630415923155,2048
1630415923159,2050
1630415923163,2053
1630415923167,2056
1630415923171,2058
1630415923175,2060
1630415923179,2062
1630415923183,2063
1630415923187,2064
1630415923191,2064
1630415923195,2065
1630415923199,2065
1630415923203,2065
1630415923207,2066
1630415923211,2067
1630415923215,2069
1630415923219,2070
1630415923223,2071
1630415923227,2072
1630415923231,2071
1630415923235,2070
1630415923239,2069
1630415923243,2069
1630415923247,2069
1630415923251,2070
1630415923255,2072
1630415923259,2073
1630415923263,2075
1630415923267,2076
1630415923271,2076
1630415923275,2077
1630415923279,2078
1630415923283,2079
1630415923287,2079
1630415923291,2080
1630415923295,2081
1630415923299,2082
1630415923303,2083
1630415923307,2083
1630415923311,2083
1630415923315,2083
1630415923319,2084
1630415923323,2085
1630415923327,2085
1630415923331,2086
1630415923335,2088
1630415923339,2090
1630415923343,2091
1630415923347,2093
1630415923351,2094
1630415923355,2094
1630415923359,2094
1630415923363,2094
1630415923367,2094
1630415923371,2095
1630415923375,2095
1630415923379,2096
1630415923383,2097
1630415923387,2096
1630415923391,2093
1630415923395,2089
1630415923399,2084
1630415923403,2080
1630415923407,2079
1630415923411,2079
1630415923415,2081
1630415923419,2082
1630415923423,2083
1630415923427,2084
1630415923431,2085
1630415923435,2086
1630415923439,2086
1630415923443,2085
1630415923447,2084
1630415923451,2081
1630415923455,2079
1630415923459,2078
1630415923463,2077
1630415923467,2077
1630415923471,2076
1630415923475,2076
1630415923479,2076
1630415923483,2078
1630415923487,2080
1630415923491,2082
1630415923495,2083
1630415923499,2084
1630415923503,2084
1630415923507,2084
1630415923511,2084
1630415923515,2084
1630415923519,2083
1630415923523,2083
1630415923527,2083
1630415923531,2083
1630415923535,2084
1630415923539,2085
1630415923543,2083
1630415923547,2081
1630415923551,2079
1630415923555,2080
1630415923559,2084
1630415923563,2089
1630415923567,2094
1630415923571,2097
1630415923575,2097
1630415923579,2095
1630415923583,2093
1630415923587,2091
1630415923591,2091
1630415923595,2091
1630415923599,2091
1630415923603,2092
1630415923607,2094
1630415923611,2096
1630415923615,2099
1630415923619,2100
1630415923623,2101
1630415923627,2100
1630415923631,2098
1630415923635,2094
1630415923639,2091
1630415923643,2087
1630415923647,2083
1630415923651,2080
1630415923655,2077
1630415923659,2077
1630415923663,2078
1630415923667,2082
1630415923671,2086
1630415923675,2091
1630415923679,2094
1630415923683,2095
1630415923687,2095
1630415923691,2093
1630415923695,2092
1630415923699,2091
1630415923703,2089
1630415923707,2089
1630415923711,2087
1630415923715,2085
1630415923719,2083
1630415923723,2081
1630415923727,2079
1630415923731,2080
1630415923735,2083
1630415923739,2091
1630415923743,2106
1630415923747,2128
1630415923751,2153
1630415923755,2171
1630415923759,2174
1630415923763,2159
1630415923767,2128
1630415923771,2094
1630415923775,2067
1630415923779,2051
1630415923783,2048
1630415923787,2050
1630415923791,2054
1630415923795,2058
1630415923799,2060
1630415923803,2063
1630415923807,2066
1630415923811,2069
1630415923815,2070
1630415923819,2071
1630415923823,2072
1630415923827,2073
1630415923831,2074
1630415923835,2074
1630415923839,2074
1630415923843,2074
1630415923847,2074
1630415923851,2074
1630415923855,2073
1630415923859,2072
1630415923863,2071
1630415923867,2071
1630415923871,2072
1630415923875,2076
1630415923879,2080
1630415923883,2083
1630415923887,2085
1630415923891,2085
1630415923895,2085
1630415923899,2084
1630415923903,2084
1630415923907,2083
1630415923911,2082
1630415923915,2082
1630415923919,2082
1630415923923,2082
1630415923927,2081
1630415923931,2080
1630415923935,2080
1630415923939,2081
1630415923943,2083
1630415923947,2086
1630415923951,2089
1630415923955,2091
1630415923959,2092
1630415923963,2092
1630415923967,2092
1630415923971,2092
1630415923975,2094
1630415923979,2095
1630415923983,2095
1630415923987,2094
1630415923991,2093
1630415923995,2092
1630415923999,2091
1630415924003,2091
1630415924007,2091
1630415924011,2091
1630415924015,2090
1630415924019,2088
1630415924023,2085
1630415924027,2083
1630415924031,2080
1630415924035,2079
1630415924039,2079
1630415924043,2081
1630415924047,2082
1630415924051,2082
1630415924055,2081
1630415924059,2078
1630415924063,2075
1630415924067,2073
1630415924071,2072
1630415924075,2072
1630415924079,2072
1630415924083,2070
1630415924087,2068
1630415924091,2066
1630415924095,2065
1630415924099,2064
1630415924103,2064
1630415924107,2065
1630415924111,2065
1630415924115,2064
1630415924119,2064
1630415924123,2065
1630415924127,2067
1630415924131,2069
1630415924135,2070
1630415924139,2070
1630415924143,2069
1630415924147,2069
1630415924151,2069
1630415924155,2069
1630415924159,2069
1630415924163,2070
1630415924167,2070
1630415924171,2069
1630415924175,2068
1630415924179,2067
1630415924183,2066
1630415924187,2065
1630415924191,2064
1630415924195,2065
1630415924199,2066
1630415924203,2067
1630415924207,2068
1630415924211,2068
1630415924215,2068
1630415924219,2067
1630415924223,2066
1630415924227,2065
1630415924231,2065
1630415924235,2065
1630415924239,2066
1630415924243,2067
1630415924247,2068
1630415924251,2068
1630415924255,2068
1630415924259,2069
1630415924263,2069
1630415924267,2071
1630415924271,2073
1630415924275,2073
1630415924279,2071
1630415924283,2067
1630415924287,2065
1630415924291,2064
1630415924295,2063
1630415924299,2063
1630415924303,2062
1630415924307,2061
1630415924311,2061
1630415924315,2061
1630415924319,2063
1630415924323,2064
1630415924327,2064
1630415924331,2061
1630415924335,2059
1630415924339,2056
1630415924343,2054
1630415924347,2053
1630415924351,2052
1630415924355,2053
1630415924359,2054
1630415924363,2056
1630415924367,2058
1630415924371,2062
1630415924375,2068
1630415924379,2080
1630415924383,2099
1630415924387,2122
1630415924391,2142
1630415924395,2149
1630415924399,2141
1630415924403,2118
1630415924407,2091
1630415924411,2068
1630415924415,2052
1630415924419,2047
1630415924423,2047
1630415924427,2049
1630415924431,2053
1630415924435,2057
1630415924439,2060
1630415924443,2062
1630415924447,2061
1630415924451,2060
1630415924455,2059
1630415924459,2058
1630415924463,2058
1630415924467,2059
1630415924471,2059
1630415924475,2060
1630415924479,2062
1630415924483,2063
1630415924487,2065
1630415924491,2067
1630415924495,2067
1630415924499,2066
1630415924503,2065
1630415924507,2063
1630415924511,2063
1630415924515,2063
1630415924519,2065
1630415924523,2066
1630415924527,2067
1630415924531,2068
1630415924535,2068
1630415924539,2067
1630415924543,2067
1630415924547,2068
1630415924551,2069
1630415924555,2071
1630415924559,2074
1630415924563,2076
1630415924567,2077
1630415924571,2076
1630415924575,2075
1630415924579,2074
1630415924583,2073
1630415924587,2074
1630415924591,2074
1630415924595,2074
1630415924599,2074
1630415924603,2074
1630415924607,2074
1630415924611,2075
1630415924615,2076
1630415924619,2077
1630415924623,2077
1630415924627,2076
1630415924631,2074
1630415924635,2073
1630415924639,2073
1630415924643,2074
1630415924647,2075
1630415924651,2076
1630415924655,2075
1630415924659,2073
1630415924663,2070
1630415924667,2067
1630415924671,2064
1630415924675,2063
1630415924679,2061
1630415924683,2061
1630415924687,2060
1630415924691,2058
1630415924695,2055
1630415924699,2052
1630415924703,2050
1630415924707,2048
1630415924711,2048
1630415924715,2049
1630415924719,2051
1630415924723,2053
1630415924727,2055
1630415924731,2055
1630415924735,2055
1630415924739,2053
1630415924743,2052
1630415924747,2052
1630415924751,2052
1630415924755,2052
1630415924759,2053
1630415924763,2052
1630415924767,2051
1630415924771,2051
1630415924775,2052
1630415924779,2053
1630415924783,2055
1630415924787,2056
1630415924791,2056
1630415924795,2055
1630415924799,2054
1630415924803,2052
1630415924807,2050
1630415924811,2050
1630415924815,2050
1630415924819,2052
1630415924823,2053
1630415924827,2053
1630415924831,2052
1630415924835,2050
1630415924839,2049
1630415924843,2049
1630415924847,2051
1630415924851,2054
1630415924855,2057
1630415924859,2057
1630415924863,2056
1630415924867,2054
1630415924871,2053
1630415924875,2053
1630415924879,2055
1630415924883,2056
1630415924887,2057
1630415924891,2058
1630415924895,2059
1630415924899,2059
1630415924903,2059
1630415924907,2059
1630415924911,2058
1630415924915,2058
1630415924919,2057
1630415924923,2056
1630415924927,2054
1630415924931,2052
1630415924935,2049
1630415924939,2048
1630415924943,2045
1630415924947,2045
1630415924951,2046
1630415924955,2048
1630415924959,2049
1630415924963,2052
1630415924967,2053
1630415924971,2053
1630415924975,2051
1630415924979,2048
1630415924983,2047
1630415924987,2046
1630415924991,2046
1630415924995,2046
1630415924999,2046
1630415925003,2045
1630415925007,2043
1630415925011,2042
1630415925015,2041
1630415925019,2042
1630415925023,2044
1630415925027,2049
1630415925031,2062
1630415925035,2082
1630415925039,2104
1630415925043,2121
1630415925047,2125
1630415925051,2113
1630415925055,2091
1630415925059,2065
1630415925063,2044
1630415925067,2033
1630415925071,2030
1630415925075,2033
1630415925079,2036
1630415925083,2037
1630415925087,2037
1630415925091,2037
1630415925095,2037
1630415925099,2036
1630415925103,2035
1630415925107,2036
1630415925111,2037
1630415925115,2039
1630415925119,2041
1630415925123,2043
1630415925127,2044
1630415925131,2044
1630415925135,2043
1630415925139,2042
1630415925143,2040
1630415925147,2039
1630415925151,2037
1630415925155,2036
1630415925159,2037
1630415925163,2039
1630415925167,2042
1630415925171,2045
1630415925175,2046
1630415925179,2045
1630415925183,2043
1630415925187,2042
1630415925191,2041
1630415925195,2042
1630415925199,2044
1630415925203,2046
1630415925207,2048
1630415925211,2048
1630415925215,2048
1630415925219,2047
1630415925223,2045
1630415925227,2044
1630415925231,2044
1630415925235,2044
1630415925239,2045
1630415925243,2046
1630415925247,2048
1630415925251,2048
1630415925255,2050
1630415925259,2051
1630415925263,2052
1630415925267,2052
1630415925271,2052
1630415925275,2051
1630415925279,2051
1630415925283,2051
1630415925287,2052
1630415925291,2052
1630415925295,2052
1630415925299,2052
1630415925303,2051
1630415925307,2050
1630415925311,2049
1630415925315,2049
1630415925319,2049
1630415925323,2048
1630415925327,2048
1630415925331,2046
1630415925335,2044
1630415925339,2042
1630415925343,2040
1630415925347,2039
1630415925351,2039
1630415925355,2039
1630415925359,2040
1630415925363,2040
1630415925367,2041
1630415925371,2041
1630415925375,2041
1630415925379,2041
1630415925383,2041
1630415925387,2040
1630415925391,2039
1630415925395,2037
1630415925399,2036
1630415925403,2036
1630415925407,2037
1630415925411,2039
1630415925415,2040
1630415925419,2040
1630415925423,2040
1630415925427,2039
1630415925431,2038
1630415925435,2038
1630415925439,2039
1630415925443,2039
1630415925447,2039
1630415925451,2039
1630415925455,2038
1630415925459,2038
1630415925463,2038
1630415925467,2038
1630415925471,2039
1630415925475,2040
1630415925479,2041
1630415925483,2042
1630415925487,2042
1630415925491,2043
1630415925495,2043
1630415925499,2042
1630415925503,2041
1630415925507,2040
1630415925511,2038
1630415925515,2038
1630415925519,2037
1630415925523,2038
1630415925527,2039
1630415925531,2040
1630415925535,2041
1630415925539,2042
1630415925543,2043
1630415925547,2044
1630415925551,2044
1630415925555,2044
1630415925559,2045
1630415925563,2046
1630415925567,2046
1630415925571,2047
1630415925575,2048
1630415925579,2048
1630415925583,2048
1630415925587,2049
1630415925591,2049
1630415925595,2049
1630415925599,2048
1630415925603,2048
1630415925607,2047
1630415925611,2045
1630415925615,2044
1630415925619,2042
1630415925623,2041
1630415925627,2041
1630415925631,2043
1630415925635,2044
1630415925639,2044
1630415925643,2043
1630415925647,2042
1630415925651,2041
1630415925655,2041
1630415925659,2042
1630415925663,2042
1630415925667,2043
1630415925671,2042
1630415925675,2042
1630415925679,2041
1630415925683,2042
1630415925687,2042
1630415925691,2041
1630415925695,2038
1630415925699,2037
1630415925703,2038
1630415925707,2042
1630415925711,2050
1630415925715,2065
1630415925719,2085
1630415925723,2104
1630415925727,2118
1630415925731,2118
1630415925735,2104
1630415925739,2079
1630415925743,2053
1630415925747,2033
1630415925751,2022
1630415925755,2021
1630415925759,2025
1630415925763,2029
1630415925767,2032
1630415925771,2034
1630415925775,2035
1630415925779,2036
1630415925783,2037
1630415925787,2037
1630415925791,2037
1630415925795,2037
1630415925799,2037
1630415925803,2037
1630415925807,2038
1630415925811,2040
1630415925815,2040
1630415925819,2039
1630415925823,2039
1630415925827,2039
1630415925831,2039
1630415925835,2039
1630415925839,2040
1630415925843,2040
1630415925847,2040
1630415925851,2040
1630415925855,2041
1630415925859,2042
1630415925863,2044
1630415925867,2045
1630415925871,2046
1630415925875,2045
1630415925879,2043
1630415925883,2042
1630415925887,2042
1630415925891,2042
1630415925895,2043
1630415925899,2044
1630415925903,2044
1630415925907,2045
1630415925911,2046
1630415925915,2047
1630415925919,2047
1630415925923,2047
1630415925927,2047
1630415925931,2048
1630415925935,2048
1630415925939,2049
1630415925943,2050
1630415925947,2049
1630415925951,2048
1630415925955,2047
1630415925959,2047
1630415925963,2048
1630415925967,2048
1630415925971,2049
1630415925975,2049
1630415925979,2048
1630415925983,2048
1630415925987,2047
1630415925991,2047
1630415925995,2046
1630415925999,2046
1630415926003,2045
1630415926007,2044
1630415926011,2042
1630415926015,2040
1630415926019,2040
1630415926023,2039
1630415926027,2039
1630415926031,2038
1630415926035,2038
1630415926039,2037
1630415926043,2036
1630415926047,2035
1630415926051,2034
1630415926055,2033
1630415926059,2032
1630415926063,2033
1630415926067,2034
1630415926071,2035
1630415926075,2036
1630415926079,2036
1630415926083,2035
1630415926087,2034
1630415926091,2034
1630415926095,2034
1630415926099,2034
1630415926103,2034
1630415926107,2032
1630415926111,2030
1630415926115,2029
1630415926119,2029
1630415926123,2030
1630415926127,2033
1630415926131,2035
1630415926135,2036
1630415926139,2036
1630415926143,2034
1630415926147,2033
1630415926151,2032
1630415926155,2033
1630415926159,2035
1630415926163,2035
1630415926167,2035
1630415926171,2034
1630415926175,2033
1630415926179,2032
1630415926183,2031
1630415926187,2031
1630415926191,2030
1630415926195,2031
1630415926199,2031
1630415926203,2031
1630415926207,2032
1630415926211,2031
1630415926215,2030
1630415926219,2029
1630415926223,2028
1630415926227,2029
1630415926231,2029
1630415926235,2031
1630415926239,2032
1630415926243,2033
1630415926247,2034
1630415926251,2034
1630415926255,2033
1630415926259,2032
1630415926263,2032
1630415926267,2032
1630415926271,2032
1630415926275,2032
1630415926279,2033
1630415926283,2033
1630415926287,2034
1630415926291,2034
1630415926295,2035
1630415926299,2034
1630415926303,2034
1630415926307,2035
1630415926311,2036
1630415926315,2037
1630415926319,2038
1630415926323,2038
1630415926327,2037
1630415926331,2035
1630415926335,2033
1630415926339,2031
1630415926343,2030
1630415926347,2030
1630415926351,2030
1630415926355,2030
1630415926359,2029
1630415926363,2027
1630415926367,2027
1630415926371,2027
1630415926375,2028
1630415926379,2029
1630415926383,2029
1630415926387,2029
1630415926391,2029
1630415926395,2028
1630415926399,2028
1630415926403,2028
1630415926407,2028
1630415926411,2027
1630415926415,2026
1630415926419,2026
1630415926423,2028
1630415926427,2034
1630415926431,2046
1630415926435,2061
1630415926439,2080
1630415926443,2094
1630415926447,2099
1630415926451,2093
1630415926455,2076
1630415926459,2054
1630415926463,2035
1630415926467,2020
1630415926471,2012
1630415926475,2010
1630415926479,2012
1630415926483,2015
1630415926487,2019
1630415926491,2022
1630415926495,2023
1630415926499,2024
1630415926503,2024
1630415926507,2023
1630415926511,2023
1630415926515,2024
1630415926519,2026
1630415926523,2028
1630415926527,2029
1630415926531,2031
1630415926535,2031
1630415926539,2030
1630415926543,2030
1630415926547,2030
1630415926551,2031
1630415926555,2031
1630415926559,2031
1630415926563,2031
1630415926567,2030
1630415926571,2030
1630415926575,2031
1630415926579,2031
1630415926583,2032
1630415926587,2031
1630415926591,2031
1630415926595,2031
1630415926599,2032
1630415926603,2033
1630415926607,2035
1630415926611,2038
1630415926615,2039
1630415926619,2039
1630415926623,2037
1630415926627,2035
1630415926631,2034
1630415926635,2034
1630415926639,2035
1630415926643,2036
1630415926647,2037
1630415926651,2038
1630415926655,2038
1630415926659,2039
1630415926663,2039
1630415926667,2040
1630415926671,2040
1630415926675,2040
1630415926679,2041
1630415926683,2041
1630415926687,2041
1630415926691,2040
1630415926695,2039
1630415926699,2038
1630415926703,2038
1630415926707,2038
1630415926711,2038
1630415926715,2038
1630415926719,2038
1630415926723,2038
1630415926727,2038
1630415926731,2038
1630415926735,2038
1630415926739,2036
1630415926743,2034
1630415926747,2031
1630415926751,2030
1630415926755,2030
1630415926759,2031
1630415926763,2032
1630415926767,2032
1630415926771,2032
1630415926775,2032
1630415926779,2031
1630415926783,2030
1630415926787,2029
1630415926791,2028
1630415926795,2026
1630415926799,2026
1630415926803,2026
1630415926807,2028
1630415926811,2030
1630415926815,2031
1630415926819,2031
1630415926823,2031
1630415926827,2029
1630415926831,2029
1630415926835,2029
1630415926839,2031
1630415926843,2032
1630415926847,2033
1630415926851,2033
1630415926855,2032
1630415926859,2031
1630415926863,2030
1630415926867,2029
1630415926871,2030
1630415926875,2031
1630415926879,2033
1630415926883,2034
1630415926887,2034
1630415926891,2033
1630415926895,2031
1630415926899,2030
1630415926903,2029
1630415926907,2029
1630415926911,2030
1630415926915,2031
1630415926919,2033
1630415926923,2033
1630415926927,2033
1630415926931,2032
1630415926935,2031
1630415926939,2031
1630415926943,2031
1630415926947,2031
1630415926951,2032
1630415926955,2033
1630415926959,2033
1630415926963,2032
1630415926967,2032
1630415926971,2031
1630415926975,2031
1630415926979,2032
1630415926983,2032
1630415926987,2033
1630415926991,2032
1630415926995,2032
1630415926999,2032
1630415927003,2032
1630415927007,2033
1630415927011,2034
1630415927015,2034
1630415927019,2034
1630415927023,2033
1630415927027,2033
1630415927031,2033
1630415927035,2034
1630415927039,2036
1630415927043,2037
1630415927047,2039
1630415927051,2040
1630415927055,2041
1630415927059,2043
1630415927063,2043
1630415927067,2042
1630415927071,2041
1630415927075,2039
1630415927079,2039
1630415927083,2039
1630415927087,2039
1630415927091,2040
1630415927095,2040
1630415927099,2039
1630415927103,2037
1630415927107,2035
1630415927111,2035
1630415927115,2035
1630415927119,2036
1630415927123,2038
1630415927127,2038
1630415927131,2038
1630415927135,2037
1630415927139,2036
1630415927143,2036
1630415927147,2037
1630415927151,2037
1630415927155,2037
1630415927159,2036
1630415927163,2035
1630415927167,2033
1630415927171,2033
1630415927175,2032
1630415927179,2034
1630415927183,2039
1630415927187,2048
1630415927191,2064
1630415927195,2083
1630415927199,2102
1630415927203,2111
1630415927207,2107
1630415927211,2090
1630415927215,2066
1630415927219,2043
1630415927223,2027
1630415927227,2019
1630415927231,2018
1630415927235,2021
1630415927239,2025
1630415927243,2029
1630415927247,2032
1630415927251,2033
1630415927255,2034
1630415927259,2033
1630415927263,2033
1630415927267,2034
1630415927271,2036
1630415927275,2038
1630415927279,2039
1630415927283,2039
1630415927287,2039
1630415927291,2038
1630415927295,2038
1630415927299,2038
1630415927303,2039
1630415927307,2040
1630415927311,2041
1630415927315,2042
1630415927319,2042
1630415927323,2042
1630415927327,2042
1630415927331,2042
1630415927335,2042
1630415927339,2043
1630415927343,2044
1630415927347,2044
1630415927351,2044
1630415927355,2043
1630415927359,2043
1630415927363,2044
1630415927367,2045
1630415927371,2046
1630415927375,2047
1630415927379,2047
1630415927383,2046
1630415927387,2046
1630415927391,2047
1630415927395,2048
1630415927399,2050
1630415927403,2051
1630415927407,2052
1630415927411,2051
1630415927415,2050
1630415927419,2050
1630415927423,2049
1630415927427,2049
1630415927431,2049
1630415927435,2049
1630415927439,2049
1630415927443,2048
1630415927447,2048
1630415927451,2048
1630415927455,2048
1630415927459,2048
1630415927463,2048
1630415927467,2048
1630415927471,2048
1630415927475,2049
1630415927479,2049
1630415927483,2048
1630415927487,2047
1630415927491,2045
1630415927495,2045
1630415927499,2045
1630415927503,2046
1630415927507,2046
1630415927511,2046
1630415927515,2044
1630415927519,2043
1630415927523,2043
1630415927527,2044
1630415927531,2045
1630415927535,2046
1630415927539,2044
1630415927543,2043
1630415927547,2042
1630415927551,2042
1630415927555,2043
1630415927559,2044
1630415927563,2044
1630415927567,2043
1630415927571,2043
1630415927575,2043
1630415927579,2042
1630415927583,2042
1630415927587,2042
1630415927591,2044
1630415927595,2046
1630415927599,2048
1630415927603,2048
1630415927607,2048
1630415927611,2047
1630415927615,2045
1630415927619,2043
1630415927623,2043
1630415927627,2043
1630415927631,2044
1630415927635,2045
1630415927639,2047
1630415927643,2048
1630415927647,2048
1630415927651,2048
1630415927655,2048
1630415927659,2047
1630415927663,2046
1630415927667,2045
1630415927671,2045
1630415927675,2045
1630415927679,2045
1630415927683,2045
1630415927687,2045
1630415927691,2045
1630415927695,2045
1630415927699,2046
1630415927703,2046
1630415927707,2046
1630415927711,2046
1630415927715,2045
1630415927719,2044
1630415927723,2044
1630415927727,2044
1630415927731,2045
1630415927735,2045
1630415927739,2046
1630415927743,2046
1630415927747,2047
1630415927751,2047
1630415927755,2048
1630415927759,2048
1630415927763,2048
1630415927767,2048
1630415927771,2048
1630415927775,2048
1630415927779,2047
1630415927783,2047
1630415927787,2047
1630415927791,2048
1630415927795,2048
1630415927799,2048
1630415927803,2049
1630415927807,2050
1630415927811,2051
1630415927815,2051
1630415927819,2051
1630415927823,2051
1630415927827,2052
1630415927831,2053
1630415927835,2054
1630415927839,2055
1630415927843,2056
1630415927847,2057
1630415927851,2056
1630415927855,2054
1630415927859,2051
1630415927863,2049
1630415927867,2048
1630415927871,2048
1630415927875,2049
1630415927879,2050
1630415927883,2050
1630415927887,2050
1630415927891,2049
1630415927895,2048
1630415927899,2048
1630415927903,2047
1630415927907,2048
1630415927911,2048
1630415927915,2048
1630415927919,2050
1630415927923,2051
1630415927927,2051
1630415927931,2049
1630415927935,2048
1630415927939,2045
1630415927943,2042
1630415927947,2042
1630415927951,2044
1630415927955,2050
1630415927959,2061
1630415927963,2078
1630415927967,2098
1630415927971,2115
1630415927975,2122
1630415927979,2117
1630415927983,2100
1630415927987,2077
1630415927991,2055
1630415927995,2042
1630415927999,2035
1630415928003,2034
1630415928007,2036
1630415928011,2039
1630415928015,2042
1630415928019,2044
1630415928023,2045
1630415928027,2046
1630415928031,2047
1630415928035,2048
1630415928039,2049
1630415928043,2050
1630415928047,2051
1630415928051,2052
1630415928055,2052
1630415928059,2052
1630415928063,2052
1630415928067,2052
1630415928071,2053
1630415928075,2054
1630415928079,2055
1630415928083,2057
1630415928087,2058
1630415928091,2058
1630415928095,2057
1630415928099,2056
1630415928103,2055
1630415928107,2055
1630415928111,2055
1630415928115,2056
1630415928119,2057
1630415928123,2058
1630415928127,2058
1630415928131,2058
1630415928135,2058
1630415928139,2058
1630415928143,2059
1630415928147,2060
1630415928151,2062
1630415928155,2063
1630415928159,2062
1630415928163,2062
1630415928167,2062
1630415928171,2062
1630415928175,2062
1630415928179,2063
1630415928183,2062
1630415928187,2061
1630415928191,2060
1630415928195,2059
1630415928199,2060
1630415928203,2062
1630415928207,2064
1630415928211,2066
1630415928215,2065
1630415928219,2063
1630415928223,2062
1630415928227,2061
1630415928231,2061
1630415928235,2062
1630415928239,2064
1630415928243,2064
1630415928247,2064
1630415928251,2063
1630415928255,2063
1630415928259,2062
1630415928263,2061
1630415928267,2060
1630415928271,2058
1630415928275,2058
1630415928279,2057
1630415928283,2057
1630415928287,2057
1630415928291,2056
1630415928295,2055
1630415928299,2054
1630415928303,2054
1630415928307,2054
1630415928311,2053
1630415928315,2053
1630415928319,2053
1630415928323,2054
1630415928327,2055
1630415928331,2055
1630415928335,2056
1630415928339,2056
1630415928343,2056
1630415928347,2056
1630415928351,2057
1630415928355,2057
1630415928359,2057
1630415928363,2057
1630415928367,2057
1630415928371,2058
1630415928375,2059
1630415928379,2059
1630415928383,2058
1630415928387,2056
1630415928391,2054
1630415928395,2053
1630415928399,2055
1630415928403,2056
1630415928407,2058
1630415928411,2058
1630415928415,2057
1630415928419,2055
1630415928423,2054
1630415928427,2054
1630415928431,2055
1630415928435,2056
1630415928439,2057
1630415928443,2057
1630415928447,2056
1630415928451,2055
1630415928455,2054
1630415928459,2053
1630415928463,2053
1630415928467,2053
1630415928471,2053
1630415928475,2054
1630415928479,2055
1630415928483,2055
1630415928487,2055
1630415928491,2054
1630415928495,2054
1630415928499,2055
1630415928503,2056
1630415928507,2056
1630415928511,2056
1630415928515,2055
1630415928519,2054
1630415928523,2053
1630415928527,2054
1630415928531,2054
1630415928535,2053
1630415928539,2053
1630415928543,2052
1630415928547,2052
1630415928551,2053
1630415928555,2055
1630415928559,2056
1630415928563,2056
1630415928567,2056
1630415928571,2056
1630415928575,2057
1630415928579,2058
1630415928583,2059
1630415928587,2059
1630415928591,2059
1630415928595,2059
1630415928599,2060
1630415928603,2061
1630415928607,2062
1630415928611,2062
1630415928615,2061
1630415928619,2060
1630415928623,2059
1630415928627,2057
1630415928631,2056
1630415928635,2055
1630415928639,2055
1630415928643,2054
1630415928647,2053
1630415928651,2053
1630415928655,2053
1630415928659,2053
1630415928663,2053
1630415928667,2053
1630415928671,2053
1630415928675,2053
1630415928679,2054
1630415928683,2054
1630415928687,2054
1630415928691,2054
1630415928695,2053
1630415928699,2051
1630415928703,2049
1630415928707,2048
1630415928711,2048
1630415928715,2048
1630415928719,2048
1630415928723,2052
1630415928727,2059
1630415928731,2073
1630415928735,2091
1630415928739,2109
1630415928743,2120
1630415928747,2119
1630415928751,2105
1630415928755,2083
1630415928759,2061
1630415928763,2045
1630415928767,2038
1630415928771,2037
1630415928775,2039
1630415928779,2042
1630415928783,2044
1630415928787,2046
1630415928791,2048
1630415928795,2048
1630415928799,2049
1630415928803,2049
1630415928807,2050
1630415928811,2051
1630415928815,2052
1630415928819,2052
1630415928823,2052
1630415928827,2052
1630415928831,2052
1630415928835,2054
1630415928839,2055
1630415928843,2056
1630415928847,2056
1630415928851,2056
1630415928855,2056
1630415928859,2056
1630415928863,2058
1630415928867,2058
1630415928871,2058
1630415928875,2057
1630415928879,2056
1630415928883,2057
1630415928887,2059
1630415928891,2061
1630415928895,2063
1630415928899,2063
1630415928903,2061
1630415928907,2059
1630415928911,2058
1630415928915,2057
1630415928919,2058
1630415928923,2060
1630415928927,2062
1630415928931,2063
1630415928935,2063
1630415928939,2061
1630415928943,2060
1630415928947,2060
1630415928951,2061
1630415928955,2063
1630415928959,2064
1630415928963,2065
1630415928967,2066
1630415928971,2065
1630415928975,2065
1630415928979,2065
1630415928983,2064
1630415928987,2063
1630415928991,2062
1630415928995,2062
1630415928999,2062
1630415929003,2062
1630415929007,2063
1630415929011,2063
1630415929015,2062
1630415929019,2062
1630415929023,2061
1630415929027,2061
1630415929031,2060
1630415929035,2059
1630415929039,2058
1630415929043,2057
1630415929047,2056
1630415929051,2055
1630415929055,2056
1630415929059,2056
1630415929063,2056
1630415929067,2056
1630415929071,2056
1630415929075,2055
1630415929079,2054
1630415929083,2054
1630415929087,2053
1630415929091,2053
1630415929095,2053
1630415929099,2052
1630415929103,2051
1630415929107,2051
1630415929111,2051
1630415929115,2052
1630415929119,2053
1630415929123,2054
1630415929127,2056
1630415929131,2056
1630415929135,2056
1630415929139,2055
1630415929143,2053
1630415929147,2053
1630415929151,2052
1630415929155,2053
1630415929159,2053
1630415929163,2053
1630415929167,2053
1630415929171,2052
1630415929175,2053
1630415929179,2053
1630415929183,2054
1630415929187,2054
1630415929191,2054
1630415929195,2053
1630415929199,2054
1630415929203,2054
1630415929207,2054
1630415929211,2054
1630415929215,2053
1630415929219,2051
1630415929223,2050
1630415929227,2050
1630415929231,2051
1630415929235,2053
1630415929239,2053
1630415929243,2053
1630415929247,2053
1630415929251,2052
1630415929255,2051
1630415929259,2050
1630415929263,2049
1630415929267,2049
1630415929271,2048
1630415929275,2049
1630415929279,2049
1630415929283,2050
1630415929287,2052
1630415929291,2053
1630415929295,2053
1630415929299,2052
1630415929303,2052
1630415929307,2051
1630415929311,2051
1630415929315,2051
1630415929319,2051
1630415929323,2052
1630415929327,2053
1630415929331,2054
1630415929335,2055
1630415929339,2055
1630415929343,2054
1630415929347,2054
1630415929351,2054
1630415929355,2055
1630415929359,2056
1630415929363,2057
1630415929367,2057
1630415929371,2056
1630415929375,2055
1630415929379,2053
1630415929383,2051
1630415929387,2048
1630415929391,2047
1630415929395,2046
1630415929399,2047
1630415929403,2047
1630415929407,2048
1630415929411,2048
1630415929415,2048
1630415929419,2047
1630415929423,2047
1630415929427,2046
1630415929431,2046
1630415929435,2045
1630415929439,2045
1630415929443,2045
1630415929447,2045
1630415929451,2045
1630415929455,2045
1630415929459,2044
1630415929463,2042
1630415929467,2041
1630415929471,2040
1630415929475,2042
1630415929479,2048
1630415929483,2058
1630415929487,2075
1630415929491,2093
1630415929495,2106
1630415929499,2108
1630415929503,2097
1630415929507,2077
1630415929511,2054
1630415929515,2037
1630415929519,2027
1630415929523,2025
1630415929527,2027
1630415929531,2030
1630415929535,2032
1630415929539,2034
1630415929543,2035
1630415929547,2037
1630415929551,2038
1630415929555,2038
1630415929559,2039
1630415929563,2040
1630415929567,2040
1630415929571,2040
1630415929575,2040
1630415929579,2040
1630415929583,2040
1630415929587,2040
1630415929591,2042
1630415929595,2043
1630415929599,2044
1630415929603,2044
1630415929607,2045
1630415929611,2045
1630415929615,2045
1630415929619,2045
1630415929623,2043
1630415929627,2042
1630415929631,2040
1630415929635,2040
1630415929639,2041
1630415929643,2042
1630415929647,2045
1630415929651,2046
1630415929655,2045
1630415929659,2043
1630415929663,2042
1630415929667,2042
1630415929671,2044
1630415929675,2047
1630415929679,2048
1630415929683,2049
1630415929687,2049
1630415929691,2048
1630415929695,2048
1630415929699,2048
1630415929703,2048
1630415929707,2048
1630415929711,2049
1630415929715,2049
1630415929719,2048
1630415929723,2048
1630415929727,2048
1630415929731,2048
1630415929735,2048
1630415929739,2048
1630415929743,2047
1630415929747,2046
1630415929751,2044
1630415929755,2043
1630415929759,2042
1630415929763,2042
1630415929767,2043
1630415929771,2044
1630415929775,2044
1630415929779,2044
1630415929783,2044
1630415929787,2043
1630415929791,2041
1630415929795,2039
1630415929799,2037
1630415929803,2036
1630415929807,2035
1630415929811,2035
1630415929815,2036
1630415929819,2036
1630415929823,2036
1630415929827,2035
1630415929831,2034
1630415929835,2033
1630415929839,2033
1630415929843,2033
1630415929847,2033
1630415929851,2033
1630415929855,2032
1630415929859,2031
1630415929863,2031
1630415929867,2031
1630415929871,2031
1630415929875,2031
1630415929879,2031
1630415929883,2031
1630415929887,2032
1630415929891,2033
1630415929895,2034
1630415929899,2035
1630415929903,2035
1630415929907,2034
1630415929911,2033
1630415929915,2031
1630415929919,2030
1630415929923,2030
1630415929927,2031
1630415929931,2033
1630415929935,2034
1630415929939,2034
1630415929943,2033
1630415929947,2032
1630415929951,2031
1630415929955,2031
1630415929959,2031
1630415929963,2031
1630415929967,2031
1630415929971,2030
1630415929975,2031
1630415929979,2032
1630415929983,2032
1630415929987,2033
1630415929991,2032
1630415929995,2032
1630415929999,2031
1630415930003,2031
1630415930007,2031
1630415930011,2032
1630415930015,2032
1630415930019,2031
1630415930023,2030
1630415930027,2029
1630415930031,2029
1630415930035,2030
1630415930039,2030
1630415930043,2031
1630415930047,2031
1630415930051,2031
1630415930055,2032
1630415930059,2033
1630415930063,2035
1630415930067,2036
1630415930071,2036
1630415930075,2037
1630415930079,2038
1630415930083,2038
1630415930087,2038
1630415930091,2037
1630415930095,2036
1630415930099,2034
1630415930103,2034
1630415930107,2035
1630415930111,2036
1630415930115,2036
1630415930119,2035
1630415930123,2033
1630415930127,2031
1630415930131,2031
1630415930135,2032
1630415930139,2033
1630415930143,2034
1630415930147,2034
1630415930151,2034
1630415930155,2033
1630415930159,2033
1630415930163,2032
1630415930167,2032
1630415930171,2033
1630415930175,2035
1630415930179,2035
1630415930183,2034
1630415930187,2032
1630415930191,2030
1630415930195,2028
1630415930199,2027
1630415930203,2029
1630415930207,2036
1630415930211,2046
1630415930215,2061
1630415930219,2079
1630415930223,2093
1630415930227,2098
1630415930231,2091
1630415930235,2072
1630415930239,2050
1630415930243,2031
1630415930247,2019
1630415930251,2015
1630415930255,2017
1630415930259,2021
1630415930263,2025
1630415930267,2028
1630415930271,2031
1630415930275,2033
1630415930279,2034
1630415930283,2034
1630415930287,2034
1630415930291,2034
1630415930295,2034
1630415930299,2035
1630415930303,2035
1630415930307,2035
1630415930311,2035
1630415930315,2036
1630415930319,2037
1630415930323,2038
1630415930327,2040
1630415930331,2041
1630415930335,2041
1630415930339,2041
1630415930343,2042
1630415930347,2043
1630415930351,2044
1630415930355,2046
1630415930359,2046
1630415930363,2047
1630415930367,2047
1630415930371,2047
1630415930375,2046
1630415930379,2044
1630415930383,2043
1630415930387,2042
1630415930391,2044
1630415930395,2046
1630415930399,2048
1630415930403,2048
1630415930407,2048
1630415930411,2048
1630415930415,2048
1630415930419,2050
1630415930423,2052
1630415930427,2054
1630415930431,2055
1630415930435,2055
1630415930439,2054
1630415930443,2054
1630415930447,2054
1630415930451,2053
1630415930455,2052
1630415930459,2051
1630415930463,2051
1630415930467,2051
1630415930471,2051
1630415930475,2052
1630415930479,2052
1630415930483,2052
1630415930487,2053
1630415930491,2053
1630415930495,2053
1630415930499,2053
1630415930503,2051
1630415930507,2051
1630415930511,2050
1630415930515,2050
1630415930519,2050
1630415930523,2049
1630415930527,2048
1630415930531,2048
1630415930535,2048
1630415930539,2047
1630415930543,2046
1630415930547,2045
1630415930551,2045
1630415930555,2045
1630415930559,2046
1630415930563,2047
1630415930567,2047
1630415930571,2046
1630415930575,2045
1630415930579,2044
1630415930583,2044
1630415930587,2046
1630415930591,2048
1630415930595,2049
1630415930599,2051
1630415930603,2051
1630415930607,2050
1630415930611,2049
1630415930615,2048
1630415930619,2048
1630415930623,2048
1630415930627,2050
1630415930631,2052
1630415930635,2053
1630415930639,2052
1630415930643,2050
1630415930647,2049
1630415930651,2048
1630415930655,2048
1630415930659,2049
1630415930663,2051
1630415930667,2053
1630415930671,2054
1630415930675,2055
1630415930679,2055
1630415930683,2054
1630415930687,2053
1630415930691,2052
1630415930695,2052
1630415930699,2052
1630415930703,2053
1630415930707,2053
1630415930711,2055
1630415930715,2056
1630415930719,2058
1630415930723,2059
1630415930727,2058
1630415930731,2057
1630415930735,2057
1630415930739,2057
1630415930743,2058
1630415930747,2060
1630415930751,2061
1630415930755,2062
1630415930759,2063
1630415930763,2063
1630415930767,2064
1630415930771,2065
1630415930775,2067
1630415930779,2068
1630415930783,2068
1630415930787,2069
1630415930791,2070
1630415930795,2070
1630415930799,2069
1630415930803,2068
1630415930807,2068
1630415930811,2067
1630415930815,2067
1630415930819,2066
1630415930823,2065
1630415930827,2064
1630415930831,2063
1630415930835,2063
1630415930839,2064
1630415930843,2064
1630415930847,2063
1630415930851,2062
1630415930855,2062
1630415930859,2062
1630415930863,2063
1630415930867,2065
1630415930871,2065
1630415930875,2065
1630415930879,2065
1630415930883,2064
1630415930887,2063
1630415930891,2062
1630415930895,2061
1630415930899,2060
1630415930903,2058
1630415930907,2058
1630415930911,2060
1630415930915,2066
1630415930919,2080
1630415930923,2098
1630415930927,2117
1630415930931,2130
1630415930935,2131
1630415930939,2120
1630415930943,2099
1630415930947,2077
1630415930951,2060
1630415930955,2051
1630415930959,2049
1630415930963,2050
1630415930967,2052
1630415930971,2054
1630415930975,2056
1630415930979,2058
1630415930983,2060
1630415930987,2061
1630415930991,2062
1630415930995,2063
1630415930999,2065
1630415931003,2067
1630415931007,2069
1630415931011,2069
1630415931015,2069
1630415931019,2070
1630415931023,2070
1630415931027,2071
1630415931031,2071
1630415931035,2071
1630415931039,2070
1630415931043,2069
1630415931047,2070
1630415931051,2071
1630415931055,2073
1630415931059,2075
1630415931063,2075
1630415931067,2075
1630415931071,2074
1630415931075,2073
1630415931079,2073
1630415931083,2073
1630415931087,2074
1630415931091,2076
1630415931095,2076
1630415931099,2077
1630415931103,2077
1630415931107,2077
1630415931111,2078
1630415931115,2079
1630415931119,2080
1630415931123,2080
1630415931127,2081
1630415931131,2081
1630415931135,2080
1630415931139,2080
1630415931143,2080
1630415931147,2079
1630415931151,2079
1630415931155,2079
1630415931159,2079
1630415931163,2079
1630415931167,2079
1630415931171,2078
1630415931175,2078
1630415931179,2079
1630415931183,2079
1630415931187,2079
1630415931191,2079
1630415931195,2079
1630415931199,2079
1630415931203,2078
1630415931207,2078
1630415931211,2078
1630415931215,2076
1630415931219,2075
1630415931223,2074
1630415931227,2072
1630415931231,2070
1630415931235,2070
1630415931239,2069
1630415931243,2070
1630415931247,2070
1630415931251,2070
1630415931255,2069
1630415931259,2067
1630415931263,2066
1630415931267,2065
1630415931271,2066
1630415931275,2067
1630415931279,2069
1630415931283,2069
1630415931287,2069
1630415931291,2068
1630415931295,2067
1630415931299,2066
1630415931303,2066
1630415931307,2067
1630415931311,2068
1630415931315,2069
1630415931319,2071
1630415931323,2071
1630415931327,2071
1630415931331,2070
1630415931335,2069
1630415931339,2068
1630415931343,2068
1630415931347,2068
1630415931351,2068
1630415931355,2068
1630415931359,2068
1630415931363,2068
1630415931367,2068
1630415931371,2068
1630415931375,2068
1630415931379,2067
1630415931383,2067
1630415931387,2066
1630415931391,2066
1630415931395,2066
1630415931399,2067
1630415931403,2066
1630415931407,2066
1630415931411,2065
1630415931415,2065
1630415931419,2065
1630415931423,2065
1630415931427,2066
1630415931431,2066
1630415931435,2067
1630415931439,2067
1630415931443,2066
1630415931447,2065
1630415931451,2065
1630415931455,2065
1630415931459,2065
1630415931463,2066
1630415931467,2067
1630415931471,2068
1630415931475,2068
1630415931479,2069
1630415931483,2070
1630415931487,2072
1630415931491,2073
1630415931495,2073
1630415931499,2072
1630415931503,2071
1630415931507,2070
1630415931511,2069
1630415931515,2067
1630415931519,2066
1630415931523,2065
1630415931527,2065
1630415931531,2065
1630415931535,2065
1630415931539,2064
1630415931543,2063
1630415931547,2061
1630415931551,2059
1630415931555,2059
1630415931559,2060
1630415931563,2061
1630415931567,2062
1630415931571,2061
1630415931575,2060
1630415931579,2059
1630415931583,2058
1630415931587,2058
1630415931591,2058
1630415931595,2058
1630415931599,2059
1630415931603,2059
1630415931607,2059
1630415931611,2060
1630415931615,2063
1630415931619,2070
1630415931623,2082
1630415931627,2097
1630415931631,2114
1630415931635,2124
1630415931639,2122
1630415931643,2108
1630415931647,2086
1630415931651,2064
1630415931655,2048
1630415931659,2041
1630415931663,2039
1630415931667,2042
1630415931671,2046
1630415931675,2048
1630415931679,2051
1630415931683,2053
1630415931687,2055
1630415931691,2055
1630415931695,2055
1630415931699,2057
1630415931703,2058
1630415931707,2060
1630415931711,2060
1630415931715,2060
1630415931719,2059
1630415931723,2058
1630415931727,2059
1630415931731,2059
1630415931735,2060
1630415931739,2061
1630415931743,2061
1630415931747,2061
1630415931751,2061
1630415931755,2062
1630415931759,2062
1630415931763,2062
1630415931767,2062
1630415931771,2062
1630415931775,2061
1630415931779,2061
1630415931783,2062
1630415931787,2063
1630415931791,2064
1630415931795,2065
1630415931799,2065
1630415931803,2065
1630415931807,2065
1630415931811,2065
1630415931815,2065
1630415931819,2065
1630415931823,2066
1630415931827,2067
1630415931831,2068
1630415931835,2069
1630415931839,2070
1630415931843,2070
1630415931847,2069
1630415931851,2068
1630415931855,2067
1630415931859,2067
1630415931863,2067
1630415931867,2067
1630415931871,2067
1630415931875,2067
1630415931879,2067
1630415931883,2067
1630415931887,2067
1630415931891,2067
1630415931895,2067
1630415931899,2067
1630415931903,2067
1630415931907,2067
1630415931911,2067
1630415931915,2066
1630415931919,2064
1630415931923,2062
1630415931927,2061
1630415931931,2059
1630415931935,2057
1630415931939,2056
1630415931943,2055
1630415931947,2054
1630415931951,2055
1630415931955,2056
1630415931959,2056
1630415931963,2057
1630415931967,2057
1630415931971,2057
1630415931975,2058
1630415931979,2058
1630415931983,2058
1630415931987,2057
1630415931991,2057
1630415931995,2056
1630415931999,2055
1630415932003,2055
1630415932007,2055
1630415932011,2055
1630415932015,2055
1630415932019,2055
1630415932023,2054
1630415932027,2053
1630415932031,2053
1630415932035,2052
1630415932039,2051
1630415932043,2050
1630415932047,2051
1630415932051,2052
1630415932055,2053
1630415932059,2054
1630415932063,2054
1630415932067,2053
1630415932071,2052
1630415932075,2053
1630415932079,2053
1630415932083,2054
1630415932087,2053
1630415932091,2051
1630415932095,2049
1630415932099,2048
1630415932103,2048
1630415932107,2049
1630415932111,2050
1630415932115,2049
1630415932119,2048
1630415932123,2048
1630415932127,2048
1630415932131,2048
1630415932135,2048
1630415932139,2047
1630415932143,2046
1630415932147,2045
1630415932151,2044
1630415932155,2044
1630415932159,2046
1630415932163,2048
1630415932167,2048
1630415932171,2049
1630415932175,2049
1630415932179,2048
1630415932183,2047
1630415932187,2045
1630415932191,2045
1630415932195,2047
1630415932199,2049
1630415932203,2052
1630415932207,2053
1630415932211,2053
1630415932215,2050
1630415932219,2048
1630415932223,2046
1630415932227,2045
1630415932231,2045
1630415932235,2045
1630415932239,2045
1630415932243,2045
1630415932247,2045
1630415932251,2044
1630415932255,2044
1630415932259,2043
1630415932263,2042
1630415932267,2040
1630415932271,2040
1630415932275,2040
1630415932279,2040
1630415932283,2040
1630415932287,2040
1630415932291,2039
1630415932295,2039
1630415932299,2038
1630415932303,2038
1630415932307,2037
1630415932311,2036
1630415932315,2034
1630415932319,2033
1630415932323,2035
1630415932327,2039
1630415932331,2047
1630415932335,2060
1630415932339,2076
1630415932343,2091
1630415932347,2099
1630415932351,2096
1630415932355,2082
1630415932359,2061
1630415932363,2042
1630415932367,2027
1630415932371,2019
1630415932375,2017
1630415932379,2019
1630415932383,2021
1630415932387,2024
1630415932391,2027
1630415932395,2030
1630415932399,2033
1630415932403,2035
1630415932407,2036
1630415932411,2036
1630415932415,2037
1630415932419,2036
1630415932423,2036
1630415932427,2036
1630415932431,2036
1630415932435,2037
1630415932439,2038
1630415932443,2039
1630415932447,2039
1630415932451,2039
1630415932455,2038
1630415932459,2038
1630415932463,2037
1630415932467,2036
1630415932471,2036
1630415932475,2037
1630415932479,2038
1630415932483,2038
1630415932487,2038
1630415932491,2037
1630415932495,2037
1630415932499,2037
1630415932503,2037
1630415932507,2037
1630415932511,2038
1630415932515,2038
1630415932519,2038
1630415932523,2038
1630415932527,2039
1630415932531,2039
1630415932535,2039
1630415932539,2039
1630415932543,2040
1630415932547,2040
1630415932551,2040
1630415932555,2041
1630415932559,2041
1630415932563,2041
1630415932567,2041
1630415932571,2041
1630415932575,2041
1630415932579,2042
1630415932583,2042
1630415932587,2042
1630415932591,2040
1630415932595,2038
1630415932599,2036
1630415932603,2035
1630415932607,2036
1630415932611,2038
1630415932615,2040
1630415932619,2040
1630415932623,2038
1630415932627,2036
1630415932631,2035
1630415932635,2035
1630415932639,2035
1630415932643,2035
1630415932647,2034
1630415932651,2032
1630415932655,2030
1630415932659,2028
1630415932663,2027
1630415932667,2026
1630415932671,2026
1630415932675,2027
1630415932679,2027
1630415932683,2027
1630415932687,2026
1630415932691,2025
1630415932695,2025
1630415932699,2025
1630415932703,2025
1630415932707,2026
1630415932711,2026
1630415932715,2026
1630415932719,2025
1630415932723,2024
1630415932727,2024
1630415932731,2025
1630415932735,2025
1630415932739,2025
1630415932743,2025
1630415932747,2024
1630415932751,2024
1630415932755,2024
1630415932759,2025
1630415932763,2026
1630415932767,2026
1630415932771,2026
1630415932775,2025
1630415932779,2024
1630415932783,2024
1630415932787,2024
1630415932791,2025
1630415932795,2025
1630415932799,2024
1630415932803,2023
1630415932807,2021
1630415932811,2020
1630415932815,2020
1630415932819,2021
1630415932823,2022
1630415932827,2022
1630415932831,2022
1630415932835,2022
1630415932839,2022
1630415932843,2022
1630415932847,2022
1630415932851,2022
1630415932855,2022
1630415932859,2022
1630415932863,2021
1630415932867,2021
1630415932871,2021
1630415932875,2022
1630415932879,2023
1630415932883,2023
1630415932887,2024
1630415932891,2025
1630415932895,2027
1630415932899,2028
1630415932903,2029
1630415932907,2030
1630415932911,2030
1630415932915,2031
1630415932919,2032
1630415932923,2033
1630415932927,2032
1630415932931,2031
1630415932935,2029
1630415932939,2026
1630415932943,2025
1630415932947,2024
1630415932951,2023
1630415932955,2023
1630415932959,2024
1630415932963,2025
1630415932967,2027
1630415932971,2028
1630415932975,2028
1630415932979,2026
1630415932983,2025
1630415932987,2024
1630415932991,2023
1630415932995,2023
1630415932999,2023
1630415933003,2023
1630415933007,2023
1630415933011,2024
1630415933015,2024
1630415933019,2023
1630415933023,2022
1630415933027,2021
1630415933031,2020
1630415933035,2020
1630415933039,2023
1630415933043,2028
1630415933047,2036
1630415933051,2048
1630415933055,2064
1630415933059,2077
1630415933063,2084
1630415933067,2079
1630415933071,2063
1630415933075,2042
1630415933079,2023
1630415933083,2010
1630415933087,2006
1630415933091,2007
1630415933095,2011
1630415933099,2014
1630415933103,2017
1630415933107,2019
1630415933111,2021
1630415933115,2022
1630415933119,2022
1630415933123,2022
1630415933127,2023
1630415933131,2024
1630415933135,2026
1630415933139,2028
1630415933143,2029
1630415933147,2030
1630415933151,2030
1630415933155,2030
1630415933159,2032
1630415933163,2032
1630415933167,2032
1630415933171,2032
1630415933175,2031
1630415933179,2031
1630415933183,2031
1630415933187,2032
1630415933191,2032
1630415933195,2032
1630415933199,2032
1630415933203,2032
1630415933207,2034
1630415933211,2035
1630415933215,2037
1630415933219,2038
1630415933223,2038
1630415933227,2037
1630415933231,2036
1630415933235,2037
1630415933239,2038
1630415933243,2039
1630415933247,2040
1630415933251,2040
1630415933255,2040
1630415933259,2040
1630415933263,2040
1630415933267,2041
1630415933271,2042
1630415933275,2042
1630415933279,2043
1630415933283,2042
1630415933287,2042
1630415933291,2042
1630415933295,2043
1630415933299,2044
1630415933303,2045
1630415933307,2045
1630415933311,2044
1630415933315,2043
1630415933319,2042
1630415933323,2043
1630415933327,2044
1630415933331,2045
1630415933335,2045
1630415933339,2044
1630415933343,2043
1630415933347,2042
1630415933351,2041
1630415933355,2041
1630415933359,2041
1630415933363,2041
1630415933367,2039
1630415933371,2037
1630415933375,2035
1630415933379,2033
1630415933383,2032
1630415933387,2031
1630415933391,2032
1630415933395,2034
1630415933399,2035
1630415933403,2034
1630415933407,2033
1630415933411,2031
1630415933415,2031
1630415933419,2032
1630415933423,2034
1630415933427,2036
1630415933431,2038
1630415933435,2038
1630415933439,2038
1630415933443,2037
1630415933447,2036
1630415933451,2037
1630415933455,2039
1630415933459,2041
1630415933463,2042
1630415933467,2042
1630415933471,2041
1630415933475,2041
1630415933479,2041
1630415933483,2042
1630415933487,2044
1630415933491,2044
1630415933495,2043
1630415933499,2043
1630415933503,2042
1630415933507,2042
1630415933511,2042
1630415933515,2043
1630415933519,2043
1630415933523,2043
1630415933527,2044
1630415933531,2044
1630415933535,2044
1630415933539,2044
1630415933543,2044
1630415933547,2044
1630415933551,2044
1630415933555,2045
1630415933559,2046
1630415933563,2047
1630415933567,2048
1630415933571,2048
1630415933575,2048
1630415933579,2048
1630415933583,2048
1630415933587,2048
1630415933591,2049
1630415933595,2048
1630415933599,2048
1630415933603,2048
1630415933607,2048
1630415933611,2048
1630415933615,2048
1630415933619,2048
1630415933623,2050
1630415933627,2051
1630415933631,2052
1630415933635,2053
1630415933639,2054
1630415933643,2055
1630415933647,2057
1630415933651,2057
1630415933655,2057
1630415933659,2056
1630415933663,2053
1630415933667,2051
1630415933671,2049
1630415933675,2048
1630415933679,2048
1630415933683,2048
1630415933687,2049
1630415933691,2050
1630415933695,2050
1630415933699,2051
1630415933703,2050
1630415933707,2049
1630415933711,2048
1630415933715,2048
1630415933719,2048
1630415933723,2049
1630415933727,2050
1630415933731,2050
1630415933735,2049
1630415933739,2049
1630415933743,2048
1630415933747,2049
1630415933751,2051
1630415933755,2056
1630415933759,2067
1630415933763,2083
1630415933767,2102
1630415933771,2117
1630415933775,2121
1630415933779,2110
1630415933783,2089
1630415933787,2065
1630415933791,2048
1630415933795,2039
1630415933799,2038
1630415933803,2040
1630415933807,2043
1630415933811,2044
1630415933815,2044
1630415933819,2045
1630415933823,2047
1630415933827,2048
1630415933831,2050
1630415933835,2052
1630415933839,2053
1630415933843,2054
1630415933847,2054
1630415933851,2054
1630415933855,2055
1630415933859,2056
1630415933863,2058
1630415933867,2060
1630415933871,2061
1630415933875,2061
1630415933879,2061
1630415933883,2062
1630415933887,2062
1630415933891,2063
1630415933895,2063
1630415933899,2063
1630415933903,2063
1630415933907,2062
1630415933911,2062
1630415933915,2063
1630415933919,2063
1630415933923,2064
1630415933927,2065
1630415933931,2066
1630415933935,2067
1630415933939,2067
1630415933943,2067
1630415933947,2066
1630415933951,2066
1630415933955,2067
1630415933959,2069
1630415933963,2070
1630415933967,2071
1630415933971,2072
1630415933975,2072
1630415933979,2071
1630415933983,2071
1630415933987,2072
1630415933991,2072
1630415933995,2073
1630415933999,2074
1630415934003,2075
1630415934007,2075
1630415934011,2075
1630415934015,2074
1630415934019,2073
1630415934023,2071
1630415934027,2070
1630415934031,2070
1630415934035,2071
1630415934039,2073
1630415934043,2074
1630415934047,2074
1630415934051,2072
1630415934055,2070
1630415934059,2068
1630415934063,2066
1630415934067,2066
1630415934071,2066
1630415934075,2065
1630415934079,2064
1630415934083,2064
1630415934087,2063
1630415934091,2063
1630415934095,2062
1630415934099,2061
1630415934103,2059
1630415934107,2058
1630415934111,2057
1630415934115,2058
1630415934119,2059
1630415934123,2060
1630415934127,2060
1630415934131,2060
1630415934135,2059
1630415934139,2059
1630415934143,2060
1630415934147,2061
1630415934151,2061
1630415934155,2060
1630415934159,2059
1630415934163,2059
1630415934167,2060
1630415934171,2062
1630415934175,2063
1630415934179,2063
1630415934183,2061
1630415934187,2059
1630415934191,2059
1630415934195,2060
1630415934199,2061
1630415934203,2062
1630415934207,2063
1630415934211,2063
1630415934215,2064
1630415934219,2064
1630415934223,2063
1630415934227,2061
1630415934231,2059
1630415934235,2059
1630415934239,2060
1630415934243,2062
1630415934247,2063
1630415934251,2063
1630415934255,2062
1630415934259,2061
1630415934263,2061
1630415934267,2061
1630415934271,2062
1630415934275,2063
1630415934279,2063
1630415934283,2062
1630415934287,2062
1630415934291,2062
1630415934295,2062
1630415934299,2061
1630415934303,2060
1630415934307,2059
1630415934311,2060
1630415934315,2060
1630415934319,2061
1630415934323,2062
1630415934327,2062
1630415934331,2062
1630415934335,2062
1630415934339,2064
1630415934343,2066
1630415934347,2068
1630415934351,2068
1630415934355,2067
1630415934359,2067
1630415934363,2066
1630415934367,2066
1630415934371,2065
1630415934375,2064
1630415934379,2062
1630415934383,2061
1630415934387,2060
1630415934391,2060
1630415934395,2060
1630415934399,2061
1630415934403,2061
1630415934407,2061
1630415934411,2060
1630415934415,2060
1630415934419,2060
1630415934423,2060
1630415934427,2060
1630415934431,2059
1630415934435,2059
1630415934439,2058
1630415934443,2057
1630415934447,2056
1630415934451,2055
1630415934455,2056
1630415934459,2056
1630415934463,2056
1630415934467,2058
1630415934471,2063
1630415934475,2074
1630415934479,2091
1630415934483,2109
1630415934487,2123
1630415934491,2124
1630415934495,2112
1630415934499,2090
1630415934503,2067
1630415934507,2050
1630415934511,2043
1630415934515,2042
1630415934519,2046
1630415934523,2048
1630415934527,2051
1630415934531,2052
1630415934535,2053
1630415934539,2054
1630415934543,2054
1630415934547,2055
1630415934551,2056
1630415934555,2056
1630415934559,2056
1630415934563,2057
1630415934567,2057
1630415934571,2057
1630415934575,2057
1630415934579,2057
1630415934583,2056
1630415934587,2056
1630415934591,2057
1630415934595,2059
1630415934599,2060
1630415934603,2062
1630415934607,2062
1630415934611,2062
1630415934615,2062
1630415934619,2062
1630415934623,2061
1630415934627,2061
1630415934631,2060
1630415934635,2060
1630415934639,2060
1630415934643,2060
1630415934647,2061
1630415934651,2061
1630415934655,2061
1630415934659,2061
1630415934663,2061
1630415934667,2062
1630415934671,2063
1630415934675,2064
1630415934679,2065
1630415934683,2066
1630415934687,2067
1630415934691,2067
1630415934695,2067
1630415934699,2068
1630415934703,2067
1630415934707,2067
1630415934711,2067
1630415934715,2067
1630415934719,2068
1630415934723,2068
1630415934727,2068
1630415934731,2068
1630415934735,2067
1630415934739,2066
1630415934743,2064
1630415934747,2064
1630415934751,2064
1630415934755,2064
1630415934759,2064
1630415934763,2064
1630415934767,2064
1630415934771,2062
1630415934775,2060
1630415934779,2058
1630415934783,2056
1630415934787,2055
1630415934791,2054
1630415934795,2054
1630415934799,2055
1630415934803,2055
1630415934807,2054
1630415934811,2054
1630415934815,2053
1630415934819,2053
1630415934823,2053
1630415934827,2053
1630415934831,2054
1630415934835,2055
1630415934839,2055
1630415934843,2055
1630415934847,2055
1630415934851,2054
1630415934855,2052
1630415934859,2051
1630415934863,2051
1630415934867,2052
1630415934871,2054
1630415934875,2056
1630415934879,2057
1630415934883,2057
1630415934887,2057
1630415934891,2056
1630415934895,2055
1630415934899,2054
1630415934903,2053
1630415934907,2052
1630415934911,2052
1630415934915,2053
1630415934919,2054
1630415934923,2054
1630415934927,2055
1630415934931,2054
1630415934935,2053
1630415934939,2052
1630415934943,2052
1630415934947,2051
1630415934951,2052
1630415934955,2053
1630415934959,2054
1630415934963,2054
1630415934967,2055
1630415934971,2056
1630415934975,2056
1630415934979,2055
1630415934983,2054
1630415934987,2053
1630415934991,2052
1630415934995,2051
1630415934999,2052
1630415935003,2053
1630415935007,2053
1630415935011,2054
1630415935015,2054
1630415935019,2054
1630415935023,2053
1630415935027,2052
1630415935031,2052
1630415935035,2052
1630415935039,2053
1630415935043,2054
1630415935047,2055
1630415935051,2057
1630415935055,2059
1630415935059,2060
1630415935063,2061
1630415935067,2061
1630415935071,2061
1630415935075,2060
1630415935079,2059
1630415935083,2058
1630415935087,2057
1630415935091,2056
1630415935095,2055
1630415935099,2053
1630415935103,2053
1630415935107,2053
1630415935111,2053
1630415935115,2053
1630415935119,2053
1630415935123,2053
1630415935127,2052
1630415935131,2052
1630415935135,2051
1630415935139,2051
1630415935143,2051
1630415935147,2052
1630415935151,2053
1630415935155,2053
1630415935159,2054
1630415935163,2053
1630415935167,2052
1630415935171,2051
1630415935175,2049
1630415935179,2048
1630415935183,2048
1630415935187,2051
1630415935191,2058
1630415935195,2072
1630415935199,2090
1630415935203,2107
1630415935207,2116
1630415935211,2113
1630415935215,2099
1630415935219,2077
1630415935223,2056
1630415935227,2041
1630415935231,2033
1630415935235,2033
1630415935239,2036
1630415935243,2039
1630415935247,2042
1630415935251,2044
1630415935255,2046
1630415935259,2047
1630415935263,2048
1630415935267,2049
1630415935271,2051
1630415935275,2053
1630415935279,2055
1630415935283,2055
1630415935287,2054
1630415935291,2053
1630415935295,2052
1630415935299,2051
1630415935303,2052
1630415935307,2052
1630415935311,2053
1630415935315,2054
1630415935319,2055
1630415935323,2055
1630415935327,2056
1630415935331,2056
1630415935335,2056
1630415935339,2055
1630415935343,2054
1630415935347,2053
1630415935351,2053
1630415935355,2054
1630415935359,2056
1630415935363,2057
1630415935367,2058
1630415935371,2058
1630415935375,2059
1630415935379,2060
1630415935383,2060
1630415935387,2061
1630415935391,2061
1630415935395,2061
1630415935399,2061
1630415935403,2061
1630415935407,2062
1630415935411,2062
1630415935415,2063
1630415935419,2063
1630415935423,2063
1630415935427,2062
1630415935431,2061
1630415935435,2061
1630415935439,2061
1630415935443,2062
1630415935447,2062
1630415935451,2062
1630415935455,2062
1630415935459,2062
1630415935463,2061
1630415935467,2060
1630415935471,2060
1630415935475,2060
1630415935479,2061
1630415935483,2062
1630415935487,2061
1630415935491,2060
1630415935495,2058
1630415935499,2056
1630415935503,2055
1630415935507,2053
1630415935511,2052
1630415935515,2052
1630415935519,2051
1630415935523,2051
1630415935527,2050
1630415935531,2049
1630415935535,2048
1630415935539,2048
1630415935543,2048
1630415935547,2049
1630415935551,2050
1630415935555,2050
1630415935559,2050
1630415935563,2050
1630415935567,2051
1630415935571,2051
1630415935575,2051
1630415935579,2051
1630415935583,2050
1630415935587,2050
1630415935591,2049
1630415935595,2049
1630415935599,2049
1630415935603,2050
1630415935607,2051
1630415935611,2051
1630415935615,2052
1630415935619,2051
1630415935623,2050
1630415935627,2051
1630415935631,2051
1630415935635,2052
1630415935639,2052
1630415935643,2051
1630415935647,2051
1630415935651,2051
1630415935655,2051
1630415935659,2052
1630415935663,2053
1630415935667,2053
1630415935671,2052
1630415935675,2052
1630415935679,2052
1630415935683,2053
1630415935687,2054
1630415935691,2054
1630415935695,2053
1630415935699,2052
1630415935703,2051
1630415935707,2050
1630415935711,2049
1630415935715,2049
1630415935719,2049
1630415935723,2048
1630415935727,2048
1630415935731,2049
1630415935735,2049
1630415935739,2051
1630415935743,2052
1630415935747,2053
1630415935751,2054
1630415935755,2053
1630415935759,2053
1630415935763,2053
1630415935767,2054
1630415935771,2056
1630415935775,2056
1630415935779,2057
1630415935783,2056
1630415935787,2056
1630415935791,2056
1630415935795,2056
1630415935799,2057
1630415935803,2058
1630415935807,2058
1630415935811,2058
1630415935815,2058
1630415935819,2057
1630415935823,2055
1630415935827,2053
1630415935831,2051
1630415935835,2050
1630415935839,2049
1630415935843,2049
1630415935847,2050
1630415935851,2050
1630415935855,2051
1630415935859,2051
1630415935863,2050
1630415935867,2049
1630415935871,2048
1630415935875,2048
1630415935879,2049
1630415935883,2050
1630415935887,2051
1630415935891,2051
1630415935895,2050
1630415935899,2049
1630415935903,2047
1630415935907,2046
1630415935911,2047
1630415935915,2051
1630415935919,2062
1630415935923,2079
1630415935927,2098
1630415935931,2112
1630415935935,2115
1630415935939,2106
1630415935943,2087
1630415935947,2065
1630415935951,2048
1630415935955,2039
1630415935959,2036
1630415935963,2038
1630415935967,2041
1630415935971,2043
1630415935975,2045
1630415935979,2046
1630415935983,2047
1630415935987,2047
1630415935991,2048
1630415935995,2048
1630415935999,2050
1630415936003,2052
1630415936007,2053
1630415936011,2052
1630415936015,2050
1630415936019,2049
1630415936023,2048
1630415936027,2049
1630415936031,2050
1630415936035,2052
1630415936039,2053
1630415936043,2054
1630415936047,2054
1630415936051,2055
1630415936055,2055
1630415936059,2055
1630415936063,2055
1630415936067,2055
1630415936071,2056
1630415936075,2056
1630415936079,2057
1630415936083,2057
1630415936087,2056
1630415936091,2055
1630415936095,2054
1630415936099,2054
1630415936103,2055
1630415936107,2056
1630415936111,2058
1630415936115,2059
1630415936119,2060
1630415936123,2060
1630415936127,2061
1630415936131,2062
1630415936135,2063
1630415936139,2064
1630415936143,2064
1630415936147,2064
1630415936151,2063
1630415936155,2063
1630415936159,2063
1630415936163,2063
1630415936167,2064
1630415936171,2064
1630415936175,2063
1630415936179,2063
1630415936183,2062
1630415936187,2061
1630415936191,2061
1630415936195,2061
1630415936199,2062
1630415936203,2063
1630415936207,2063
1630415936211,2062
1630415936215,2060
1630415936219,2058
1630415936223,2057
1630415936227,2057
1630415936231,2056
1630415936235,2056
1630415936239,2056
1630415936243,2055
1630415936247,2053
1630415936251,2051
1630415936255,2050
1630415936259,2049
1630415936263,2048
1630415936267,2048
1630415936271,2047
1630415936275,2048
1630415936279,2048
1630415936283,2049
1630415936287,2051
1630415936291,2052
1630415936295,2052
1630415936299,2051
1630415936303,2051
1630415936307,2050
1630415936311,2050
1630415936315,2051
1630415936319,2051
1630415936323,2050
1630415936327,2050
1630415936331,2050
1630415936335,2050
1630415936339,2050
1630415936343,2050
1630415936347,2051
1630415936351,2050
1630415936355,2050
1630415936359,2050
1630415936363,2050
1630415936367,2051
1630415936371,2052
1630415936375,2052
1630415936379,2051
1630415936383,2050
1630415936387,2049
1630415936391,2050
1630415936395,2051
1630415936399,2052
1630415936403,2052
1630415936407,2052
1630415936411,2051
1630415936415,2050
1630415936419,2049
1630415936423,2048
1630415936427,2048
1630415936431,2048
1630415936435,2047
1630415936439,2046
1630415936443,2047
1630415936447,2048
1630415936451,2048
1630415936455,2050
1630415936459,2051
1630415936463,2051
1630415936467,2051
1630415936471,2051
1630415936475,2051
1630415936479,2052
1630415936483,2053
1630415936487,2055
1630415936491,2056
1630415936495,2056
1630415936499,2057
1630415936503,2056
1630415936507,2057
1630415936511,2057
1630415936515,2058
1630415936519,2058
1630415936523,2057
1630415936527,2055
1630415936531,2054
1630415936535,2054
1630415936539,2054
1630415936543,2053
1630415936547,2052
1630415936551,2051
1630415936555,2050
1630415936559,2049
1630415936563,2049
1630415936567,2049
1630415936571,2050
1630415936575,2050
1630415936579,2051
1630415936583,2050
1630415936587,2050
1630415936591,2049
1630415936595,2050
1630415936599,2050
1630415936603,2050
1630415936607,2050
1630415936611,2049
1630415936615,2048
1630415936619,2047
1630415936623,2046
1630415936627,2045
1630415936631,2044
1630415936635,2046
1630415936639,2049
1630415936643,2060
1630415936647,2077
1630415936651,2096
1630415936655,2110
1630415936659,2114
1630415936663,2104
1630415936667,2084
1630415936671,2060
1630415936675,2041
1630415936679,2029
1630415936683,2025
1630415936687,2027
1630415936691,2031
1630415936695,2035
1630415936699,2039
1630415936703,2041
1630415936707,2042
1630415936711,2043
1630415936715,2044
1630415936719,2045
1630415936723,2047
1630415936727,2048
1630415936731,2049
1630415936735,2049
1630415936739,2049
1630415936743,2049
1630415936747,2049
1630415936751,2049
1630415936755,2050
1630415936759,2051
1630415936763,2053
1630415936767,2055
1630415936771,2055
1630415936775,2054
1630415936779,2053
1630415936783,2052
1630415936787,2052
1630415936791,2052
1630415936795,2052
1630415936799,2052
1630415936803,2052
1630415936807,2053
1630415936811,2055
1630415936815,2058
1630415936819,2059
1630415936823,2060
1630415936827,2059
1630415936831,2057
1630415936835,2057
1630415936839,2057
1630415936843,2059
1630415936847,2060
1630415936851,2059
1630415936855,2058
1630415936859,2058
1630415936863,2057
1630415936867,2057
1630415936871,2058
1630415936875,2059
1630415936879,2061
1630415936883,2063
1630415936887,2063
1630415936891,2063
1630415936895,2061
1630415936899,2060
1630415936903,2059
1630415936907,2059
1630415936911,2059
1630415936915,2060
1630415936919,2060
1630415936923,2058
1630415936927,2057
1630415936931,2055
1630415936935,2054
1630415936939,2053
1630415936943,2052
1630415936947,2051
1630415936951,2050
1630415936955,2048
1630415936959,2048
1630415936963,2048
1630415936967,2048
1630415936971,2047
1630415936975,2045
1630415936979,2044
1630415936983,2042
1630415936987,2040
1630415936991,2039
1630415936995,2038
1630415936999,2038
1630415937003,2039
1630415937007,2040
1630415937011,2040
1630415937015,2041
1630415937019,2041
1630415937023,2040
1630415937027,2039
1630415937031,2038
1630415937035,2039
1630415937039,2039
1630415937043,2040
1630415937047,2041
1630415937051,2041
1630415937055,2041
1630415937059,2040
1630415937063,2039
1630415937067,2038
1630415937071,2037
1630415937075,2036
1630415937079,2036
1630415937083,2036
1630415937087,2036
1630415937091,2037
1630415937095,2037
1630415937099,2038
1630415937103,2039
1630415937107,2039
1630415937111,2038
1630415937115,2037
1630415937119,2036
1630415937123,2036
1630415937127,2036
1630415937131,2037
1630415937135,2036
1630415937139,2036
1630415937143,2035
1630415937147,2035
1630415937151,2035
1630415937155,2035
1630415937159,2035
1630415937163,2034
1630415937167,2033
1630415937171,2032
1630415937175,2031
1630415937179,2030
1630415937183,2029
1630415937187,2029
1630415937191,2028
1630415937195,2028
1630415937199,2029
1630415937203,2029
1630415937207,2030
1630415937211,2031
1630415937215,2032
1630415937219,2032
1630415937223,2032
1630415937227,2032
1630415937231,2033
1630415937235,2035
1630415937239,2037
