timestamp,ecg_waveform
1630573698886,2048
1630573698890,2046
1630573698894,2045
1630573698898,2043
1630573698902,2042
1630573698906,2041
1630573698910,2040
1630573698914,2039
1630573698918,2039
1630573698922,2039
1630573698926,2038
1630573698930,2038
1630573698934,2037
1630573698938,2037
1630573698942,2038
1630573698946,2038
1630573698950,2038
1630573698954,2038
1630573698958,2038
1630573698962,2038
1630573698966,2038
1630573698970,2038
1630573698974,2038
1630573698978,2039
1630573698982,2039
1630573698986,2039
1630573698990,2040
1630573698994,2040
1630573698998,2040
1630573699002,2041
1630573699006,2041
1630573699010,2041
1630573699014,2041
1630573699018,2042
1630573699022,2042
1630573699026,2042
1630573699030,2042
1630573699034,2042
1630573699038,2042
1630573699042,2042
1630573699046,2043
1630573699050,2043
1630573699054,2044
1630573699058,2044
1630573699062,2043
1630573699066,2043
1630573699070,2043
1630573699074,2043
1630573699078,2042
1630573699082,2042
1630573699086,2041
1630573699090,2041
1630573699094,2042
1630573699098,2042
1630573699102,2043
1630573699106,2043
1630573699110,2042
1630573699114,2042
1630573699118,2041
1630573699122,2041
1630573699126,2040
1630573699130,2040
1630573699134,2041
1630573699138,2041
1630573699142,2042
1630573699146,2042
1630573699150,2042
1630573699154,2042
1630573699158,2041
1630573699162,2041
1630573699166,2040
1630573699170,2040
1630573699174,2040
1630573699178,2040
1630573699182,2040
1630573699186,2040
1630573699190,2040
1630573699194,2041
1630573699198,2041
1630573699202,2041
1630573699206,2041
1630573699210,2040
1630573699214,2041
1630573699218,2040
1630573699222,2040
1630573699226,2040
1630573699230,2040
1630573699234,2040
1630573699238,2040
1630573699242,2040
1630573699246,2040
1630573699250,2040
1630573699254,2041
1630573699258,2041
1630573699262,2042
1630573699266,2042
1630573699270,2042
1630573699274,2042
1630573699278,2041
1630573699282,2041
1630573699286,2041
1630573699290,2041
1630573699294,2042
1630573699298,2042
1630573699302,2043
1630573699306,2043
1630573699310,2043
1630573699314,2043
1630573699318,2043
1630573699322,2043
1630573699326,2043
1630573699330,2043
1630573699334,2043
1630573699338,2044
1630573699342,2044
1630573699346,2045
1630573699350,2045
1630573699354,2045
1630573699358,2045
1630573699362,2045
1630573699366,2045
1630573699370,2046
1630573699374,2047
1630573699378,2048
1630573699382,2048
1630573699386,2048
1630573699390,2048
1630573699394,2046
1630573699398,2044
1630573699402,2042
1630573699406,2041
1630573699410,2040
1630573699414,2041
1630573699418,2041
1630573699422,2042
1630573699426,2042
1630573699430,2042
1630573699434,2041
1630573699438,2040
1630573699442,2040
1630573699446,2040
1630573699450,2041
1630573699454,2042
1630573699458,2042
1630573699462,2043
1630573699466,2043
1630573699470,2043
1630573699474,2043
1630573699478,2043
1630573699482,2043
1630573699486,2043
1630573699490,2043
1630573699494,2045
1630573699498,2046
1630573699502,2048
1630573699506,2049
1630573699510,2053
1630573699514,2062
1630573699518,2081
1630573699522,2111
1630573699526,2154
1630573699530,2201
1630573699534,2235
1630573699538,2237
1630573699542,2199
1630573699546,2128
1630573699550,2047
1630573699554,1980
1630573699558,1944
1630573699562,1942
1630573699566,1961
1630573699570,1987
1630573699574,2009
1630573699578,2024
1630573699582,2034
1630573699586,2042
1630573699590,2047
1630573699594,2049
1630573699598,2050
1630573699602,2051
1630573699606,2051
1630573699610,2052
1630573699614,2053
1630573699618,2054
1630573699622,2055
1630573699626,2055
1630573699630,2055
1630573699634,2055
1630573699638,2055
1630573699642,2055
1630573699646,2055
1630573699650,2056
1630573699654,2058
1630573699658,2059
1630573699662,2060
1630573699666,2061
1630573699670,2061
1630573699674,2062
1630573699678,2062
1630573699682,2062
1630573699686,2063
1630573699690,2064
1630573699694,2065
1630573699698,2067
1630573699702,2068
1630573699706,2070
1630573699710,2071
1630573699714,2072
1630573699718,2073
1630573699722,2074
1630573699726,2076
1630573699730,2077
1630573699734,2079
1630573699738,2081
1630573699742,2082
1630573699746,2084
1630573699750,2085
1630573699754,2085
1630573699758,2085
1630573699762,2086
1630573699766,2086
1630573699770,2087
1630573699774,2087
1630573699778,2087
1630573699782,2086
1630573699786,2086
1630573699790,2085
1630573699794,2084
1630573699798,2083
1630573699802,2081
1630573699806,2080
1630573699810,2077
1630573699814,2075
1630573699818,2073
1630573699822,2070
1630573699826,2067
1630573699830,2064
1630573699834,2060
1630573699838,2057
1630573699842,2054
1630573699846,2051
1630573699850,2048
1630573699854,2047
1630573699858,2045
1630573699862,2044
1630573699866,2043
1630573699870,2041
1630573699874,2040
1630573699878,2039
1630573699882,2038
1630573699886,2037
1630573699890,2037
1630573699894,2037
1630573699898,2037
1630573699902,2037
1630573699906,2037
1630573699910,2037
1630573699914,2037
1630573699918,2037
1630573699922,2037
1630573699926,2037
1630573699930,2037
1630573699934,2038
1630573699938,2038
1630573699942,2039
1630573699946,2040
1630573699950,2040
1630573699954,2040
1630573699958,2040
1630573699962,2040
1630573699966,2040
1630573699970,2040
1630573699974,2041
1630573699978,2042
1630573699982,2042
1630573699986,2042
1630573699990,2042
1630573699994,2042
1630573699998,2042
1630573700002,2042
1630573700006,2042
1630573700010,2042
1630573700014,2042
1630573700018,2043
1630573700022,2043
1630573700026,2043
1630573700030,2043
1630573700034,2043
1630573700038,2044
1630573700042,2043
1630573700046,2043
1630573700050,2043
1630573700054,2043
1630573700058,2043
1630573700062,2044
1630573700066,2044
1630573700070,2044
1630573700074,2043
1630573700078,2042
1630573700082,2042
1630573700086,2042
1630573700090,2042
1630573700094,2042
1630573700098,2042
1630573700102,2043
1630573700106,2043
1630573700110,2042
1630573700114,2042
1630573700118,2042
1630573700122,2042
1630573700126,2042
1630573700130,2042
1630573700134,2043
1630573700138,2043
1630573700142,2043
1630573700146,2043
1630573700150,2042
1630573700154,2042
1630573700158,2041
1630573700162,2041
1630573700166,2041
1630573700170,2042
1630573700174,2043
1630573700178,2043
1630573700182,2044
1630573700186,2043
1630573700190,2043
1630573700194,2043
1630573700198,2042
1630573700202,2042
1630573700206,2042
1630573700210,2042
1630573700214,2043
1630573700218,2043
1630573700222,2043
1630573700226,2043
1630573700230,2043
1630573700234,2042
1630573700238,2042
1630573700242,2042
1630573700246,2042
1630573700250,2042
1630573700254,2043
1630573700258,2043
1630573700262,2044
1630573700266,2044
1630573700270,2043
1630573700274,2043
1630573700278,2042
1630573700282,2042
1630573700286,2042
1630573700290,2043
1630573700294,2043
1630573700298,2044
1630573700302,2044
1630573700306,2044
1630573700310,2044
1630573700314,2044
1630573700318,2043
1630573700322,2043
1630573700326,2044
1630573700330,2044
1630573700334,2044
1630573700338,2045
1630573700342,2046
1630573700346,2047
1630573700350,2047
1630573700354,2047
1630573700358,2046
1630573700362,2045
1630573700366,2046
1630573700370,2047
1630573700374,2048
1630573700378,2049
1630573700382,2049
1630573700386,2048
1630573700390,2048
1630573700394,2047
1630573700398,2045
1630573700402,2044
1630573700406,2044
1630573700410,2043
1630573700414,2043
1630573700418,2043
1630573700422,2043
1630573700426,2044
1630573700430,2043
1630573700434,2043
1630573700438,2043
1630573700442,2043
1630573700446,2042
1630573700450,2042
1630573700454,2043
1630573700458,2044
1630573700462,2044
1630573700466,2045
1630573700470,2045
1630573700474,2045
1630573700478,2045
1630573700482,2045
1630573700486,2045
1630573700490,2045
1630573700494,2046
1630573700498,2047
1630573700502,2048
1630573700506,2051
1630573700510,2058
1630573700514,2073
1630573700518,2097
1630573700522,2133
1630573700526,2177
1630573700530,2217
1630573700534,2235
1630573700538,2218
1630573700542,2164
1630573700546,2088
1630573700550,2014
1630573700554,1963
1630573700558,1945
1630573700562,1955
1630573700566,1979
1630573700570,2004
1630573700574,2022
1630573700578,2034
1630573700582,2042
1630573700586,2048
1630573700590,2050
1630573700594,2052
1630573700598,2052
1630573700602,2052
1630573700606,2053
1630573700610,2053
1630573700614,2054
1630573700618,2055
1630573700622,2057
1630573700626,2057
1630573700630,2057
1630573700634,2057
1630573700638,2057
1630573700642,2057
1630573700646,2058
1630573700650,2059
1630573700654,2060
1630573700658,2061
1630573700662,2061
1630573700666,2062
1630573700670,2062
1630573700674,2063
1630573700678,2063
1630573700682,2064
1630573700686,2065
1630573700690,2066
1630573700694,2068
1630573700698,2069
1630573700702,2071
1630573700706,2072
1630573700710,2073
1630573700714,2074
1630573700718,2075
1630573700722,2076
1630573700726,2078
1630573700730,2079
1630573700734,2081
1630573700738,2083
1630573700742,2084
1630573700746,2085
1630573700750,2086
1630573700754,2087
1630573700758,2087
1630573700762,2086
1630573700766,2086
1630573700770,2085
1630573700774,2085
1630573700778,2085
1630573700782,2085
1630573700786,2085
1630573700790,2084
1630573700794,2083
1630573700798,2082
1630573700802,2081
1630573700806,2079
1630573700810,2077
1630573700814,2075
1630573700818,2072
1630573700822,2069
1630573700826,2066
1630573700830,2063
1630573700834,2059
1630573700838,2056
1630573700842,2053
1630573700846,2050
1630573700850,2048
1630573700854,2047
1630573700858,2045
1630573700862,2044
1630573700866,2042
1630573700870,2041
1630573700874,2040
1630573700878,2040
1630573700882,2039
1630573700886,2039
1630573700890,2038
1630573700894,2038
1630573700898,2039
1630573700902,2039
1630573700906,2040
1630573700910,2040
1630573700914,2040
1630573700918,2039
1630573700922,2039
1630573700926,2039
1630573700930,2039
1630573700934,2040
1630573700938,2041
1630573700942,2042
1630573700946,2042
1630573700950,2042
1630573700954,2042
1630573700958,2042
1630573700962,2041
1630573700966,2041
1630573700970,2042
1630573700974,2043
1630573700978,2044
1630573700982,2044
1630573700986,2044
1630573700990,2044
1630573700994,2044
1630573700998,2044
1630573701002,2044
1630573701006,2044
1630573701010,2045
1630573701014,2045
1630573701018,2046
1630573701022,2046
1630573701026,2046
1630573701030,2046
1630573701034,2046
1630573701038,2045
1630573701042,2045
1630573701046,2045
1630573701050,2045
1630573701054,2045
1630573701058,2045
1630573701062,2046
1630573701066,2046
1630573701070,2046
1630573701074,2045
1630573701078,2044
1630573701082,2044
1630573701086,2044
1630573701090,2044
1630573701094,2045
1630573701098,2045
1630573701102,2045
1630573701106,2045
1630573701110,2044
1630573701114,2043
1630573701118,2043
1630573701122,2043
1630573701126,2044
1630573701130,2044
1630573701134,2045
1630573701138,2045
1630573701142,2045
1630573701146,2044
1630573701150,2044
1630573701154,2044
1630573701158,2043
1630573701162,2043
1630573701166,2043
1630573701170,2043
1630573701174,2044
1630573701178,2044
1630573701182,2044
1630573701186,2045
1630573701190,2045
1630573701194,2044
1630573701198,2044
1630573701202,2043
1630573701206,2043
1630573701210,2043
1630573701214,2044
1630573701218,2044
1630573701222,2045
1630573701226,2045
1630573701230,2045
1630573701234,2045
1630573701238,2045
1630573701242,2045
1630573701246,2045
1630573701250,2045
1630573701254,2045
1630573701258,2045
1630573701262,2045
1630573701266,2045
1630573701270,2045
1630573701274,2045
1630573701278,2045
1630573701282,2045
1630573701286,2045
1630573701290,2045
1630573701294,2045
1630573701298,2046
1630573701302,2046
1630573701306,2047
1630573701310,2047
1630573701314,2046
1630573701318,2046
1630573701322,2045
1630573701326,2045
1630573701330,2045
1630573701334,2047
1630573701338,2048
1630573701342,2048
1630573701346,2048
1630573701350,2048
1630573701354,2048
1630573701358,2048
1630573701362,2048
1630573701366,2048
1630573701370,2048
1630573701374,2048
1630573701378,2049
1630573701382,2050
1630573701386,2051
1630573701390,2051
1630573701394,2050
1630573701398,2049
1630573701402,2048
1630573701406,2048
1630573701410,2048
1630573701414,2047
1630573701418,2047
1630573701422,2046
1630573701426,2046
1630573701430,2045
1630573701434,2045
1630573701438,2045
1630573701442,2044
1630573701446,2044
1630573701450,2044
1630573701454,2044
1630573701458,2044
1630573701462,2044
1630573701466,2045
1630573701470,2045
1630573701474,2045
1630573701478,2046
1630573701482,2046
1630573701486,2046
1630573701490,2046
1630573701494,2047
1630573701498,2047
1630573701502,2048
1630573701506,2048
1630573701510,2048
1630573701514,2048
1630573701518,2048
1630573701522,2053
1630573701526,2063
1630573701530,2083
1630573701534,2114
1630573701538,2157
1630573701542,2201
1630573701546,2231
1630573701550,2231
1630573701554,2194
1630573701558,2126
1630573701562,2049
1630573701566,1987
1630573701570,1955
1630573701574,1953
1630573701578,1972
1630573701582,1998
1630573701586,2019
1630573701590,2033
1630573701594,2041
1630573701598,2048
1630573701602,2050
1630573701606,2052
1630573701610,2053
1630573701614,2054
1630573701618,2054
1630573701622,2055
1630573701626,2055
1630573701630,2056
1630573701634,2056
1630573701638,2056
1630573701642,2057
1630573701646,2058
1630573701650,2058
1630573701654,2059
1630573701658,2060
1630573701662,2061
1630573701666,2061
1630573701670,2062
1630573701674,2062
1630573701678,2062
1630573701682,2063
1630573701686,2063
1630573701690,2064
1630573701694,2065
1630573701698,2066
1630573701702,2067
1630573701706,2069
1630573701710,2070
1630573701714,2071
1630573701718,2072
1630573701722,2073
1630573701726,2074
1630573701730,2075
1630573701734,2076
1630573701738,2078
1630573701742,2080
1630573701746,2081
1630573701750,2082
1630573701754,2083
1630573701758,2084
1630573701762,2084
1630573701766,2085
1630573701770,2086
1630573701774,2087
1630573701778,2088
1630573701782,2088
1630573701786,2088
1630573701790,2087
1630573701794,2086
1630573701798,2085
1630573701802,2085
1630573701806,2084
1630573701810,2084
1630573701814,2083
1630573701818,2083
1630573701822,2081
1630573701826,2079
1630573701830,2077
1630573701834,2073
1630573701838,2070
1630573701842,2066
1630573701846,2062
1630573701850,2059
1630573701854,2057
1630573701858,2055
1630573701862,2053
1630573701866,2051
1630573701870,2049
1630573701874,2048
1630573701878,2046
1630573701882,2044
1630573701886,2044
1630573701890,2043
1630573701894,2043
1630573701898,2042
1630573701902,2042
1630573701906,2042
1630573701910,2042
1630573701914,2042
1630573701918,2042
1630573701922,2042
1630573701926,2041
1630573701930,2041
1630573701934,2042
1630573701938,2043
1630573701942,2043
1630573701946,2044
1630573701950,2044
1630573701954,2044
1630573701958,2043
1630573701962,2044
1630573701966,2044
1630573701970,2044
1630573701974,2045
1630573701978,2045
1630573701982,2046
1630573701986,2046
1630573701990,2046
1630573701994,2046
1630573701998,2046
1630573702002,2046
1630573702006,2046
1630573702010,2046
1630573702014,2047
1630573702018,2047
1630573702022,2048
1630573702026,2048
1630573702030,2048
1630573702034,2048
1630573702038,2048
1630573702042,2047
1630573702046,2047
1630573702050,2047
1630573702054,2048
1630573702058,2048
1630573702062,2049
1630573702066,2049
1630573702070,2049
1630573702074,2048
1630573702078,2048
1630573702082,2048
1630573702086,2048
1630573702090,2048
1630573702094,2048
1630573702098,2048
1630573702102,2048
1630573702106,2048
1630573702110,2048
1630573702114,2048
1630573702118,2047
1630573702122,2047
1630573702126,2048
1630573702130,2048
1630573702134,2048
1630573702138,2048
1630573702142,2048
1630573702146,2048
1630573702150,2048
1630573702154,2047
1630573702158,2047
1630573702162,2047
1630573702166,2047
1630573702170,2047
1630573702174,2047
1630573702178,2048
1630573702182,2048
1630573702186,2048
1630573702190,2047
1630573702194,2047
1630573702198,2047
1630573702202,2047
1630573702206,2047
1630573702210,2047
1630573702214,2048
1630573702218,2048
1630573702222,2048
1630573702226,2048
1630573702230,2048
1630573702234,2048
1630573702238,2048
1630573702242,2048
1630573702246,2048
1630573702250,2048
1630573702254,2048
1630573702258,2048
1630573702262,2048
1630573702266,2048
1630573702270,2048
1630573702274,2048
1630573702278,2048
1630573702282,2048
1630573702286,2048
1630573702290,2048
1630573702294,2048
1630573702298,2049
1630573702302,2049
1630573702306,2049
1630573702310,2049
1630573702314,2048
1630573702318,2048
1630573702322,2048
1630573702326,2048
1630573702330,2049
1630573702334,2049
1630573702338,2049
1630573702342,2049
1630573702346,2050
1630573702350,2051
1630573702354,2052
1630573702358,2052
1630573702362,2052
1630573702366,2052
1630573702370,2052
1630573702374,2052
1630573702378,2053
1630573702382,2054
1630573702386,2054
1630573702390,2053
1630573702394,2052
1630573702398,2050
1630573702402,2049
1630573702406,2048
1630573702410,2048
1630573702414,2048
1630573702418,2048
1630573702422,2048
1630573702426,2048
1630573702430,2048
1630573702434,2047
1630573702438,2047
1630573702442,2047
1630573702446,2046
1630573702450,2046
1630573702454,2047
1630573702458,2048
1630573702462,2048
1630573702466,2048
1630573702470,2048
1630573702474,2048
1630573702478,2048
1630573702482,2048
1630573702486,2048
1630573702490,2048
1630573702494,2049
1630573702498,2051
1630573702502,2052
1630573702506,2054
1630573702510,2058
1630573702514,2070
1630573702518,2091
1630573702522,2124
1630573702526,2170
1630573702530,2216
1630573702534,2243
1630573702538,2238
1630573702542,2192
1630573702546,2118
1630573702550,2039
1630573702554,1978
1630573702558,1951
1630573702562,1954
1630573702566,1975
1630573702570,1999
1630573702574,2018
1630573702578,2029
1630573702582,2038
1630573702586,2046
1630573702590,2051
1630573702594,2054
1630573702598,2056
1630573702602,2056
1630573702606,2056
1630573702610,2056
1630573702614,2057
1630573702618,2059
1630573702622,2060
1630573702626,2061
1630573702630,2061
1630573702634,2061
1630573702638,2060
1630573702642,2060
1630573702646,2061
1630573702650,2061
1630573702654,2062
1630573702658,2063
1630573702662,2065
1630573702666,2066
1630573702670,2066
1630573702674,2066
1630573702678,2066
1630573702682,2066
1630573702686,2067
1630573702690,2069
1630573702694,2071
1630573702698,2073
1630573702702,2074
1630573702706,2075
1630573702710,2075
1630573702714,2076
1630573702718,2077
1630573702722,2078
1630573702726,2080
1630573702730,2082
1630573702734,2084
1630573702738,2085
1630573702742,2087
1630573702746,2088
1630573702750,2089
1630573702754,2090
1630573702758,2090
1630573702762,2090
1630573702766,2090
1630573702770,2090
1630573702774,2090
1630573702778,2089
1630573702782,2089
1630573702786,2088
1630573702790,2088
1630573702794,2088
1630573702798,2087
1630573702802,2086
1630573702806,2085
1630573702810,2083
1630573702814,2080
1630573702818,2077
1630573702822,2074
1630573702826,2071
1630573702830,2068
1630573702834,2064
1630573702838,2061
1630573702842,2057
1630573702846,2054
1630573702850,2051
1630573702854,2049
1630573702858,2048
1630573702862,2047
1630573702866,2045
1630573702870,2044
1630573702874,2043
1630573702878,2041
1630573702882,2040
1630573702886,2039
1630573702890,2039
1630573702894,2039
1630573702898,2039
1630573702902,2039
1630573702906,2040
1630573702910,2040
1630573702914,2040
1630573702918,2039
1630573702922,2038
1630573702926,2038
1630573702930,2039
1630573702934,2040
1630573702938,2040
1630573702942,2040
1630573702946,2040
1630573702950,2040
1630573702954,2041
1630573702958,2042
1630573702962,2042
1630573702966,2042
1630573702970,2042
1630573702974,2042
1630573702978,2043
1630573702982,2043
1630573702986,2044
1630573702990,2044
1630573702994,2044
1630573702998,2044
1630573703002,2043
1630573703006,2043
1630573703010,2043
1630573703014,2044
1630573703018,2045
1630573703022,2045
1630573703026,2045
1630573703030,2045
1630573703034,2044
1630573703038,2044
1630573703042,2044
1630573703046,2044
1630573703050,2044
1630573703054,2044
1630573703058,2044
1630573703062,2044
1630573703066,2044
1630573703070,2044
1630573703074,2043
1630573703078,2043
1630573703082,2042
1630573703086,2042
1630573703090,2043
1630573703094,2044
1630573703098,2044
1630573703102,2044
1630573703106,2044
1630573703110,2043
1630573703114,2042
1630573703118,2042
1630573703122,2042
1630573703126,2042
1630573703130,2042
1630573703134,2043
1630573703138,2043
1630573703142,2043
1630573703146,2044
1630573703150,2044
1630573703154,2044
1630573703158,2043
1630573703162,2043
1630573703166,2043
1630573703170,2043
1630573703174,2043
1630573703178,2043
1630573703182,2044
1630573703186,2044
1630573703190,2043
1630573703194,2043
1630573703198,2043
1630573703202,2042
1630573703206,2042
1630573703210,2043
1630573703214,2043
1630573703218,2044
1630573703222,2044
1630573703226,2044
1630573703230,2044
1630573703234,2044
1630573703238,2043
1630573703242,2043
1630573703246,2044
1630573703250,2044
1630573703254,2045
1630573703258,2045
1630573703262,2045
1630573703266,2045
1630573703270,2044
1630573703274,2044
1630573703278,2044
1630573703282,2044
1630573703286,2044
1630573703290,2044
1630573703294,2045
1630573703298,2045
1630573703302,2046
1630573703306,2047
1630573703310,2047
1630573703314,2048
1630573703318,2048
1630573703322,2047
1630573703326,2047
1630573703330,2047
1630573703334,2047
1630573703338,2048
1630573703342,2048
1630573703346,2049
1630573703350,2049
1630573703354,2049
1630573703358,2048
1630573703362,2048
1630573703366,2046
1630573703370,2045
1630573703374,2045
1630573703378,2045
1630573703382,2045
1630573703386,2045
1630573703390,2044
1630573703394,2044
1630573703398,2044
1630573703402,2044
1630573703406,2044
1630573703410,2044
1630573703414,2045
1630573703418,2045
1630573703422,2045
1630573703426,2045
1630573703430,2045
1630573703434,2045
1630573703438,2045
1630573703442,2045
1630573703446,2046
1630573703450,2046
1630573703454,2047
1630573703458,2047
1630573703462,2048
1630573703466,2048
1630573703470,2050
1630573703474,2053
1630573703478,2061
1630573703482,2076
1630573703486,2103
1630573703490,2143
1630573703494,2191
1630573703498,2230
1630573703502,2242
1630573703506,2214
1630573703510,2150
1630573703514,2069
1630573703518,1997
1630573703522,1953
1630573703526,1944
1630573703530,1959
1630573703534,1984
1630573703538,2008
1630573703542,2024
1630573703546,2034
1630573703550,2043
1630573703554,2048
1630573703558,2051
1630573703562,2053
1630573703566,2054
1630573703570,2054
1630573703574,2055
1630573703578,2056
1630573703582,2056
1630573703586,2057
1630573703590,2057
1630573703594,2058
1630573703598,2058
1630573703602,2058
1630573703606,2058
1630573703610,2058
1630573703614,2059
1630573703618,2060
1630573703622,2061
1630573703626,2062
1630573703630,2062
1630573703634,2062
1630573703638,2063
1630573703642,2063
1630573703646,2065
1630573703650,2066
1630573703654,2067
1630573703658,2068
1630573703662,2069
1630573703666,2070
1630573703670,2071
1630573703674,2073
1630573703678,2074
1630573703682,2075
1630573703686,2076
1630573703690,2077
1630573703694,2079
1630573703698,2082
1630573703702,2084
1630573703706,2085
1630573703710,2086
1630573703714,2087
1630573703718,2087
1630573703722,2087
1630573703726,2087
1630573703730,2087
1630573703734,2088
1630573703738,2088
1630573703742,2088
1630573703746,2087
1630573703750,2087
1630573703754,2086
1630573703758,2085
1630573703762,2084
1630573703766,2083
1630573703770,2082
1630573703774,2081
1630573703778,2079
1630573703782,2076
1630573703786,2073
1630573703790,2070
1630573703794,2066
1630573703798,2063
1630573703802,2059
1630573703806,2056
1630573703810,2052
1630573703814,2050
1630573703818,2048
1630573703822,2046
1630573703826,2045
1630573703830,2044
1630573703834,2042
1630573703838,2041
1630573703842,2040
1630573703846,2040
1630573703850,2039
1630573703854,2039
1630573703858,2039
1630573703862,2038
1630573703866,2038
1630573703870,2038
1630573703874,2038
1630573703878,2038
1630573703882,2038
1630573703886,2038
1630573703890,2037
1630573703894,2038
1630573703898,2038
1630573703902,2039
1630573703906,2040
1630573703910,2040
1630573703914,2041
1630573703918,2040
1630573703922,2040
1630573703926,2041
1630573703930,2041
1630573703934,2042
1630573703938,2042
1630573703942,2043
1630573703946,2043
1630573703950,2042
1630573703954,2042
1630573703958,2042
1630573703962,2042
1630573703966,2043
1630573703970,2044
1630573703974,2045
1630573703978,2045
1630573703982,2046
1630573703986,2046
1630573703990,2046
1630573703994,2046
1630573703998,2045
1630573704002,2045
1630573704006,2045
1630573704010,2045
1630573704014,2045
1630573704018,2046
1630573704022,2046
1630573704026,2046
1630573704030,2045
1630573704034,2045
1630573704038,2044
1630573704042,2044
1630573704046,2044
1630573704050,2043
1630573704054,2044
1630573704058,2045
1630573704062,2045
1630573704066,2045
1630573704070,2045
1630573704074,2044
1630573704078,2044
1630573704082,2043
1630573704086,2043
1630573704090,2043
1630573704094,2044
1630573704098,2044
1630573704102,2044
1630573704106,2044
1630573704110,2044
1630573704114,2043
1630573704118,2043
1630573704122,2042
1630573704126,2042
1630573704130,2043
1630573704134,2043
1630573704138,2043
1630573704142,2044
1630573704146,2044
1630573704150,2044
1630573704154,2044
1630573704158,2043
1630573704162,2043
1630573704166,2043
1630573704170,2043
1630573704174,2043
1630573704178,2043
1630573704182,2044
1630573704186,2044
1630573704190,2044
1630573704194,2044
1630573704198,2043
1630573704202,2043
1630573704206,2043
1630573704210,2043
1630573704214,2043
1630573704218,2044
1630573704222,2044
1630573704226,2044
1630573704230,2044
1630573704234,2044
1630573704238,2043
1630573704242,2043
1630573704246,2043
1630573704250,2043
1630573704254,2044
1630573704258,2044
1630573704262,2044
1630573704266,2044
1630573704270,2044
1630573704274,2044
1630573704278,2043
1630573704282,2043
1630573704286,2043
1630573704290,2043
1630573704294,2044
1630573704298,2045
1630573704302,2046
1630573704306,2046
1630573704310,2045
1630573704314,2045
1630573704318,2044
1630573704322,2044
1630573704326,2045
1630573704330,2045
1630573704334,2045
1630573704338,2045
1630573704342,2045
1630573704346,2045
1630573704350,2047
1630573704354,2048
1630573704358,2048
1630573704362,2048
1630573704366,2047
1630573704370,2046
1630573704374,2046
1630573704378,2046
1630573704382,2046
1630573704386,2046
1630573704390,2045
1630573704394,2043
1630573704398,2042
1630573704402,2042
1630573704406,2042
1630573704410,2042
1630573704414,2042
1630573704418,2042
1630573704422,2043
1630573704426,2043
1630573704430,2042
1630573704434,2042
1630573704438,2042
1630573704442,2042
1630573704446,2042
1630573704450,2043
1630573704454,2044
1630573704458,2044
1630573704462,2045
1630573704466,2045
1630573704470,2045
1630573704474,2046
1630573704478,2046
1630573704482,2047
1630573704486,2050
1630573704490,2060
1630573704494,2079
1630573704498,2109
1630573704502,2151
1630573704506,2195
1630573704510,2227
1630573704514,2229
1630573704518,2194
1630573704522,2127
1630573704526,2049
1630573704530,1984
1630573704534,1948
1630573704538,1945
1630573704542,1963
1630573704546,1989
1630573704550,2011
1630573704554,2026
1630573704558,2035
1630573704562,2043
1630573704566,2048
1630573704570,2049
1630573704574,2051
1630573704578,2051
1630573704582,2051
1630573704586,2051
1630573704590,2052
1630573704594,2052
1630573704598,2052
1630573704602,2053
1630573704606,2054
1630573704610,2054
1630573704614,2055
1630573704618,2056
1630573704622,2057
1630573704626,2057
1630573704630,2057
1630573704634,2057
1630573704638,2058
1630573704642,2058
1630573704646,2059
1630573704650,2060
1630573704654,2061
1630573704658,2062
1630573704662,2063
1630573704666,2064
1630573704670,2065
1630573704674,2066
1630573704678,2067
1630573704682,2067
1630573704686,2068
1630573704690,2070
1630573704694,2071
1630573704698,2073
1630573704702,2075
1630573704706,2077
1630573704710,2078
1630573704714,2079
1630573704718,2080
1630573704722,2080
1630573704726,2081
1630573704730,2082
1630573704734,2083
1630573704738,2083
1630573704742,2083
1630573704746,2083
1630573704750,2082
1630573704754,2082
1630573704758,2081
1630573704762,2081
1630573704766,2081
1630573704770,2081
1630573704774,2080
1630573704778,2080
1630573704782,2079
1630573704786,2077
1630573704790,2075
1630573704794,2072
1630573704798,2069
1630573704802,2066
1630573704806,2063
1630573704810,2060
1630573704814,2057
1630573704818,2054
1630573704822,2052
1630573704826,2049
1630573704830,2048
1630573704834,2045
1630573704838,2043
1630573704842,2041
1630573704846,2040
1630573704850,2039
1630573704854,2038
1630573704858,2038
1630573704862,2038
1630573704866,2038
1630573704870,2037
1630573704874,2037
1630573704878,2037
1630573704882,2036
1630573704886,2036
1630573704890,2036
1630573704894,2037
1630573704898,2038
1630573704902,2038
1630573704906,2039
1630573704910,2039
1630573704914,2039
1630573704918,2039
1630573704922,2039
1630573704926,2038
1630573704930,2038
1630573704934,2039
1630573704938,2040
1630573704942,2041
1630573704946,2041
1630573704950,2041
1630573704954,2041
1630573704958,2041
1630573704962,2041
1630573704966,2041
1630573704970,2041
1630573704974,2042
1630573704978,2042
1630573704982,2043
1630573704986,2043
1630573704990,2043
1630573704994,2043
1630573704998,2043
1630573705002,2043
1630573705006,2043
1630573705010,2043
1630573705014,2044
1630573705018,2044
1630573705022,2044
1630573705026,2044
1630573705030,2043
1630573705034,2043
1630573705038,2043
1630573705042,2043
1630573705046,2043
1630573705050,2043
1630573705054,2043
1630573705058,2043
1630573705062,2043
1630573705066,2043
1630573705070,2042
1630573705074,2042
1630573705078,2041
1630573705082,2041
1630573705086,2041
1630573705090,2041
1630573705094,2041
1630573705098,2042
1630573705102,2042
1630573705106,2041
1630573705110,2041
1630573705114,2040
1630573705118,2040
1630573705122,2040
1630573705126,2040
1630573705130,2040
1630573705134,2040
1630573705138,2041
1630573705142,2042
1630573705146,2042
1630573705150,2043
1630573705154,2043
1630573705158,2042
1630573705162,2041
1630573705166,2041
1630573705170,2041
1630573705174,2041
1630573705178,2041
1630573705182,2042
1630573705186,2042
1630573705190,2042
1630573705194,2042
1630573705198,2042
1630573705202,2042
1630573705206,2042
1630573705210,2042
1630573705214,2042
1630573705218,2043
1630573705222,2043
1630573705226,2043
1630573705230,2043
1630573705234,2043
1630573705238,2042
1630573705242,2042
1630573705246,2042
1630573705250,2042
1630573705254,2042
1630573705258,2043
1630573705262,2044
1630573705266,2045
1630573705270,2045
1630573705274,2045
1630573705278,2044
1630573705282,2043
1630573705286,2043
1630573705290,2043
1630573705294,2044
1630573705298,2044
1630573705302,2044
1630573705306,2044
1630573705310,2044
1630573705314,2044
1630573705318,2043
1630573705322,2043
1630573705326,2043
1630573705330,2044
1630573705334,2045
1630573705338,2045
1630573705342,2046
1630573705346,2046
1630573705350,2046
1630573705354,2046
1630573705358,2046
1630573705362,2047
1630573705366,2047
1630573705370,2046
1630573705374,2046
1630573705378,2046
1630573705382,2047
1630573705386,2048
1630573705390,2049
1630573705394,2049
1630573705398,2049
1630573705402,2048
1630573705406,2047
1630573705410,2046
1630573705414,2046
1630573705418,2046
1630573705422,2046
1630573705426,2046
1630573705430,2045
1630573705434,2045
1630573705438,2044
1630573705442,2043
1630573705446,2043
1630573705450,2043
1630573705454,2044
1630573705458,2044
1630573705462,2044
1630573705466,2045
1630573705470,2045
1630573705474,2045
1630573705478,2045
1630573705482,2045
1630573705486,2045
1630573705490,2045
1630573705494,2046
1630573705498,2047
1630573705502,2047
1630573705506,2047
1630573705510,2047
1630573705514,2047
1630573705518,2048
1630573705522,2051
1630573705526,2060
1630573705530,2078
1630573705534,2106
1630573705538,2145
1630573705542,2190
1630573705546,2225
1630573705550,2234
1630573705554,2206
1630573705558,2145
1630573705562,2068
1630573705566,2001
1630573705570,1960
1630573705574,1951
1630573705578,1965
1630573705582,1990
1630573705586,2013
1630573705590,2028
1630573705594,2038
1630573705598,2045
1630573705602,2048
1630573705606,2051
1630573705610,2052
1630573705614,2053
1630573705618,2054
1630573705622,2054
1630573705626,2055
1630573705630,2055
1630573705634,2055
1630573705638,2056
1630573705642,2056
1630573705646,2056
1630573705650,2056
1630573705654,2057
1630573705658,2058
1630573705662,2059
1630573705666,2060
1630573705670,2060
1630573705674,2061
1630573705678,2061
1630573705682,2061
1630573705686,2061
1630573705690,2062
1630573705694,2064
1630573705698,2065
1630573705702,2066
1630573705706,2067
1630573705710,2068
1630573705714,2069
1630573705718,2070
1630573705722,2070
1630573705726,2072
1630573705730,2073
1630573705734,2075
1630573705738,2076
1630573705742,2078
1630573705746,2080
1630573705750,2081
1630573705754,2082
1630573705758,2083
1630573705762,2083
1630573705766,2084
1630573705770,2084
1630573705774,2085
1630573705778,2085
1630573705782,2085
1630573705786,2085
1630573705790,2086
1630573705794,2086
1630573705798,2085
1630573705802,2085
1630573705806,2084
1630573705810,2083
1630573705814,2082
1630573705818,2082
1630573705822,2081
1630573705826,2080
1630573705830,2078
1630573705834,2075
1630573705838,2071
1630573705842,2067
1630573705846,2064
1630573705850,2061
1630573705854,2059
1630573705858,2057
1630573705862,2054
1630573705866,2052
1630573705870,2049
1630573705874,2048
1630573705878,2047
1630573705882,2045
1630573705886,2044
1630573705890,2043
1630573705894,2043
1630573705898,2043
1630573705902,2043
1630573705906,2043
1630573705910,2043
1630573705914,2042
1630573705918,2041
1630573705922,2041
1630573705926,2042
1630573705930,2042
1630573705934,2043
1630573705938,2043
1630573705942,2044
1630573705946,2044
1630573705950,2043
1630573705954,2043
1630573705958,2043
1630573705962,2044
1630573705966,2045
1630573705970,2046
1630573705974,2046
1630573705978,2047
1630573705982,2047
1630573705986,2048
1630573705990,2048
1630573705994,2047
1630573705998,2046
1630573706002,2046
1630573706006,2047
1630573706010,2048
1630573706014,2048
1630573706018,2049
1630573706022,2049
1630573706026,2049
1630573706030,2049
1630573706034,2049
1630573706038,2049
1630573706042,2049
1630573706046,2049
1630573706050,2050
1630573706054,2051
1630573706058,2051
1630573706062,2051
1630573706066,2050
1630573706070,2050
1630573706074,2050
1630573706078,2049
1630573706082,2049
1630573706086,2049
1630573706090,2049
1630573706094,2049
1630573706098,2050
1630573706102,2050
1630573706106,2050
1630573706110,2049
1630573706114,2048
1630573706118,2048
1630573706122,2048
1630573706126,2048
1630573706130,2048
1630573706134,2048
1630573706138,2049
1630573706142,2049
1630573706146,2049
1630573706150,2049
1630573706154,2048
1630573706158,2048
1630573706162,2048
1630573706166,2049
1630573706170,2049
1630573706174,2050
1630573706178,2050
1630573706182,2050
1630573706186,2050
1630573706190,2049
1630573706194,2049
1630573706198,2049
1630573706202,2049
1630573706206,2049
1630573706210,2049
1630573706214,2050
1630573706218,2050
1630573706222,2050
1630573706226,2051
1630573706230,2051
1630573706234,2051
1630573706238,2050
1630573706242,2049
1630573706246,2049
1630573706250,2049
1630573706254,2050
1630573706258,2050
1630573706262,2051
1630573706266,2051
1630573706270,2051
1630573706274,2052
1630573706278,2052
1630573706282,2052
1630573706286,2052
1630573706290,2052
1630573706294,2052
1630573706298,2052
1630573706302,2051
1630573706306,2051
1630573706310,2051
1630573706314,2052
1630573706318,2052
1630573706322,2052
1630573706326,2052
1630573706330,2052
1630573706334,2053
1630573706338,2053
1630573706342,2054
1630573706346,2054
1630573706350,2054
1630573706354,2054
1630573706358,2054
1630573706362,2054
1630573706366,2054
1630573706370,2054
1630573706374,2055
1630573706378,2056
1630573706382,2057
1630573706386,2058
1630573706390,2058
1630573706394,2057
1630573706398,2055
1630573706402,2054
1630573706406,2053
1630573706410,2053
1630573706414,2052
1630573706418,2052
1630573706422,2051
1630573706426,2050
1630573706430,2050
1630573706434,2049
1630573706438,2050
1630573706442,2050
1630573706446,2051
1630573706450,2051
1630573706454,2051
1630573706458,2051
1630573706462,2050
1630573706466,2050
1630573706470,2051
1630573706474,2051
1630573706478,2051
1630573706482,2052
1630573706486,2053
1630573706490,2053
1630573706494,2053
1630573706498,2053
1630573706502,2053
1630573706506,2054
1630573706510,2055
1630573706514,2058
1630573706518,2061
1630573706522,2070
1630573706526,2087
1630573706530,2115
1630573706534,2157
1630573706538,2204
1630573706542,2241
1630573706546,2250
1630573706550,2218
1630573706554,2151
1630573706558,2069
1630573706562,1999
1630573706566,1959
1630573706570,1953
1630573706574,1970
1630573706578,1995
1630573706582,2016
1630573706586,2030
1630573706590,2040
1630573706594,2048
1630573706598,2054
1630573706602,2058
1630573706606,2060
1630573706610,2061
1630573706614,2062
1630573706618,2063
1630573706622,2064
1630573706626,2064
1630573706630,2065
1630573706634,2065
1630573706638,2065
1630573706642,2065
1630573706646,2065
1630573706650,2065
1630573706654,2067
1630573706658,2068
1630573706662,2069
1630573706666,2069
1630573706670,2069
1630573706674,2069
1630573706678,2069
1630573706682,2070
1630573706686,2071
1630573706690,2072
1630573706694,2074
1630573706698,2075
1630573706702,2076
1630573706706,2076
1630573706710,2077
1630573706714,2078
1630573706718,2079
1630573706722,2081
1630573706726,2082
1630573706730,2084
1630573706734,2086
1630573706738,2087
1630573706742,2089
1630573706746,2091
1630573706750,2092
1630573706754,2093
1630573706758,2093
1630573706762,2094
1630573706766,2095
1630573706770,2095
1630573706774,2095
1630573706778,2095
1630573706782,2095
1630573706786,2094
1630573706790,2094
1630573706794,2093
1630573706798,2093
1630573706802,2092
1630573706806,2091
1630573706810,2090
1630573706814,2089
1630573706818,2088
1630573706822,2086
1630573706826,2084
1630573706830,2081
1630573706834,2078
1630573706838,2074
1630573706842,2071
1630573706846,2067
1630573706850,2064
1630573706854,2061
1630573706858,2058
1630573706862,2056
1630573706866,2054
1630573706870,2051
1630573706874,2050
1630573706878,2048
1630573706882,2047
1630573706886,2046
1630573706890,2046
1630573706894,2046
1630573706898,2045
1630573706902,2045
1630573706906,2045
1630573706910,2044
1630573706914,2044
1630573706918,2044
1630573706922,2044
1630573706926,2044
1630573706930,2044
1630573706934,2044
1630573706938,2044
1630573706942,2045
1630573706946,2045
1630573706950,2046
1630573706954,2046
1630573706958,2046
1630573706962,2046
1630573706966,2046
1630573706970,2046
1630573706974,2046
1630573706978,2046
1630573706982,2047
1630573706986,2047
1630573706990,2048
1630573706994,2048
1630573706998,2048
1630573707002,2048
1630573707006,2048
1630573707010,2048
1630573707014,2048
1630573707018,2049
1630573707022,2049
1630573707026,2049
1630573707030,2049
1630573707034,2049
1630573707038,2048
1630573707042,2048
1630573707046,2048
1630573707050,2049
1630573707054,2049
1630573707058,2049
1630573707062,2049
1630573707066,2049
1630573707070,2048
1630573707074,2048
1630573707078,2048
1630573707082,2048
1630573707086,2048
1630573707090,2048
1630573707094,2048
1630573707098,2048
1630573707102,2048
1630573707106,2048
1630573707110,2047
1630573707114,2047
1630573707118,2046
1630573707122,2046
1630573707126,2047
1630573707130,2048
1630573707134,2048
1630573707138,2048
1630573707142,2048
1630573707146,2048
1630573707150,2048
1630573707154,2047
1630573707158,2047
1630573707162,2047
1630573707166,2047
1630573707170,2047
1630573707174,2048
1630573707178,2048
1630573707182,2048
1630573707186,2048
1630573707190,2048
1630573707194,2048
1630573707198,2047
1630573707202,2047
1630573707206,2047
1630573707210,2047
1630573707214,2048
1630573707218,2048
1630573707222,2048
1630573707226,2048
1630573707230,2048
1630573707234,2048
1630573707238,2047
1630573707242,2047
1630573707246,2048
1630573707250,2048
1630573707254,2048
1630573707258,2049
1630573707262,2049
1630573707266,2048
1630573707270,2048
1630573707274,2048
1630573707278,2048
1630573707282,2048
1630573707286,2048
1630573707290,2048
1630573707294,2049
1630573707298,2049
1630573707302,2050
1630573707306,2051
1630573707310,2051
1630573707314,2052
1630573707318,2052
1630573707322,2051
1630573707326,2050
1630573707330,2050
1630573707334,2051
1630573707338,2052
1630573707342,2054
1630573707346,2054
1630573707350,2054
1630573707354,2054
1630573707358,2053
1630573707362,2052
1630573707366,2051
1630573707370,2050
1630573707374,2048
1630573707378,2048
1630573707382,2048
1630573707386,2049
1630573707390,2049
1630573707394,2048
1630573707398,2048
1630573707402,2047
1630573707406,2047
1630573707410,2047
1630573707414,2048
1630573707418,2048
1630573707422,2048
1630573707426,2048
1630573707430,2048
1630573707434,2048
1630573707438,2048
1630573707442,2048
1630573707446,2048
1630573707450,2048
1630573707454,2049
1630573707458,2050
1630573707462,2050
1630573707466,2051
1630573707470,2053
1630573707474,2056
1630573707478,2062
1630573707482,2077
1630573707486,2101
1630573707490,2138
1630573707494,2186
1630573707498,2228
1630573707502,2246
1630573707506,2227
1630573707510,2169
1630573707514,2088
1630573707518,2012
1630573707522,1961
1630573707526,1945
1630573707530,1957
1630573707534,1982
1630573707538,2007
1630573707542,2024
1630573707546,2035
1630573707550,2044
1630573707554,2050
1630573707558,2054
1630573707562,2056
1630573707566,2057
1630573707570,2058
1630573707574,2059
1630573707578,2059
1630573707582,2060
1630573707586,2060
1630573707590,2060
1630573707594,2060
1630573707598,2061
1630573707602,2061
1630573707606,2061
1630573707610,2061
1630573707614,2062
1630573707618,2063
1630573707622,2064
1630573707626,2066
1630573707630,2066
1630573707634,2067
1630573707638,2067
1630573707642,2067
1630573707646,2067
1630573707650,2068
1630573707654,2069
1630573707658,2071
1630573707662,2072
1630573707666,2073
1630573707670,2074
1630573707674,2075
1630573707678,2075
1630573707682,2077
1630573707686,2079
1630573707690,2081
1630573707694,2083
1630573707698,2084
1630573707702,2086
1630573707706,2088
1630573707710,2088
1630573707714,2089
1630573707718,2089
1630573707722,2089
1630573707726,2089
1630573707730,2089
1630573707734,2090
1630573707738,2091
1630573707742,2091
1630573707746,2091
1630573707750,2091
1630573707754,2090
1630573707758,2089
1630573707762,2087
1630573707766,2086
1630573707770,2085
1630573707774,2085
1630573707778,2083
1630573707782,2081
1630573707786,2079
1630573707790,2075
1630573707794,2071
1630573707798,2067
1630573707802,2063
1630573707806,2060
1630573707810,2057
1630573707814,2054
1630573707818,2053
1630573707822,2051
1630573707826,2049
1630573707830,2048
1630573707834,2047
1630573707838,2046
1630573707842,2044
1630573707846,2043
1630573707850,2042
1630573707854,2042
1630573707858,2042
1630573707862,2042
1630573707866,2042
1630573707870,2042
1630573707874,2042
1630573707878,2042
1630573707882,2042
1630573707886,2042
1630573707890,2042
1630573707894,2043
1630573707898,2043
1630573707902,2044
1630573707906,2044
1630573707910,2044
1630573707914,2044
1630573707918,2044
1630573707922,2044
1630573707926,2044
1630573707930,2044
1630573707934,2045
1630573707938,2045
1630573707942,2046
1630573707946,2046
1630573707950,2046
1630573707954,2046
1630573707958,2046
1630573707962,2046
1630573707966,2046
1630573707970,2046
1630573707974,2047
1630573707978,2047
1630573707982,2047
1630573707986,2047
1630573707990,2047
1630573707994,2047
1630573707998,2047
1630573708002,2047
1630573708006,2047
1630573708010,2047
1630573708014,2047
1630573708018,2047
1630573708022,2047
1630573708026,2047
1630573708030,2047
1630573708034,2047
1630573708038,2046
1630573708042,2045
1630573708046,2045
1630573708050,2045
1630573708054,2046
1630573708058,2046
1630573708062,2046
1630573708066,2046
1630573708070,2045
1630573708074,2045
1630573708078,2044
1630573708082,2043
1630573708086,2043
1630573708090,2044
1630573708094,2045
1630573708098,2046
1630573708102,2046
1630573708106,2046
1630573708110,2046
1630573708114,2045
1630573708118,2044
1630573708122,2044
1630573708126,2045
1630573708130,2045
1630573708134,2046
1630573708138,2047
1630573708142,2047
1630573708146,2047
1630573708150,2047
1630573708154,2046
1630573708158,2046
1630573708162,2045
1630573708166,2045
1630573708170,2045
1630573708174,2046
1630573708178,2047
1630573708182,2046
1630573708186,2046
1630573708190,2046
1630573708194,2046
1630573708198,2045
1630573708202,2046
1630573708206,2046
1630573708210,2046
1630573708214,2047
1630573708218,2047
1630573708222,2047
1630573708226,2047
1630573708230,2047
1630573708234,2047
1630573708238,2046
1630573708242,2046
1630573708246,2047
1630573708250,2048
1630573708254,2048
1630573708258,2048
1630573708262,2049
1630573708266,2049
1630573708270,2049
1630573708274,2049
1630573708278,2048
1630573708282,2049
1630573708286,2049
1630573708290,2050
1630573708294,2050
1630573708298,2050
1630573708302,2051
1630573708306,2051
1630573708310,2051
1630573708314,2051
1630573708318,2051
1630573708322,2051
1630573708326,2051
1630573708330,2052
1630573708334,2054
1630573708338,2055
1630573708342,2055
1630573708346,2054
1630573708350,2053
1630573708354,2052
1630573708358,2051
1630573708362,2050
1630573708366,2048
1630573708370,2048
1630573708374,2048
1630573708378,2048
1630573708382,2049
1630573708386,2049
1630573708390,2049
1630573708394,2048
1630573708398,2048
1630573708402,2047
1630573708406,2048
1630573708410,2048
1630573708414,2048
1630573708418,2049
1630573708422,2049
1630573708426,2049
1630573708430,2049
1630573708434,2049
1630573708438,2049
1630573708442,2049
1630573708446,2049
1630573708450,2050
1630573708454,2050
1630573708458,2051
1630573708462,2053
1630573708466,2055
1630573708470,2059
1630573708474,2069
1630573708478,2086
1630573708482,2116
1630573708486,2156
1630573708490,2201
1630573708494,2233
1630573708498,2237
1630573708502,2202
1630573708506,2136
1630573708510,2058
1630573708514,1992
1630573708518,1955
1630573708522,1951
1630573708526,1968
1630573708530,1994
1630573708534,2016
1630573708538,2032
1630573708542,2042
1630573708546,2049
1630573708550,2054
1630573708554,2057
1630573708558,2058
1630573708562,2058
1630573708566,2058
1630573708570,2058
1630573708574,2059
1630573708578,2060
1630573708582,2061
1630573708586,2062
1630573708590,2062
1630573708594,2062
1630573708598,2062
1630573708602,2062
1630573708606,2062
1630573708610,2062
1630573708614,2063
1630573708618,2064
1630573708622,2065
1630573708626,2066
1630573708630,2067
1630573708634,2067
1630573708638,2067
1630573708642,2068
1630573708646,2069
1630573708650,2070
1630573708654,2071
1630573708658,2073
1630573708662,2074
1630573708666,2075
1630573708670,2076
1630573708674,2077
1630573708678,2078
1630573708682,2079
1630573708686,2081
1630573708690,2082
1630573708694,2084
1630573708698,2086
1630573708702,2087
1630573708706,2088
1630573708710,2089
1630573708714,2090
1630573708718,2090
1630573708722,2090
1630573708726,2090
1630573708730,2090
1630573708734,2090
1630573708738,2090
1630573708742,2090
1630573708746,2089
1630573708750,2089
1630573708754,2088
1630573708758,2086
1630573708762,2085
1630573708766,2084
1630573708770,2083
1630573708774,2081
1630573708778,2079
1630573708782,2076
1630573708786,2073
1630573708790,2069
1630573708794,2066
1630573708798,2063
1630573708802,2060
1630573708806,2057
1630573708810,2054
1630573708814,2052
1630573708818,2050
1630573708822,2048
1630573708826,2048
1630573708830,2046
1630573708834,2045
1630573708838,2044
1630573708842,2043
1630573708846,2043
1630573708850,2042
1630573708854,2042
1630573708858,2042
1630573708862,2043
1630573708866,2043
1630573708870,2043
1630573708874,2043
1630573708878,2043
1630573708882,2043
1630573708886,2043
1630573708890,2043
1630573708894,2044
1630573708898,2045
1630573708902,2045
1630573708906,2045
1630573708910,2046
1630573708914,2046
1630573708918,2046
1630573708922,2046
1630573708926,2046
1630573708930,2046
1630573708934,2047
1630573708938,2047
1630573708942,2048
1630573708946,2048
1630573708950,2048
1630573708954,2048
1630573708958,2048
1630573708962,2048
1630573708966,2048
1630573708970,2048
1630573708974,2048
1630573708978,2048
1630573708982,2048
1630573708986,2048
1630573708990,2049
1630573708994,2049
1630573708998,2048
1630573709002,2048
1630573709006,2048
1630573709010,2048
1630573709014,2048
1630573709018,2048
1630573709022,2048
1630573709026,2048
1630573709030,2048
1630573709034,2048
1630573709038,2048
1630573709042,2048
1630573709046,2048
1630573709050,2048
1630573709054,2048
1630573709058,2048
1630573709062,2048
1630573709066,2048
1630573709070,2048
1630573709074,2048
1630573709078,2047
1630573709082,2047
1630573709086,2046
1630573709090,2046
1630573709094,2046
1630573709098,2046
1630573709102,2047
1630573709106,2047
1630573709110,2047
1630573709114,2047
1630573709118,2046
1630573709122,2046
1630573709126,2046
1630573709130,2046
1630573709134,2047
1630573709138,2047
1630573709142,2048
1630573709146,2047
1630573709150,2047
1630573709154,2046
1630573709158,2046
1630573709162,2046
1630573709166,2047
1630573709170,2047
1630573709174,2048
1630573709178,2048
1630573709182,2048
1630573709186,2047
1630573709190,2047
1630573709194,2047
1630573709198,2047
1630573709202,2046
1630573709206,2047
1630573709210,2047
1630573709214,2047
1630573709218,2048
1630573709222,2048
1630573709226,2047
1630573709230,2047
1630573709234,2047
1630573709238,2047
1630573709242,2047
1630573709246,2047
1630573709250,2047
1630573709254,2047
1630573709258,2047
1630573709262,2048
1630573709266,2048
1630573709270,2047
1630573709274,2047
1630573709278,2046
1630573709282,2047
1630573709286,2047
1630573709290,2047
1630573709294,2048
1630573709298,2048
1630573709302,2048
1630573709306,2048
1630573709310,2048
1630573709314,2048
1630573709318,2048
1630573709322,2048
1630573709326,2048
1630573709330,2048
1630573709334,2048
1630573709338,2049
1630573709342,2049
1630573709346,2048
1630573709350,2048
1630573709354,2048
1630573709358,2048
1630573709362,2050
1630573709366,2051
1630573709370,2052
1630573709374,2052
1630573709378,2051
1630573709382,2050
1630573709386,2049
1630573709390,2048
1630573709394,2048
1630573709398,2048
1630573709402,2047
1630573709406,2047
1630573709410,2047
1630573709414,2047
1630573709418,2047
1630573709422,2047
1630573709426,2047
1630573709430,2046
1630573709434,2046
1630573709438,2046
1630573709442,2046
1630573709446,2046
1630573709450,2047
1630573709454,2047
1630573709458,2048
1630573709462,2048
1630573709466,2048
1630573709470,2049
1630573709474,2049
1630573709478,2048
1630573709482,2048
1630573709486,2048
1630573709490,2048
1630573709494,2051
1630573709498,2055
1630573709502,2064
1630573709506,2082
1630573709510,2111
1630573709514,2150
1630573709518,2195
1630573709522,2228
1630573709526,2235
1630573709530,2206
1630573709534,2143
1630573709538,2067
1630573709542,2001
1630573709546,1961
1630573709550,1953
1630573709554,1968
1630573709558,1992
1630573709562,2014
1630573709566,2029
1630573709570,2039
1630573709574,2047
1630573709578,2051
1630573709582,2054
1630573709586,2055
1630573709590,2056
1630573709594,2056
1630573709598,2056
1630573709602,2056
1630573709606,2056
1630573709610,2057
1630573709614,2057
1630573709618,2058
1630573709622,2059
1630573709626,2060
1630573709630,2060
1630573709634,2061
1630573709638,2061
1630573709642,2062
1630573709646,2063
1630573709650,2063
1630573709654,2064
1630573709658,2064
1630573709662,2065
1630573709666,2066
1630573709670,2067
1630573709674,2067
1630573709678,2068
1630573709682,2069
1630573709686,2069
1630573709690,2070
1630573709694,2072
1630573709698,2073
1630573709702,2074
1630573709706,2076
1630573709710,2077
1630573709714,2078
1630573709718,2079
1630573709722,2080
1630573709726,2081
1630573709730,2082
1630573709734,2084
1630573709738,2085
1630573709742,2086
1630573709746,2087
1630573709750,2087
1630573709754,2087
1630573709758,2086
1630573709762,2086
1630573709766,2086
1630573709770,2085
1630573709774,2085
1630573709778,2084
1630573709782,2083
1630573709786,2083
1630573709790,2082
1630573709794,2081
1630573709798,2080
1630573709802,2078
1630573709806,2076
1630573709810,2073
1630573709814,2070
1630573709818,2067
1630573709822,2064
1630573709826,2061
1630573709830,2058
1630573709834,2055
1630573709838,2052
1630573709842,2050
1630573709846,2048
1630573709850,2047
1630573709854,2045
1630573709858,2044
1630573709862,2044
1630573709866,2043
1630573709870,2043
1630573709874,2042
1630573709878,2041
1630573709882,2040
1630573709886,2040
1630573709890,2040
1630573709894,2040
1630573709898,2041
1630573709902,2041
1630573709906,2041
1630573709910,2040
1630573709914,2040
1630573709918,2040
1630573709922,2040
1630573709926,2041
1630573709930,2041
1630573709934,2042
1630573709938,2042
1630573709942,2043
1630573709946,2044
1630573709950,2044
1630573709954,2044
1630573709958,2044
1630573709962,2043
1630573709966,2043
1630573709970,2044
1630573709974,2045
1630573709978,2045
1630573709982,2046
1630573709986,2046
1630573709990,2046
1630573709994,2046
1630573709998,2045
1630573710002,2045
1630573710006,2046
1630573710010,2046
1630573710014,2047
1630573710018,2048
1630573710022,2048
1630573710026,2048
1630573710030,2048
1630573710034,2048
1630573710038,2047
1630573710042,2047
1630573710046,2046
1630573710050,2046
1630573710054,2046
1630573710058,2046
1630573710062,2046
1630573710066,2046
1630573710070,2046
1630573710074,2047
1630573710078,2046
1630573710082,2046
1630573710086,2046
1630573710090,2046
1630573710094,2046
1630573710098,2046
1630573710102,2046
1630573710106,2046
1630573710110,2046
1630573710114,2045
1630573710118,2045
1630573710122,2045
1630573710126,2045
1630573710130,2046
1630573710134,2046
1630573710138,2047
1630573710142,2048
1630573710146,2048
1630573710150,2048
1630573710154,2047
1630573710158,2046
1630573710162,2046
1630573710166,2046
1630573710170,2046
1630573710174,2047
1630573710178,2048
1630573710182,2048
1630573710186,2048
1630573710190,2048
1630573710194,2048
1630573710198,2047
1630573710202,2047
1630573710206,2048
1630573710210,2048
1630573710214,2048
1630573710218,2048
1630573710222,2048
1630573710226,2048
1630573710230,2047
1630573710234,2047
1630573710238,2047
1630573710242,2047
1630573710246,2048
1630573710250,2048
1630573710254,2048
1630573710258,2048
1630573710262,2048
1630573710266,2048
1630573710270,2048
1630573710274,2048
1630573710278,2048
1630573710282,2048
1630573710286,2048
1630573710290,2048
1630573710294,2049
1630573710298,2049
1630573710302,2049
1630573710306,2049
1630573710310,2048
1630573710314,2048
1630573710318,2048
1630573710322,2048
1630573710326,2048
1630573710330,2048
1630573710334,2049
1630573710338,2050
1630573710342,2051
1630573710346,2051
1630573710350,2051
1630573710354,2050
1630573710358,2049
1630573710362,2049
1630573710366,2049
1630573710370,2049
1630573710374,2050
1630573710378,2050
1630573710382,2051
1630573710386,2052
1630573710390,2053
1630573710394,2054
1630573710398,2053
1630573710402,2052
1630573710406,2050
1630573710410,2049
1630573710414,2049
1630573710418,2050
1630573710422,2050
1630573710426,2050
1630573710430,2049
1630573710434,2048
1630573710438,2048
1630573710442,2047
1630573710446,2047
1630573710450,2048
1630573710454,2048
1630573710458,2049
1630573710462,2049
1630573710466,2049
1630573710470,2048
1630573710474,2048
1630573710478,2048
1630573710482,2048
1630573710486,2049
1630573710490,2049
1630573710494,2050
1630573710498,2051
1630573710502,2051
1630573710506,2051
1630573710510,2052
1630573710514,2052
1630573710518,2053
1630573710522,2055
1630573710526,2062
1630573710530,2078
1630573710534,2103
1630573710538,2142
1630573710542,2190
1630573710546,2231
1630573710550,2248
1630573710554,2227
1630573710558,2169
1630573710562,2089
1630573710566,2016
1630573710570,1967
1630573710574,1952
1630573710578,1964
1630573710582,1988
1630573710586,2011
1630573710590,2026
1630573710594,2035
1630573710598,2043
1630573710602,2049
1630573710606,2053
1630573710610,2056
1630573710614,2058
1630573710618,2059
1630573710622,2060
1630573710626,2060
1630573710630,2060
1630573710634,2060
1630573710638,2060
1630573710642,2060
1630573710646,2061
1630573710650,2062
1630573710654,2063
1630573710658,2063
1630573710662,2064
1630573710666,2064
1630573710670,2064
1630573710674,2064
1630573710678,2064
1630573710682,2065
1630573710686,2066
1630573710690,2067
1630573710694,2068
1630573710698,2068
1630573710702,2069
1630573710706,2069
1630573710710,2070
1630573710714,2071
1630573710718,2073
1630573710722,2073
1630573710726,2074
1630573710730,2075
1630573710734,2077
1630573710738,2078
1630573710742,2080
1630573710746,2082
1630573710750,2084
1630573710754,2085
1630573710758,2086
1630573710762,2087
1630573710766,2088
1630573710770,2088
1630573710774,2089
1630573710778,2089
1630573710782,2088
1630573710786,2088
1630573710790,2088
1630573710794,2088
1630573710798,2087
1630573710802,2087
1630573710806,2087
1630573710810,2086
1630573710814,2086
1630573710818,2084
1630573710822,2083
1630573710826,2081
1630573710830,2079
1630573710834,2076
1630573710838,2072
1630573710842,2068
1630573710846,2065
1630573710850,2062
1630573710854,2059
1630573710858,2057
1630573710862,2054
1630573710866,2052
1630573710870,2049
1630573710874,2047
1630573710878,2045
1630573710882,2044
1630573710886,2043
1630573710890,2043
1630573710894,2043
1630573710898,2043
1630573710902,2042
1630573710906,2041
1630573710910,2040
1630573710914,2039
1630573710918,2038
1630573710922,2039
1630573710926,2039
1630573710930,2040
1630573710934,2041
1630573710938,2040
1630573710942,2040
1630573710946,2039
1630573710950,2039
1630573710954,2040
1630573710958,2040
1630573710962,2041
1630573710966,2042
1630573710970,2042
1630573710974,2043
1630573710978,2043
1630573710982,2043
1630573710986,2043
1630573710990,2043
1630573710994,2044
1630573710998,2043
1630573711002,2044
1630573711006,2044
1630573711010,2044
1630573711014,2045
1630573711018,2045
1630573711022,2045
1630573711026,2045
1630573711030,2045
1630573711034,2045
1630573711038,2044
1630573711042,2045
1630573711046,2045
1630573711050,2045
1630573711054,2046
1630573711058,2046
1630573711062,2045
1630573711066,2045
1630573711070,2045
1630573711074,2045
1630573711078,2045
1630573711082,2045
1630573711086,2045
1630573711090,2045
1630573711094,2044
1630573711098,2044
1630573711102,2044
1630573711106,2044
1630573711110,2043
1630573711114,2043
1630573711118,2043
1630573711122,2043
1630573711126,2043
1630573711130,2043
1630573711134,2043
1630573711138,2043
1630573711142,2044
1630573711146,2044
1630573711150,2044
1630573711154,2045
1630573711158,2044
1630573711162,2043
1630573711166,2043
1630573711170,2043
1630573711174,2044
1630573711178,2045
1630573711182,2046
1630573711186,2046
1630573711190,2046
1630573711194,2046
1630573711198,2045
1630573711202,2045
1630573711206,2045
1630573711210,2046
1630573711214,2047
1630573711218,2047
1630573711222,2048
1630573711226,2048
1630573711230,2047
1630573711234,2047
1630573711238,2047
1630573711242,2047
1630573711246,2047
1630573711250,2048
1630573711254,2048
1630573711258,2048
1630573711262,2048
1630573711266,2048
1630573711270,2048
1630573711274,2048
1630573711278,2048
1630573711282,2048
1630573711286,2048
1630573711290,2048
1630573711294,2048
1630573711298,2049
1630573711302,2049
1630573711306,2049
1630573711310,2049
1630573711314,2049
1630573711318,2049
1630573711322,2049
1630573711326,2049
1630573711330,2049
1630573711334,2050
1630573711338,2051
1630573711342,2052
1630573711346,2052
1630573711350,2052
1630573711354,2051
1630573711358,2050
1630573711362,2051
1630573711366,2052
1630573711370,2053
1630573711374,2054
1630573711378,2055
1630573711382,2054
1630573711386,2054
1630573711390,2053
1630573711394,2051
1630573711398,2049
1630573711402,2048
1630573711406,2047
1630573711410,2047
1630573711414,2048
1630573711418,2048
1630573711422,2048
1630573711426,2048
1630573711430,2048
1630573711434,2048
1630573711438,2048
1630573711442,2047
1630573711446,2047
1630573711450,2047
1630573711454,2048
1630573711458,2048
1630573711462,2049
1630573711466,2049
1630573711470,2049
1630573711474,2049
1630573711478,2049
1630573711482,2049
1630573711486,2050
1630573711490,2051
1630573711494,2052
1630573711498,2053
1630573711502,2054
1630573711506,2060
1630573711510,2072
1630573711514,2093
1630573711518,2126
1630573711522,2170
1630573711526,2216
1630573711530,2245
1630573711534,2241
1630573711538,2197
1630573711542,2122
1630573711546,2041
1630573711550,1978
1630573711554,1948
1630573711558,1951
1630573711562,1972
1630573711566,1998
1630573711570,2018
1630573711574,2030
1630573711578,2039
1630573711582,2047
1630573711586,2052
1630573711590,2055
1630573711594,2057
1630573711598,2057
1630573711602,2057
1630573711606,2057
1630573711610,2058
1630573711614,2059
1630573711618,2060
1630573711622,2061
1630573711626,2061
1630573711630,2061
1630573711634,2061
1630573711638,2062
1630573711642,2062
1630573711646,2063
1630573711650,2064
1630573711654,2065
1630573711658,2065
1630573711662,2065
1630573711666,2066
1630573711670,2066
1630573711674,2067
1630573711678,2068
1630573711682,2069
1630573711686,2070
1630573711690,2071
1630573711694,2072
1630573711698,2074
1630573711702,2075
1630573711706,2076
1630573711710,2078
1630573711714,2079
1630573711718,2080
1630573711722,2081
1630573711726,2083
1630573711730,2084
1630573711734,2086
1630573711738,2087
1630573711742,2088
1630573711746,2090
1630573711750,2090
1630573711754,2090
1630573711758,2090
1630573711762,2090
1630573711766,2089
1630573711770,2089
1630573711774,2090
1630573711778,2089
1630573711782,2089
1630573711786,2088
1630573711790,2087
1630573711794,2086
1630573711798,2085
1630573711802,2084
1630573711806,2082
1630573711810,2079
1630573711814,2077
1630573711818,2074
1630573711822,2071
1630573711826,2067
1630573711830,2064
1630573711834,2060
1630573711838,2057
1630573711842,2053
1630573711846,2051
1630573711850,2049
1630573711854,2048
1630573711858,2047
1630573711862,2045
1630573711866,2044
1630573711870,2043
1630573711874,2041
1630573711878,2040
1630573711882,2039
1630573711886,2039
1630573711890,2039
1630573711894,2040
1630573711898,2040
1630573711902,2041
1630573711906,2040
1630573711910,2040
1630573711914,2040
1630573711918,2039
1630573711922,2039
1630573711926,2040
1630573711930,2040
1630573711934,2041
1630573711938,2041
1630573711942,2041
1630573711946,2041
1630573711950,2041
1630573711954,2042
1630573711958,2042
1630573711962,2042
1630573711966,2043
1630573711970,2043
1630573711974,2043
1630573711978,2043
1630573711982,2044
1630573711986,2044
1630573711990,2044
1630573711994,2044
1630573711998,2044
1630573712002,2043
1630573712006,2043
1630573712010,2043
1630573712014,2044
1630573712018,2045
1630573712022,2045
1630573712026,2046
1630573712030,2046
1630573712034,2046
1630573712038,2045
1630573712042,2045
1630573712046,2044
1630573712050,2044
1630573712054,2044
1630573712058,2044
1630573712062,2045
1630573712066,2045
1630573712070,2045
1630573712074,2045
1630573712078,2044
1630573712082,2044
1630573712086,2043
1630573712090,2043
1630573712094,2044
1630573712098,2044
1630573712102,2044
1630573712106,2044
1630573712110,2044
1630573712114,2043
1630573712118,2042
1630573712122,2042
1630573712126,2042
1630573712130,2042
1630573712134,2043
1630573712138,2043
1630573712142,2043
1630573712146,2044
1630573712150,2044
1630573712154,2044
1630573712158,2044
1630573712162,2043
1630573712166,2043
1630573712170,2043
1630573712174,2043
1630573712178,2044
1630573712182,2044
1630573712186,2044
1630573712190,2044
1630573712194,2043
1630573712198,2043
1630573712202,2043
1630573712206,2043
1630573712210,2043
1630573712214,2043
1630573712218,2044
1630573712222,2044
1630573712226,2044
1630573712230,2044
1630573712234,2044
1630573712238,2043
1630573712242,2043
1630573712246,2043
1630573712250,2043
1630573712254,2043
1630573712258,2043
1630573712262,2044
1630573712266,2044
1630573712270,2043
1630573712274,2043
1630573712278,2043
1630573712282,2043
1630573712286,2044
1630573712290,2044
1630573712294,2044
1630573712298,2044
1630573712302,2044
1630573712306,2044
1630573712310,2044
1630573712314,2045
1630573712318,2046
1630573712322,2046
1630573712326,2046
1630573712330,2047
1630573712334,2047
1630573712338,2048
1630573712342,2048
1630573712346,2047
1630573712350,2047
1630573712354,2047
1630573712358,2047
1630573712362,2048
1630573712366,2048
1630573712370,2049
1630573712374,2049
1630573712378,2048
1630573712382,2048
1630573712386,2047
1630573712390,2046
1630573712394,2045
1630573712398,2044
1630573712402,2044
1630573712406,2043
1630573712410,2044
1630573712414,2044
1630573712418,2045
1630573712422,2044
1630573712426,2044
1630573712430,2044
1630573712434,2043
1630573712438,2043
1630573712442,2043
1630573712446,2043
1630573712450,2043
1630573712454,2044
1630573712458,2044
1630573712462,2044
1630573712466,2045
1630573712470,2045
1630573712474,2045
1630573712478,2045
1630573712482,2045
1630573712486,2046
1630573712490,2046
1630573712494,2048
1630573712498,2050
1630573712502,2057
1630573712506,2072
1630573712510,2097
1630573712514,2133
1630573712518,2178
1630573712522,2219
1630573712526,2239
1630573712530,2223
1630573712534,2170
1630573712538,2093
1630573712542,2017
1630573712546,1964
1630573712550,1944
1630573712554,1953
1630573712558,1976
1630573712562,2001
1630573712566,2019
1630573712570,2030
1630573712574,2038
1630573712578,2045
1630573712582,2048
1630573712586,2050
1630573712590,2051
1630573712594,2052
1630573712598,2052
1630573712602,2053
1630573712606,2053
1630573712610,2054
1630573712614,2055
1630573712618,2055
1630573712622,2056
1630573712626,2056
1630573712630,2057
1630573712634,2057
1630573712638,2057
1630573712642,2057
1630573712646,2058
1630573712650,2058
1630573712654,2059
1630573712658,2060
1630573712662,2061
1630573712666,2062
1630573712670,2063
1630573712674,2063
1630573712678,2063
1630573712682,2063
1630573712686,2064
1630573712690,2066
1630573712694,2067
1630573712698,2069
1630573712702,2070
1630573712706,2071
1630573712710,2072
1630573712714,2073
1630573712718,2074
1630573712722,2075
1630573712726,2077
1630573712730,2078
1630573712734,2080
1630573712738,2081
1630573712742,2083
1630573712746,2084
1630573712750,2084
1630573712754,2084
1630573712758,2083
1630573712762,2082
1630573712766,2082
1630573712770,2081
1630573712774,2081
1630573712778,2081
1630573712782,2081
1630573712786,2081
1630573712790,2080
1630573712794,2079
1630573712798,2078
1630573712802,2076
1630573712806,2073
1630573712810,2070
1630573712814,2067
1630573712818,2064
1630573712822,2061
1630573712826,2058
1630573712830,2055
1630573712834,2052
1630573712838,2049
1630573712842,2047
1630573712846,2044
1630573712850,2042
1630573712854,2041
1630573712858,2041
1630573712862,2040
1630573712866,2039
1630573712870,2038
1630573712874,2037
1630573712878,2036
1630573712882,2036
1630573712886,2036
1630573712890,2035
1630573712894,2036
1630573712898,2036
1630573712902,2036
1630573712906,2036
1630573712910,2036
1630573712914,2036
1630573712918,2037
1630573712922,2037
1630573712926,2037
1630573712930,2036
1630573712934,2037
1630573712938,2037
1630573712942,2038
1630573712946,2038
1630573712950,2038
1630573712954,2038
1630573712958,2037
1630573712962,2037
1630573712966,2038
1630573712970,2038
1630573712974,2038
1630573712978,2039
1630573712982,2039
1630573712986,2039
1630573712990,2040
1630573712994,2040
1630573712998,2040
1630573713002,2040
1630573713006,2040
1630573713010,2040
1630573713014,2040
1630573713018,2041
1630573713022,2041
1630573713026,2041
1630573713030,2041
1630573713034,2041
1630573713038,2041
1630573713042,2041
1630573713046,2041
1630573713050,2041
1630573713054,2041
1630573713058,2040
1630573713062,2040
1630573713066,2040
1630573713070,2040
1630573713074,2040
1630573713078,2039
1630573713082,2039
1630573713086,2038
1630573713090,2038
1630573713094,2038
1630573713098,2039
1630573713102,2040
1630573713106,2040
1630573713110,2039
1630573713114,2039
1630573713118,2038
1630573713122,2037
1630573713126,2037
1630573713130,2037
1630573713134,2038
1630573713138,2038
1630573713142,2039
1630573713146,2039
1630573713150,2039
1630573713154,2039
1630573713158,2039
1630573713162,2038
1630573713166,2038
1630573713170,2038
1630573713174,2038
1630573713178,2040
1630573713182,2040
1630573713186,2041
1630573713190,2041
1630573713194,2041
1630573713198,2040
1630573713202,2040
1630573713206,2040
1630573713210,2040
1630573713214,2040
1630573713218,2041
1630573713222,2041
1630573713226,2041
1630573713230,2040
1630573713234,2040
1630573713238,2040
1630573713242,2040
1630573713246,2040
1630573713250,2040
1630573713254,2041
1630573713258,2041
1630573713262,2041
1630573713266,2041
1630573713270,2041
1630573713274,2041
1630573713278,2041
1630573713282,2041
1630573713286,2041
1630573713290,2040
1630573713294,2041
1630573713298,2041
1630573713302,2042
1630573713306,2042
1630573713310,2042
1630573713314,2042
1630573713318,2042
1630573713322,2042
1630573713326,2042
1630573713330,2042
1630573713334,2042
1630573713338,2043
1630573713342,2043
1630573713346,2043
1630573713350,2043
1630573713354,2043
1630573713358,2043
1630573713362,2044
1630573713366,2044
1630573713370,2045
1630573713374,2044
1630573713378,2044
1630573713382,2044
1630573713386,2045
1630573713390,2045
1630573713394,2046
1630573713398,2047
1630573713402,2046
1630573713406,2045
1630573713410,2044
1630573713414,2043
1630573713418,2043
1630573713422,2043
1630573713426,2043
1630573713430,2042
1630573713434,2042
1630573713438,2041
1630573713442,2041
1630573713446,2042
1630573713450,2042
1630573713454,2042
1630573713458,2042
1630573713462,2042
1630573713466,2042
1630573713470,2042
1630573713474,2042
1630573713478,2043
1630573713482,2043
1630573713486,2042
1630573713490,2042
1630573713494,2043
1630573713498,2044
1630573713502,2045
1630573713506,2046
1630573713510,2046
1630573713514,2045
1630573713518,2045
1630573713522,2046
1630573713526,2048
1630573713530,2054
1630573713534,2069
1630573713538,2093
1630573713542,2129
1630573713546,2175
1630573713550,2217
1630573713554,2238
1630573713558,2223
1630573713562,2172
1630573713566,2096
1630573713570,2022
1630573713574,1968
1630573713578,1947
1630573713582,1955
1630573713586,1979
1630573713590,2004
1630573713594,2022
1630573713598,2033
1630573713602,2040
1630573713606,2046
1630573713610,2048
1630573713614,2050
1630573713618,2051
1630573713622,2052
1630573713626,2052
1630573713630,2052
1630573713634,2053
1630573713638,2053
1630573713642,2054
1630573713646,2054
1630573713650,2054
1630573713654,2055
1630573713658,2055
1630573713662,2056
1630573713666,2057
1630573713670,2058
1630573713674,2059
1630573713678,2059
1630573713682,2059
1630573713686,2060
1630573713690,2060
1630573713694,2061
1630573713698,2062
1630573713702,2063
1630573713706,2065
1630573713710,2066
1630573713714,2067
1630573713718,2068
1630573713722,2068
1630573713726,2069
1630573713730,2070
1630573713734,2072
1630573713738,2073
1630573713742,2075
1630573713746,2077
1630573713750,2078
1630573713754,2079
1630573713758,2080
1630573713762,2080
1630573713766,2081
1630573713770,2082
1630573713774,2083
1630573713778,2083
1630573713782,2084
1630573713786,2084
1630573713790,2084
1630573713794,2084
1630573713798,2083
1630573713802,2082
1630573713806,2081
1630573713810,2081
1630573713814,2081
1630573713818,2081
1630573713822,2080
1630573713826,2079
1630573713830,2077
1630573713834,2075
1630573713838,2072
1630573713842,2069
1630573713846,2066
1630573713850,2063
1630573713854,2060
1630573713858,2057
1630573713862,2054
1630573713866,2052
1630573713870,2049
1630573713874,2048
1630573713878,2046
1630573713882,2044
1630573713886,2043
1630573713890,2041
1630573713894,2041
1630573713898,2040
1630573713902,2040
1630573713906,2040
1630573713910,2039
1630573713914,2039
1630573713918,2039
1630573713922,2038
1630573713926,2038
1630573713930,2038
1630573713934,2039
1630573713938,2039
1630573713942,2039
1630573713946,2040
1630573713950,2040
1630573713954,2040
1630573713958,2039
1630573713962,2039
1630573713966,2039
1630573713970,2039
1630573713974,2040
1630573713978,2041
1630573713982,2042
1630573713986,2043
1630573713990,2043
1630573713994,2043
1630573713998,2043
1630573714002,2042
1630573714006,2043
1630573714010,2043
1630573714014,2043
1630573714018,2044
1630573714022,2044
1630573714026,2044
1630573714030,2044
1630573714034,2044
1630573714038,2044
1630573714042,2044
1630573714046,2044
1630573714050,2044
1630573714054,2045
1630573714058,2045
1630573714062,2045
1630573714066,2046
1630573714070,2046
1630573714074,2046
1630573714078,2046
1630573714082,2045
1630573714086,2045
1630573714090,2045
1630573714094,2045
1630573714098,2045
1630573714102,2045
1630573714106,2045
1630573714110,2045
1630573714114,2045
1630573714118,2044
1630573714122,2043
1630573714126,2043
1630573714130,2044
1630573714134,2044
1630573714138,2045
1630573714142,2045
1630573714146,2045
1630573714150,2045
1630573714154,2045
1630573714158,2044
1630573714162,2043
1630573714166,2043
1630573714170,2043
1630573714174,2044
1630573714178,2045
1630573714182,2046
1630573714186,2046
1630573714190,2046
1630573714194,2046
1630573714198,2046
1630573714202,2045
1630573714206,2045
1630573714210,2045
1630573714214,2046
1630573714218,2046
1630573714222,2047
1630573714226,2047
1630573714230,2046
1630573714234,2046
1630573714238,2046
1630573714242,2046
1630573714246,2046
1630573714250,2046
1630573714254,2047
1630573714258,2047
1630573714262,2048
1630573714266,2048
1630573714270,2048
1630573714274,2048
1630573714278,2048
1630573714282,2048
1630573714286,2047
1630573714290,2047
1630573714294,2048
1630573714298,2048
1630573714302,2048
1630573714306,2049
1630573714310,2049
1630573714314,2049
1630573714318,2048
1630573714322,2048
1630573714326,2048
1630573714330,2048
1630573714334,2048
1630573714338,2048
1630573714342,2049
1630573714346,2049
1630573714350,2049
1630573714354,2049
1630573714358,2049
1630573714362,2048
1630573714366,2048
1630573714370,2048
1630573714374,2049
1630573714378,2051
1630573714382,2052
1630573714386,2052
1630573714390,2052
1630573714394,2051
1630573714398,2050
1630573714402,2050
1630573714406,2051
1630573714410,2051
1630573714414,2051
1630573714418,2051
1630573714422,2052
1630573714426,2053
1630573714430,2054
1630573714434,2055
1630573714438,2055
1630573714442,2055
1630573714446,2054
1630573714450,2053
1630573714454,2052
1630573714458,2052
1630573714462,2052
1630573714466,2052
1630573714470,2051
1630573714474,2051
1630573714478,2051
1630573714482,2050
1630573714486,2050
1630573714490,2050
1630573714494,2050
1630573714498,2050
1630573714502,2050
1630573714506,2051
1630573714510,2051
1630573714514,2051
1630573714518,2051
1630573714522,2051
1630573714526,2051
1630573714530,2051
1630573714534,2052
1630573714538,2052
1630573714542,2053
1630573714546,2053
1630573714550,2053
1630573714554,2054
1630573714558,2055
1630573714562,2056
1630573714566,2060
1630573714570,2070
1630573714574,2089
1630573714578,2119
1630573714582,2162
1630573714586,2210
1630573714590,2244
1630573714594,2248
1630573714598,2213
1630573714602,2143
1630573714606,2062
1630573714610,1995
1630573714614,1959
1630573714618,1956
1630573714622,1975
1630573714626,2000
1630573714630,2020
1630573714634,2033
1630573714638,2041
1630573714642,2048
1630573714646,2054
1630573714650,2057
1630573714654,2059
1630573714658,2061
1630573714662,2061
1630573714666,2061
1630573714670,2061
1630573714674,2061
1630573714678,2061
1630573714682,2062
1630573714686,2062
1630573714690,2063
1630573714694,2063
1630573714698,2064
1630573714702,2064
1630573714706,2065
1630573714710,2065
1630573714714,2066
1630573714718,2067
1630573714722,2067
1630573714726,2068
1630573714730,2069
1630573714734,2069
1630573714738,2070
1630573714742,2071
1630573714746,2072
1630573714750,2073
1630573714754,2074
1630573714758,2075
1630573714762,2076
1630573714766,2077
1630573714770,2078
1630573714774,2080
1630573714778,2082
1630573714782,2083
1630573714786,2085
1630573714790,2086
1630573714794,2087
1630573714798,2088
1630573714802,2089
1630573714806,2090
1630573714810,2091
1630573714814,2092
1630573714818,2093
1630573714822,2093
1630573714826,2092
1630573714830,2092
1630573714834,2091
1630573714838,2091
1630573714842,2090
1630573714846,2090
1630573714850,2089
1630573714854,2089
1630573714858,2088
1630573714862,2088
1630573714866,2086
1630573714870,2084
1630573714874,2082
1630573714878,2079
1630573714882,2076
1630573714886,2072
1630573714890,2069
1630573714894,2066
1630573714898,2063
1630573714902,2060
1630573714906,2058
1630573714910,2055
1630573714914,2052
1630573714918,2049
1630573714922,2048
1630573714926,2046
1630573714930,2045
1630573714934,2044
1630573714938,2044
1630573714942,2044
1630573714946,2044
1630573714950,2043
1630573714954,2042
1630573714958,2042
1630573714962,2042
1630573714966,2042
1630573714970,2042
1630573714974,2042
1630573714978,2042
1630573714982,2042
1630573714986,2042
1630573714990,2043
1630573714994,2044
1630573714998,2044
1630573715002,2045
1630573715006,2045
1630573715010,2044
1630573715014,2044
1630573715018,2044
1630573715022,2045
1630573715026,2045
1630573715030,2046
1630573715034,2046
1630573715038,2046
1630573715042,2045
1630573715046,2046
1630573715050,2046
1630573715054,2046
1630573715058,2047
1630573715062,2047
1630573715066,2047
1630573715070,2047
1630573715074,2047
1630573715078,2047
1630573715082,2047
1630573715086,2047
1630573715090,2048
1630573715094,2048
1630573715098,2048
1630573715102,2048
1630573715106,2048
1630573715110,2048
1630573715114,2047
1630573715118,2046
1630573715122,2046
1630573715126,2046
1630573715130,2046
1630573715134,2046
1630573715138,2046
1630573715142,2046
1630573715146,2046
1630573715150,2047
1630573715154,2046
1630573715158,2046
1630573715162,2046
1630573715166,2045
1630573715170,2045
1630573715174,2045
1630573715178,2045
1630573715182,2045
1630573715186,2045
1630573715190,2044
1630573715194,2045
1630573715198,2044
1630573715202,2044
1630573715206,2044
1630573715210,2044
1630573715214,2044
1630573715218,2044
1630573715222,2043
1630573715226,2043
1630573715230,2043
1630573715234,2044
1630573715238,2044
1630573715242,2044
1630573715246,2044
1630573715250,2044
1630573715254,2044
1630573715258,2044
1630573715262,2044
1630573715266,2045
1630573715270,2045
1630573715274,2045
1630573715278,2044
1630573715282,2044
1630573715286,2045
1630573715290,2045
1630573715294,2045
1630573715298,2046
1630573715302,2046
1630573715306,2046
1630573715310,2046
1630573715314,2046
1630573715318,2045
1630573715322,2045
1630573715326,2045
1630573715330,2045
1630573715334,2045
1630573715338,2046
1630573715342,2046
1630573715346,2046
1630573715350,2046
1630573715354,2046
1630573715358,2046
1630573715362,2047
1630573715366,2048
1630573715370,2048
1630573715374,2048
1630573715378,2048
1630573715382,2048
1630573715386,2049
1630573715390,2049
1630573715394,2048
1630573715398,2048
1630573715402,2048
1630573715406,2049
1630573715410,2050
1630573715414,2051
1630573715418,2052
1630573715422,2052
1630573715426,2051
1630573715430,2050
1630573715434,2048
1630573715438,2048
1630573715442,2046
1630573715446,2046
1630573715450,2046
1630573715454,2046
1630573715458,2046
1630573715462,2047
1630573715466,2046
1630573715470,2046
1630573715474,2046
1630573715478,2046
1630573715482,2046
1630573715486,2045
1630573715490,2045
1630573715494,2045
1630573715498,2046
1630573715502,2046
1630573715506,2047
1630573715510,2047
1630573715514,2048
1630573715518,2048
1630573715522,2048
1630573715526,2048
1630573715530,2048
1630573715534,2048
1630573715538,2049
1630573715542,2051
1630573715546,2055
1630573715550,2063
1630573715554,2080
1630573715558,2106
1630573715562,2146
1630573715566,2193
1630573715570,2232
1630573715574,2246
1630573715578,2221
1630573715582,2159
1630573715586,2077
1630573715590,2002
1630573715594,1955
1630573715598,1943
1630573715602,1957
1630573715606,1983
1630573715610,2007
1630573715614,2023
1630573715618,2034
1630573715622,2043
1630573715626,2048
1630573715630,2052
1630573715634,2055
1630573715638,2056
1630573715642,2056
1630573715646,2057
1630573715650,2057
1630573715654,2057
1630573715658,2058
1630573715662,2059
1630573715666,2060
1630573715670,2060
1630573715674,2060
1630573715678,2060
1630573715682,2061
1630573715686,2061
1630573715690,2061
1630573715694,2062
1630573715698,2063
1630573715702,2064
1630573715706,2065
1630573715710,2065
1630573715714,2065
1630573715718,2066
1630573715722,2067
1630573715726,2068
1630573715730,2069
1630573715734,2071
1630573715738,2072
1630573715742,2073
1630573715746,2074
1630573715750,2075
1630573715754,2077
1630573715758,2078
1630573715762,2079
1630573715766,2080
1630573715770,2082
1630573715774,2083
1630573715778,2085
1630573715782,2086
1630573715786,2088
1630573715790,2088
1630573715794,2089
1630573715798,2089
1630573715802,2089
1630573715806,2089
1630573715810,2089
1630573715814,2089
1630573715818,2089
1630573715822,2087
1630573715826,2086
1630573715830,2085
1630573715834,2085
1630573715838,2084
1630573715842,2084
1630573715846,2082
1630573715850,2080
1630573715854,2078
1630573715858,2075
1630573715862,2072
1630573715866,2069
1630573715870,2065
1630573715874,2062
1630573715878,2058
1630573715882,2055
1630573715886,2053
1630573715890,2050
1630573715894,2049
1630573715898,2048
1630573715902,2046
1630573715906,2045
1630573715910,2043
1630573715914,2042
1630573715918,2041
1630573715922,2040
1630573715926,2040
1630573715930,2040
1630573715934,2040
1630573715938,2040
1630573715942,2040
1630573715946,2040
1630573715950,2040
1630573715954,2040
1630573715958,2040
1630573715962,2039
1630573715966,2039
1630573715970,2040
1630573715974,2040
1630573715978,2041
1630573715982,2041
1630573715986,2042
1630573715990,2042
1630573715994,2042
1630573715998,2042
1630573716002,2042
1630573716006,2042
1630573716010,2042
1630573716014,2043
1630573716018,2043
1630573716022,2044
1630573716026,2044
1630573716030,2044
1630573716034,2044
1630573716038,2044
1630573716042,2044
1630573716046,2044
1630573716050,2044
1630573716054,2044
1630573716058,2045
1630573716062,2046
1630573716066,2046
1630573716070,2046
1630573716074,2046
1630573716078,2045
1630573716082,2045
1630573716086,2045
1630573716090,2045
1630573716094,2045
1630573716098,2046
1630573716102,2046
1630573716106,2046
1630573716110,2045
1630573716114,2045
1630573716118,2044
1630573716122,2044
1630573716126,2044
1630573716130,2044
1630573716134,2045
1630573716138,2045
1630573716142,2045
1630573716146,2045
1630573716150,2045
1630573716154,2045
1630573716158,2044
1630573716162,2043
1630573716166,2043
1630573716170,2043
1630573716174,2043
1630573716178,2044
1630573716182,2044
1630573716186,2044
1630573716190,2043
1630573716194,2043
1630573716198,2043
1630573716202,2044
1630573716206,2044
1630573716210,2044
1630573716214,2045
1630573716218,2045
1630573716222,2044
1630573716226,2044
1630573716230,2044
1630573716234,2044
1630573716238,2044
1630573716242,2044
1630573716246,2044
1630573716250,2044
1630573716254,2045
1630573716258,2045
1630573716262,2045
1630573716266,2045
1630573716270,2045
1630573716274,2045
1630573716278,2044
1630573716282,2044
1630573716286,2044
1630573716290,2044
1630573716294,2045
1630573716298,2044
1630573716302,2045
1630573716306,2045
1630573716310,2045
1630573716314,2045
1630573716318,2045
1630573716322,2045
1630573716326,2045
1630573716330,2046
1630573716334,2046
1630573716338,2046
1630573716342,2046
1630573716346,2046
1630573716350,2046
1630573716354,2047
1630573716358,2047
1630573716362,2047
1630573716366,2047
1630573716370,2047
1630573716374,2048
1630573716378,2048
1630573716382,2049
1630573716386,2049
1630573716390,2048
1630573716394,2048
1630573716398,2049
1630573716402,2050
1630573716406,2051
1630573716410,2051
1630573716414,2051
1630573716418,2050
1630573716422,2049
1630573716426,2048
1630573716430,2048
1630573716434,2047
1630573716438,2046
1630573716442,2045
1630573716446,2045
1630573716450,2045
1630573716454,2045
1630573716458,2046
1630573716462,2046
1630573716466,2046
1630573716470,2046
1630573716474,2045
1630573716478,2044
1630573716482,2044
1630573716486,2043
1630573716490,2043
1630573716494,2044
1630573716498,2046
1630573716502,2046
1630573716506,2047
1630573716510,2048
1630573716514,2048
1630573716518,2048
1630573716522,2048
1630573716526,2048
1630573716530,2048
1630573716534,2051
1630573716538,2055
1630573716542,2064
1630573716546,2081
1630573716550,2109
1630573716554,2148
1630573716558,2193
1630573716562,2229
1630573716566,2239
1630573716570,2212
1630573716574,2150
1630573716578,2072
1630573716582,2002
1630573716586,1958
1630573716590,1948
1630573716594,1962
1630573716598,1987
1630573716602,2011
1630573716606,2027
1630573716610,2037
1630573716614,2045
1630573716618,2049
1630573716622,2053
1630573716626,2055
1630573716630,2056
1630573716634,2056
1630573716638,2056
1630573716642,2056
1630573716646,2057
1630573716650,2057
1630573716654,2058
1630573716658,2059
1630573716662,2059
1630573716666,2060
1630573716670,2060
1630573716674,2060
1630573716678,2060
1630573716682,2061
1630573716686,2061
1630573716690,2061
1630573716694,2062
1630573716698,2064
1630573716702,2065
1630573716706,2066
1630573716710,2067
1630573716714,2067
1630573716718,2067
1630573716722,2067
1630573716726,2068
1630573716730,2069
1630573716734,2071
1630573716738,2072
1630573716742,2074
1630573716746,2075
1630573716750,2076
1630573716754,2078
1630573716758,2079
1630573716762,2080
1630573716766,2082
1630573716770,2083
1630573716774,2084
1630573716778,2086
1630573716782,2086
1630573716786,2086
1630573716790,2086
1630573716794,2086
1630573716798,2086
1630573716802,2085
1630573716806,2085
1630573716810,2085
1630573716814,2085
1630573716818,2085
1630573716822,2084
1630573716826,2084
1630573716830,2083
1630573716834,2082
1630573716838,2079
1630573716842,2077
1630573716846,2074
1630573716850,2072
1630573716854,2069
1630573716858,2066
1630573716862,2063
1630573716866,2060
1630573716870,2056
1630573716874,2052
1630573716878,2049
1630573716882,2048
1630573716886,2046
1630573716890,2045
1630573716894,2044
1630573716898,2043
1630573716902,2042
1630573716906,2041
1630573716910,2040
1630573716914,2039
1630573716918,2038
1630573716922,2038
1630573716926,2037
1630573716930,2037
1630573716934,2037
1630573716938,2037
1630573716942,2038
1630573716946,2038
1630573716950,2038
1630573716954,2038
1630573716958,2037
1630573716962,2038
1630573716966,2038
1630573716970,2038
1630573716974,2039
1630573716978,2039
1630573716982,2040
1630573716986,2040
1630573716990,2040
1630573716994,2040
1630573716998,2040
1630573717002,2040
1630573717006,2040
1630573717010,2041
1630573717014,2042
1630573717018,2042
1630573717022,2042
1630573717026,2043
1630573717030,2043
1630573717034,2043
1630573717038,2043
1630573717042,2043
1630573717046,2043
1630573717050,2043
1630573717054,2043
1630573717058,2044
1630573717062,2044
1630573717066,2045
1630573717070,2045
1630573717074,2045
1630573717078,2044
1630573717082,2044
1630573717086,2044
1630573717090,2043
1630573717094,2044
1630573717098,2044
1630573717102,2044
1630573717106,2044
1630573717110,2044
1630573717114,2044
1630573717118,2043
1630573717122,2043
1630573717126,2043
1630573717130,2043
1630573717134,2043
1630573717138,2043
1630573717142,2044
1630573717146,2044
1630573717150,2043
1630573717154,2043
1630573717158,2043
1630573717162,2042
1630573717166,2042
1630573717170,2042
1630573717174,2042
1630573717178,2042
1630573717182,2043
1630573717186,2043
1630573717190,2043
1630573717194,2042
1630573717198,2042
1630573717202,2041
1630573717206,2042
1630573717210,2042
1630573717214,2043
1630573717218,2043
1630573717222,2043
1630573717226,2043
1630573717230,2043
1630573717234,2043
1630573717238,2043
1630573717242,2042
1630573717246,2043
1630573717250,2043
1630573717254,2043
1630573717258,2044
1630573717262,2044
1630573717266,2044
1630573717270,2044
1630573717274,2044
1630573717278,2043
1630573717282,2043
1630573717286,2043
1630573717290,2043
1630573717294,2043
1630573717298,2044
1630573717302,2044
1630573717306,2045
1630573717310,2044
1630573717314,2044
1630573717318,2044
1630573717322,2044
1630573717326,2043
1630573717330,2043
1630573717334,2044
1630573717338,2044
1630573717342,2045
1630573717346,2045
1630573717350,2045
1630573717354,2045
1630573717358,2044
1630573717362,2044
1630573717366,2044
1630573717370,2045
1630573717374,2045
1630573717378,2045
1630573717382,2046
1630573717386,2046
1630573717390,2046
1630573717394,2046
1630573717398,2046
1630573717402,2046
1630573717406,2045
1630573717410,2045
1630573717414,2045
1630573717418,2046
1630573717422,2048
1630573717426,2049
1630573717430,2049
1630573717434,2048
1630573717438,2048
1630573717442,2046
1630573717446,2045
1630573717450,2045
1630573717454,2044
1630573717458,2044
1630573717462,2044
1630573717466,2043
1630573717470,2043
1630573717474,2043
1630573717478,2043
1630573717482,2043
1630573717486,2042
1630573717490,2042
1630573717494,2043
1630573717498,2043
1630573717502,2043
1630573717506,2044
1630573717510,2043
1630573717514,2043
1630573717518,2043
1630573717522,2043
1630573717526,2044
1630573717530,2044
1630573717534,2045
1630573717538,2045
1630573717542,2046
1630573717546,2047
1630573717550,2047
1630573717554,2048
1630573717558,2053
1630573717562,2065
1630573717566,2086
1630573717570,2119
1630573717574,2162
1630573717578,2205
1630573717582,2231
1630573717586,2226
1630573717590,2183
1630573717594,2112
1630573717598,2036
1630573717602,1976
1630573717606,1948
1630573717610,1950
1630573717614,1971
1630573717618,1997
1630573717622,2017
1630573717626,2031
1630573717630,2039
1630573717634,2045
1630573717638,2048
1630573717642,2050
1630573717646,2050
1630573717650,2051
1630573717654,2051
1630573717658,2051
1630573717662,2052
1630573717666,2053
1630573717670,2054
1630573717674,2054
1630573717678,2054
1630573717682,2054
1630573717686,2054
1630573717690,2054
1630573717694,2055
1630573717698,2056
1630573717702,2057
1630573717706,2057
1630573717710,2058
1630573717714,2059
1630573717718,2059
1630573717722,2060
1630573717726,2061
1630573717730,2061
1630573717734,2062
1630573717738,2063
1630573717742,2064
1630573717746,2065
1630573717750,2066
1630573717754,2067
1630573717758,2068
1630573717762,2069
1630573717766,2070
1630573717770,2071
1630573717774,2073
1630573717778,2074
1630573717782,2076
1630573717786,2077
1630573717790,2078
1630573717794,2079
1630573717798,2079
1630573717802,2080
1630573717806,2080
1630573717810,2080
1630573717814,2081
1630573717818,2081
1630573717822,2081
1630573717826,2081
1630573717830,2080
1630573717834,2080
1630573717838,2079
1630573717842,2079
1630573717846,2079
1630573717850,2078
1630573717854,2077
1630573717858,2076
1630573717862,2073
1630573717866,2071
1630573717870,2068
1630573717874,2065
1630573717878,2062
1630573717882,2059
1630573717886,2056
1630573717890,2053
1630573717894,2051
1630573717898,2048
1630573717902,2047
1630573717906,2045
1630573717910,2043
1630573717914,2042
1630573717918,2041
1630573717922,2040
1630573717926,2039
1630573717930,2038
1630573717934,2038
1630573717938,2038
1630573717942,2037
1630573717946,2037
1630573717950,2038
1630573717954,2038
1630573717958,2038
1630573717962,2038
1630573717966,2038
1630573717970,2038
1630573717974,2038
1630573717978,2038
1630573717982,2038
1630573717986,2039
1630573717990,2039
1630573717994,2039
1630573717998,2039
1630573718002,2039
1630573718006,2040
1630573718010,2041
1630573718014,2042
1630573718018,2043
1630573718022,2043
1630573718026,2042
1630573718030,2042
1630573718034,2041
1630573718038,2042
1630573718042,2042
1630573718046,2043
1630573718050,2044
1630573718054,2045
1630573718058,2045
1630573718062,2045
1630573718066,2045
1630573718070,2045
1630573718074,2045
1630573718078,2045
1630573718082,2045
1630573718086,2045
1630573718090,2045
1630573718094,2045
1630573718098,2045
1630573718102,2045
1630573718106,2045
1630573718110,2045
1630573718114,2046
1630573718118,2046
1630573718122,2045
1630573718126,2045
1630573718130,2045
1630573718134,2045
1630573718138,2045
1630573718142,2045
1630573718146,2044
1630573718150,2044
1630573718154,2044
1630573718158,2044
1630573718162,2044
1630573718166,2044
1630573718170,2044
1630573718174,2044
1630573718178,2045
1630573718182,2044
1630573718186,2044
1630573718190,2044
1630573718194,2044
1630573718198,2043
1630573718202,2043
1630573718206,2043
1630573718210,2043
1630573718214,2043
1630573718218,2043
1630573718222,2044
1630573718226,2045
1630573718230,2045
1630573718234,2045
1630573718238,2044
1630573718242,2044
1630573718246,2044
1630573718250,2044
1630573718254,2044
1630573718258,2044
1630573718262,2044
1630573718266,2045
1630573718270,2045
1630573718274,2045
1630573718278,2045
1630573718282,2044
1630573718286,2044
1630573718290,2044
1630573718294,2044
1630573718298,2044
1630573718302,2045
1630573718306,2045
1630573718310,2044
1630573718314,2044
1630573718318,2043
1630573718322,2043
1630573718326,2043
1630573718330,2043
1630573718334,2043
1630573718338,2044
1630573718342,2044
1630573718346,2044
1630573718350,2044
1630573718354,2044
1630573718358,2044
1630573718362,2045
1630573718366,2045
1630573718370,2045
1630573718374,2046
1630573718378,2046
1630573718382,2047
1630573718386,2047
1630573718390,2047
1630573718394,2047
1630573718398,2046
1630573718402,2046
1630573718406,2047
1630573718410,2048
1630573718414,2049
1630573718418,2050
1630573718422,2049
1630573718426,2048
1630573718430,2048
1630573718434,2046
1630573718438,2046
1630573718442,2045
1630573718446,2044
1630573718450,2043
1630573718454,2043
1630573718458,2043
1630573718462,2044
1630573718466,2044
1630573718470,2044
1630573718474,2044
1630573718478,2043
1630573718482,2043
1630573718486,2043
1630573718490,2042
1630573718494,2043
1630573718498,2044
1630573718502,2044
1630573718506,2045
1630573718510,2045
1630573718514,2045
1630573718518,2046
1630573718522,2046
1630573718526,2046
1630573718530,2047
1630573718534,2047
1630573718538,2048
1630573718542,2048
1630573718546,2052
1630573718550,2060
1630573718554,2076
1630573718558,2103
1630573718562,2142
1630573718566,2189
1630573718570,2229
1630573718574,2243
1630573718578,2219
1630573718582,2157
1630573718586,2076
1630573718590,2002
1630573718594,1955
1630573718598,1943
1630573718602,1957
1630573718606,1981
1630573718610,2004
1630573718614,2019
1630573718618,2029
1630573718622,2038
1630573718626,2046
1630573718630,2050
1630573718634,2052
1630573718638,2053
1630573718642,2053
1630573718646,2054
1630573718650,2055
1630573718654,2056
1630573718658,2057
1630573718662,2057
1630573718666,2058
1630573718670,2057
1630573718674,2058
1630573718678,2058
1630573718682,2058
1630573718686,2058
1630573718690,2059
1630573718694,2059
1630573718698,2060
1630573718702,2061
1630573718706,2062
1630573718710,2063
1630573718714,2063
1630573718718,2064
1630573718722,2064
1630573718726,2065
1630573718730,2067
1630573718734,2068
1630573718738,2069
1630573718742,2070
1630573718746,2072
1630573718750,2073
1630573718754,2074
1630573718758,2075
1630573718762,2076
1630573718766,2077
1630573718770,2079
1630573718774,2081
1630573718778,2083
1630573718782,2084
1630573718786,2085
1630573718790,2086
1630573718794,2086
1630573718798,2086
1630573718802,2086
1630573718806,2086
1630573718810,2086
1630573718814,2087
1630573718818,2086
1630573718822,2086
1630573718826,2086
1630573718830,2085
1630573718834,2084
1630573718838,2083
1630573718842,2081
1630573718846,2080
1630573718850,2078
1630573718854,2076
1630573718858,2074
1630573718862,2071
1630573718866,2068
1630573718870,2064
1630573718874,2060
1630573718878,2056
1630573718882,2053
1630573718886,2050
1630573718890,2048
1630573718894,2047
1630573718898,2045
1630573718902,2043
1630573718906,2042
1630573718910,2041
1630573718914,2040
1630573718918,2040
1630573718922,2039
1630573718926,2038
1630573718930,2038
1630573718934,2038
1630573718938,2038
1630573718942,2038
1630573718946,2039
1630573718950,2038
1630573718954,2038
1630573718958,2037
1630573718962,2037
1630573718966,2038
1630573718970,2039
1630573718974,2040
1630573718978,2040
1630573718982,2041
1630573718986,2041
1630573718990,2041
1630573718994,2041
1630573718998,2041
1630573719002,2041
1630573719006,2041
1630573719010,2042
1630573719014,2043
1630573719018,2044
1630573719022,2044
1630573719026,2044
1630573719030,2044
1630573719034,2044
1630573719038,2044
1630573719042,2044
1630573719046,2044
1630573719050,2044
1630573719054,2045
1630573719058,2045
1630573719062,2045
1630573719066,2046
1630573719070,2045
1630573719074,2045
1630573719078,2045
1630573719082,2045
1630573719086,2045
1630573719090,2045
1630573719094,2045
1630573719098,2046
1630573719102,2046
1630573719106,2046
1630573719110,2046
1630573719114,2045
1630573719118,2044
1630573719122,2044
1630573719126,2044
1630573719130,2044
1630573719134,2044
1630573719138,2044
1630573719142,2044
1630573719146,2044
1630573719150,2044
1630573719154,2044
1630573719158,2043
1630573719162,2043
1630573719166,2043
1630573719170,2043
1630573719174,2043
1630573719178,2044
1630573719182,2044
1630573719186,2045
1630573719190,2045
1630573719194,2044
1630573719198,2043
1630573719202,2043
1630573719206,2043
1630573719210,2043
1630573719214,2044
1630573719218,2045
1630573719222,2046
1630573719226,2046
1630573719230,2045
1630573719234,2045
1630573719238,2044
1630573719242,2044
1630573719246,2044
1630573719250,2044
1630573719254,2045
1630573719258,2045
1630573719262,2045
1630573719266,2045
1630573719270,2045
1630573719274,2045
1630573719278,2045
1630573719282,2045
1630573719286,2045
1630573719290,2045
1630573719294,2045
1630573719298,2045
1630573719302,2046
1630573719306,2046
1630573719310,2046
1630573719314,2047
1630573719318,2046
1630573719322,2046
1630573719326,2046
1630573719330,2047
1630573719334,2048
1630573719338,2048
1630573719342,2048
1630573719346,2048
1630573719350,2048
1630573719354,2048
1630573719358,2048
1630573719362,2048
1630573719366,2049
1630573719370,2050
1630573719374,2050
1630573719378,2049
1630573719382,2048
1630573719386,2048
1630573719390,2046
1630573719394,2045
1630573719398,2043
1630573719402,2043
1630573719406,2043
1630573719410,2043
1630573719414,2043
1630573719418,2043
1630573719422,2043
1630573719426,2043
1630573719430,2043
1630573719434,2042
1630573719438,2042
1630573719442,2042
1630573719446,2042
1630573719450,2043
1630573719454,2043
1630573719458,2044
1630573719462,2045
1630573719466,2045
1630573719470,2046
1630573719474,2046
1630573719478,2046
1630573719482,2046
1630573719486,2047
1630573719490,2047
1630573719494,2048
1630573719498,2053
1630573719502,2064
1630573719506,2084
1630573719510,2116
1630573719514,2159
1630573719518,2205
1630573719522,2236
1630573719526,2235
1630573719530,2194
1630573719534,2122
1630573719538,2042
1630573719542,1977
1630573719546,1945
1630573719550,1945
1630573719554,1965
1630573719558,1991
1630573719562,2012
1630573719566,2025
1630573719570,2034
1630573719574,2043
1630573719578,2048
1630573719582,2051
1630573719586,2052
1630573719590,2053
1630573719594,2053
1630573719598,2052
1630573719602,2052
1630573719606,2053
1630573719610,2053
1630573719614,2054
1630573719618,2055
1630573719622,2056
1630573719626,2057
1630573719630,2058
1630573719634,2058
1630573719638,2057
1630573719642,2057
1630573719646,2058
1630573719650,2058
1630573719654,2059
1630573719658,2061
1630573719662,2062
1630573719666,2063
1630573719670,2063
1630573719674,2064
1630573719678,2064
1630573719682,2065
1630573719686,2066
1630573719690,2067
1630573719694,2069
1630573719698,2070
1630573719702,2071
1630573719706,2072
1630573719710,2073
1630573719714,2074
1630573719718,2075
1630573719722,2077
1630573719726,2079
1630573719730,2080
1630573719734,2082
1630573719738,2083
1630573719742,2084
1630573719746,2084
1630573719750,2084
1630573719754,2084
1630573719758,2083
1630573719762,2083
1630573719766,2083
1630573719770,2082
1630573719774,2082
1630573719778,2082
1630573719782,2081
1630573719786,2081
1630573719790,2080
1630573719794,2079
1630573719798,2076
1630573719802,2073
1630573719806,2070
1630573719810,2067
1630573719814,2064
1630573719818,2062
1630573719822,2059
1630573719826,2056
1630573719830,2052
1630573719834,2049
1630573719838,2047
1630573719842,2044
1630573719846,2042
1630573719850,2040
1630573719854,2038
1630573719858,2038
1630573719862,2037
1630573719866,2037
1630573719870,2036
1630573719874,2035
1630573719878,2034
1630573719882,2033
1630573719886,2033
1630573719890,2033
1630573719894,2033
1630573719898,2033
1630573719902,2034
1630573719906,2035
1630573719910,2035
1630573719914,2035
1630573719918,2035
1630573719922,2034
1630573719926,2034
1630573719930,2034
1630573719934,2035
1630573719938,2036
1630573719942,2037
1630573719946,2037
1630573719950,2037
1630573719954,2037
1630573719958,2036
1630573719962,2035
1630573719966,2036
1630573719970,2036
1630573719974,2037
1630573719978,2039
1630573719982,2039
1630573719986,2040
1630573719990,2040
1630573719994,2039
1630573719998,2039
1630573720002,2039
1630573720006,2039
1630573720010,2039
1630573720014,2040
1630573720018,2040
1630573720022,2040
1630573720026,2041
1630573720030,2040
1630573720034,2040
1630573720038,2040
1630573720042,2039
1630573720046,2039
1630573720050,2039
1630573720054,2039
1630573720058,2040
1630573720062,2040
1630573720066,2040
1630573720070,2040
1630573720074,2040
1630573720078,2039
1630573720082,2038
1630573720086,2038
1630573720090,2038
1630573720094,2038
1630573720098,2039
1630573720102,2039
1630573720106,2039
1630573720110,2038
1630573720114,2038
1630573720118,2037
1630573720122,2037
1630573720126,2038
1630573720130,2038
1630573720134,2038
1630573720138,2038
1630573720142,2039
1630573720146,2039
1630573720150,2039
1630573720154,2039
1630573720158,2039
1630573720162,2038
1630573720166,2038
1630573720170,2038
1630573720174,2039
1630573720178,2040
1630573720182,2040
1630573720186,2041
1630573720190,2040
1630573720194,2040
1630573720198,2039
1630573720202,2039
1630573720206,2040
1630573720210,2040
1630573720214,2040
1630573720218,2040
1630573720222,2041
1630573720226,2041
1630573720230,2041
1630573720234,2040
1630573720238,2040
1630573720242,2040
1630573720246,2039
1630573720250,2039
1630573720254,2040
1630573720258,2040
1630573720262,2041
1630573720266,2041
1630573720270,2041
1630573720274,2041
1630573720278,2041
1630573720282,2040
1630573720286,2040
1630573720290,2041
1630573720294,2042
1630573720298,2043
1630573720302,2044
1630573720306,2044
1630573720310,2044
1630573720314,2043
1630573720318,2043
1630573720322,2044
1630573720326,2044
1630573720330,2044
1630573720334,2044
1630573720338,2044
1630573720342,2045
1630573720346,2046
1630573720350,2047
1630573720354,2047
1630573720358,2047
1630573720362,2046
1630573720366,2045
1630573720370,2044
1630573720374,2043
1630573720378,2042
1630573720382,2042
1630573720386,2042
1630573720390,2041
1630573720394,2041
1630573720398,2041
1630573720402,2041
1630573720406,2041
1630573720410,2041
1630573720414,2041
1630573720418,2041
1630573720422,2041
1630573720426,2041
1630573720430,2041
1630573720434,2041
1630573720438,2041
1630573720442,2042
1630573720446,2042
1630573720450,2043
1630573720454,2043
1630573720458,2043
1630573720462,2044
1630573720466,2044
1630573720470,2045
1630573720474,2046
1630573720478,2047
1630573720482,2048
1630573720486,2054
1630573720490,2069
1630573720494,2093
1630573720498,2130
1630573720502,2176
1630573720506,2217
1630573720510,2235
1630573720514,2216
1630573720518,2161
1630573720522,2084
1630573720526,2011
1630573720530,1961
1630573720534,1944
1630573720538,1955
1630573720542,1979
1630573720546,2003
1630573720550,2020
1630573720554,2031
1630573720558,2038
1630573720562,2045
1630573720566,2048
1630573720570,2049
1630573720574,2051
1630573720578,2051
1630573720582,2051
1630573720586,2052
1630573720590,2052
1630573720594,2052
1630573720598,2053
1630573720602,2053
1630573720606,2053
1630573720610,2054
1630573720614,2055
1630573720618,2056
1630573720622,2057
1630573720626,2058
1630573720630,2058
1630573720634,2058
1630573720638,2058
1630573720642,2059
1630573720646,2059
1630573720650,2060
1630573720654,2061
1630573720658,2062
1630573720662,2063
1630573720666,2064
1630573720670,2065
1630573720674,2066
1630573720678,2067
1630573720682,2068
1630573720686,2069
1630573720690,2071
1630573720694,2072
1630573720698,2073
1630573720702,2074
1630573720706,2076
1630573720710,2077
1630573720714,2078
1630573720718,2079
1630573720722,2080
1630573720726,2080
1630573720730,2081
1630573720734,2081
1630573720738,2082
1630573720742,2083
1630573720746,2083
1630573720750,2082
1630573720754,2082
1630573720758,2081
1630573720762,2081
1630573720766,2081
1630573720770,2080
1630573720774,2080
1630573720778,2079
1630573720782,2078
1630573720786,2076
1630573720790,2073
1630573720794,2071
1630573720798,2068
1630573720802,2064
1630573720806,2061
1630573720810,2057
1630573720814,2054
1630573720818,2051
1630573720822,2049
1630573720826,2048
1630573720830,2046
1630573720834,2044
1630573720838,2041
1630573720842,2040
1630573720846,2038
1630573720850,2038
1630573720854,2038
1630573720858,2038
1630573720862,2037
1630573720866,2037
1630573720870,2036
1630573720874,2036
1630573720878,2035
1630573720882,2036
1630573720886,2036
1630573720890,2036
1630573720894,2037
1630573720898,2037
1630573720902,2037
1630573720906,2038
1630573720910,2038
1630573720914,2038
1630573720918,2038
1630573720922,2038
1630573720926,2038
1630573720930,2038
1630573720934,2038
1630573720938,2039
1630573720942,2040
1630573720946,2041
1630573720950,2041
1630573720954,2040
1630573720958,2040
1630573720962,2040
1630573720966,2041
1630573720970,2041
1630573720974,2042
1630573720978,2042
1630573720982,2042
1630573720986,2043
1630573720990,2042
1630573720994,2042
1630573720998,2042
1630573721002,2042
1630573721006,2042
1630573721010,2042
1630573721014,2043
1630573721018,2044
1630573721022,2044
1630573721026,2044
1630573721030,2044
1630573721034,2043
1630573721038,2043
1630573721042,2042
1630573721046,2042
1630573721050,2042
1630573721054,2042
1630573721058,2042
1630573721062,2042
1630573721066,2043
1630573721070,2042
1630573721074,2042
1630573721078,2041
1630573721082,2041
1630573721086,2040
1630573721090,2040
1630573721094,2041
1630573721098,2041
1630573721102,2042
1630573721106,2042
1630573721110,2041
1630573721114,2041
1630573721118,2040
1630573721122,2040
1630573721126,2041
1630573721130,2041
1630573721134,2042
1630573721138,2042
1630573721142,2042
1630573721146,2042
1630573721150,2042
1630573721154,2041
1630573721158,2041
1630573721162,2041
1630573721166,2041
1630573721170,2041
1630573721174,2041
1630573721178,2042
1630573721182,2042
1630573721186,2042
1630573721190,2042
1630573721194,2042
1630573721198,2042
1630573721202,2042
1630573721206,2041
1630573721210,2042
1630573721214,2042
1630573721218,2043
1630573721222,2043
1630573721226,2043
1630573721230,2043
1630573721234,2042
1630573721238,2042
1630573721242,2042
1630573721246,2042
1630573721250,2042
1630573721254,2042
1630573721258,2043
1630573721262,2043
1630573721266,2044
1630573721270,2044
1630573721274,2044
1630573721278,2043
1630573721282,2043
1630573721286,2042
1630573721290,2042
1630573721294,2043
1630573721298,2044
1630573721302,2044
1630573721306,2044
1630573721310,2043
1630573721314,2043
1630573721318,2043
1630573721322,2043
1630573721326,2044
1630573721330,2045
1630573721334,2045
1630573721338,2045
1630573721342,2046
1630573721346,2046
1630573721350,2047
1630573721354,2048
1630573721358,2048
1630573721362,2048
1630573721366,2047
1630573721370,2046
1630573721374,2045
1630573721378,2045
1630573721382,2045
1630573721386,2045
1630573721390,2045
1630573721394,2044
1630573721398,2044
1630573721402,2044
1630573721406,2043
1630573721410,2043
1630573721414,2043
1630573721418,2043
1630573721422,2043
1630573721426,2043
1630573721430,2043
1630573721434,2043
1630573721438,2043
1630573721442,2043
1630573721446,2043
1630573721450,2043
1630573721454,2044
1630573721458,2045
1630573721462,2045
1630573721466,2046
1630573721470,2046
1630573721474,2047
1630573721478,2047
1630573721482,2048
1630573721486,2052
1630573721490,2063
1630573721494,2082
1630573721498,2113
1630573721502,2155
1630573721506,2199
1630573721510,2229
1630573721514,2229
1630573721518,2192
1630573721522,2125
1630573721526,2048
1630573721530,1986
1630573721534,1952
1630573721538,1950
1630573721542,1968
1630573721546,1994
1630573721550,2016
1630573721554,2030
1630573721558,2038
1630573721562,2045
1630573721566,2048
1630573721570,2050
1630573721574,2051
1630573721578,2052
1630573721582,2052
1630573721586,2053
1630573721590,2053
1630573721594,2054
1630573721598,2054
1630573721602,2054
1630573721606,2055
1630573721610,2055
1630573721614,2055
1630573721618,2056
1630573721622,2057
1630573721626,2058
1630573721630,2058
1630573721634,2059
1630573721638,2059
1630573721642,2059
1630573721646,2060
1630573721650,2060
1630573721654,2061
1630573721658,2062
1630573721662,2063
1630573721666,2064
1630573721670,2065
1630573721674,2066
1630573721678,2067
1630573721682,2067
1630573721686,2068
1630573721690,2070
1630573721694,2071
1630573721698,2073
1630573721702,2075
1630573721706,2077
1630573721710,2078
1630573721714,2079
1630573721718,2079
1630573721722,2080
1630573721726,2081
1630573721730,2081
1630573721734,2082
1630573721738,2083
1630573721742,2083
1630573721746,2083
1630573721750,2083
1630573721754,2082
1630573721758,2081
1630573721762,2081
1630573721766,2080
1630573721770,2080
1630573721774,2080
1630573721778,2079
1630573721782,2078
1630573721786,2077
1630573721790,2075
1630573721794,2072
1630573721798,2069
1630573721802,2066
1630573721806,2063
1630573721810,2060
1630573721814,2057
1630573721818,2055
1630573721822,2052
1630573721826,2049
1630573721830,2047
1630573721834,2044
1630573721838,2042
1630573721842,2041
1630573721846,2041
1630573721850,2040
1630573721854,2040
1630573721858,2039
1630573721862,2039
1630573721866,2038
1630573721870,2038
1630573721874,2038
1630573721878,2037
1630573721882,2037
1630573721886,2038
1630573721890,2038
1630573721894,2039
1630573721898,2039
1630573721902,2039
1630573721906,2039
1630573721910,2039
1630573721914,2039
1630573721918,2039
1630573721922,2038
1630573721926,2039
1630573721930,2039
1630573721934,2040
1630573721938,2042
1630573721942,2042
1630573721946,2042
1630573721950,2042
1630573721954,2042
1630573721958,2042
1630573721962,2042
1630573721966,2042
1630573721970,2042
1630573721974,2043
1630573721978,2044
1630573721982,2044
1630573721986,2044
1630573721990,2044
1630573721994,2043
1630573721998,2042
1630573722002,2042
1630573722006,2043
1630573722010,2043
1630573722014,2044
1630573722018,2045
1630573722022,2045
1630573722026,2045
1630573722030,2044
1630573722034,2044
1630573722038,2043
1630573722042,2043
1630573722046,2043
1630573722050,2043
1630573722054,2044
1630573722058,2044
1630573722062,2044
1630573722066,2044
1630573722070,2043
1630573722074,2043
1630573722078,2043
1630573722082,2043
1630573722086,2043
1630573722090,2043
1630573722094,2043
1630573722098,2044
1630573722102,2044
1630573722106,2043
1630573722110,2043
1630573722114,2042
1630573722118,2041
1630573722122,2041
1630573722126,2042
1630573722130,2042
1630573722134,2043
1630573722138,2044
1630573722142,2045
1630573722146,2045
1630573722150,2045
1630573722154,2045
1630573722158,2044
1630573722162,2044
1630573722166,2043
1630573722170,2043
1630573722174,2044
1630573722178,2045
1630573722182,2045
1630573722186,2046
1630573722190,2046
1630573722194,2045
1630573722198,2045
1630573722202,2045
1630573722206,2045
1630573722210,2045
1630573722214,2045
1630573722218,2046
1630573722222,2046
1630573722226,2047
1630573722230,2047
1630573722234,2047
1630573722238,2046
1630573722242,2046
1630573722246,2045
1630573722250,2045
1630573722254,2046
1630573722258,2046
1630573722262,2047
1630573722266,2047
1630573722270,2047
1630573722274,2047
1630573722278,2046
1630573722282,2046
1630573722286,2045
1630573722290,2045
1630573722294,2046
1630573722298,2047
1630573722302,2047
1630573722306,2048
1630573722310,2048
1630573722314,2048
1630573722318,2047
1630573722322,2048
1630573722326,2048
1630573722330,2047
1630573722334,2048
1630573722338,2048
1630573722342,2048
1630573722346,2049
1630573722350,2049
1630573722354,2048
1630573722358,2048
1630573722362,2047
1630573722366,2047
1630573722370,2048
1630573722374,2050
1630573722378,2051
1630573722382,2051
1630573722386,2051
1630573722390,2050
1630573722394,2049
1630573722398,2048
1630573722402,2048
1630573722406,2047
1630573722410,2047
1630573722414,2047
1630573722418,2047
1630573722422,2047
1630573722426,2047
1630573722430,2047
1630573722434,2047
1630573722438,2046
1630573722442,2046
1630573722446,2046
1630573722450,2046
1630573722454,2047
1630573722458,2047
1630573722462,2047
1630573722466,2048
1630573722470,2048
1630573722474,2048
1630573722478,2048
1630573722482,2048
1630573722486,2048
1630573722490,2048
1630573722494,2050
1630573722498,2051
1630573722502,2053
1630573722506,2058
1630573722510,2069
1630573722514,2089
1630573722518,2121
1630573722522,2164
1630573722526,2210
1630573722530,2239
1630573722534,2235
1630573722538,2193
1630573722542,2121
1630573722546,2043
1630573722550,1982
1630573722554,1953
1630573722558,1956
1630573722562,1976
1630573722566,2000
1630573722570,2019
1630573722574,2031
1630573722578,2039
1630573722582,2047
1630573722586,2051
1630573722590,2054
1630573722594,2056
1630573722598,2057
1630573722602,2057
1630573722606,2057
1630573722610,2057
1630573722614,2058
1630573722618,2058
1630573722622,2059
1630573722626,2060
1630573722630,2061
1630573722634,2061
1630573722638,2061
1630573722642,2061
1630573722646,2062
1630573722650,2062
1630573722654,2063
1630573722658,2063
1630573722662,2065
1630573722666,2065
1630573722670,2066
1630573722674,2067
1630573722678,2067
1630573722682,2067
1630573722686,2068
1630573722690,2069
1630573722694,2070
1630573722698,2071
1630573722702,2072
1630573722706,2073
1630573722710,2075
1630573722714,2076
1630573722718,2078
1630573722722,2079
1630573722726,2081
1630573722730,2082
1630573722734,2083
1630573722738,2085
1630573722742,2086
1630573722746,2088
1630573722750,2089
1630573722754,2089
1630573722758,2089
1630573722762,2089
1630573722766,2088
1630573722770,2088
1630573722774,2087
1630573722778,2088
1630573722782,2088
1630573722786,2088
1630573722790,2088
1630573722794,2087
1630573722798,2085
1630573722802,2084
1630573722806,2082
1630573722810,2081
1630573722814,2079
1630573722818,2076
1630573722822,2073
1630573722826,2069
1630573722830,2065
1630573722834,2062
1630573722838,2058
1630573722842,2055
1630573722846,2052
1630573722850,2050
1630573722854,2048
1630573722858,2048
1630573722862,2047
1630573722866,2046
1630573722870,2045
1630573722874,2043
1630573722878,2041
1630573722882,2040
1630573722886,2040
1630573722890,2040
1630573722894,2041
1630573722898,2042
1630573722902,2042
1630573722906,2042
1630573722910,2042
1630573722914,2041
1630573722918,2040
1630573722922,2040
1630573722926,2040
1630573722930,2040
1630573722934,2041
1630573722938,2042
1630573722942,2042
1630573722946,2042
1630573722950,2042
1630573722954,2043
1630573722958,2043
1630573722962,2043
1630573722966,2043
1630573722970,2043
1630573722974,2044
1630573722978,2044
1630573722982,2045
1630573722986,2045
1630573722990,2045
1630573722994,2045
1630573722998,2045
1630573723002,2045
1630573723006,2044
1630573723010,2044
1630573723014,2045
1630573723018,2046
1630573723022,2046
1630573723026,2047
1630573723030,2047
1630573723034,2046
1630573723038,2046
1630573723042,2045
1630573723046,2044
1630573723050,2044
1630573723054,2045
1630573723058,2045
1630573723062,2045
1630573723066,2045
1630573723070,2045
1630573723074,2045
1630573723078,2044
1630573723082,2044
1630573723086,2044
1630573723090,2044
1630573723094,2044
1630573723098,2044
1630573723102,2044
1630573723106,2044
1630573723110,2044
1630573723114,2043
1630573723118,2042
1630573723122,2042
1630573723126,2042
1630573723130,2042
1630573723134,2042
1630573723138,2043
1630573723142,2043
1630573723146,2043
1630573723150,2044
1630573723154,2044
1630573723158,2043
1630573723162,2042
1630573723166,2042
1630573723170,2042
1630573723174,2043
1630573723178,2043
1630573723182,2044
1630573723186,2044
1630573723190,2044
1630573723194,2044
1630573723198,2043
1630573723202,2043
1630573723206,2043
1630573723210,2043
1630573723214,2044
1630573723218,2044
1630573723222,2044
1630573723226,2045
1630573723230,2045
1630573723234,2045
1630573723238,2044
1630573723242,2043
1630573723246,2043
1630573723250,2043
1630573723254,2044
1630573723258,2044
1630573723262,2045
1630573723266,2045
1630573723270,2045
1630573723274,2045
1630573723278,2045
1630573723282,2045
1630573723286,2044
1630573723290,2044
1630573723294,2045
1630573723298,2046
1630573723302,2047
1630573723306,2048
1630573723310,2048
1630573723314,2047
1630573723318,2047
1630573723322,2047
1630573723326,2048
1630573723330,2048
1630573723334,2048
1630573723338,2048
1630573723342,2048
1630573723346,2048
1630573723350,2048
1630573723354,2050
1630573723358,2050
1630573723362,2051
1630573723366,2050
1630573723370,2049
1630573723374,2048
1630573723378,2048
1630573723382,2047
1630573723386,2046
1630573723390,2045
1630573723394,2045
1630573723398,2044
1630573723402,2045
1630573723406,2045
1630573723410,2045
1630573723414,2045
1630573723418,2045
1630573723422,2045
1630573723426,2045
1630573723430,2045
1630573723434,2045
1630573723438,2045
1630573723442,2044
1630573723446,2045
1630573723450,2045
1630573723454,2045
1630573723458,2046
1630573723462,2047
1630573723466,2047
1630573723470,2047
1630573723474,2047
1630573723478,2048
1630573723482,2048
1630573723486,2049
1630573723490,2054
1630573723494,2065
1630573723498,2085
1630573723502,2116
1630573723506,2159
1630573723510,2205
1630573723514,2235
1630573723518,2234
1630573723522,2194
1630573723526,2122
1630573723530,2042
1630573723534,1978
1630573723538,1946
1630573723542,1947
1630573723546,1967
1630573723550,1993
1630573723554,2014
1630573723558,2027
1630573723562,2036
1630573723566,2043
1630573723570,2048
1630573723574,2051
1630573723578,2052
1630573723582,2053
1630573723586,2053
1630573723590,2054
1630573723594,2055
1630573723598,2055
1630573723602,2055
1630573723606,2055
1630573723610,2055
1630573723614,2056
1630573723618,2057
1630573723622,2058
1630573723626,2058
1630573723630,2058
1630573723634,2058
1630573723638,2058
1630573723642,2059
1630573723646,2059
1630573723650,2060
1630573723654,2062
1630573723658,2063
1630573723662,2063
1630573723666,2064
1630573723670,2065
1630573723674,2065
1630573723678,2066
1630573723682,2067
1630573723686,2068
1630573723690,2069
1630573723694,2071
1630573723698,2072
1630573723702,2074
1630573723706,2075
1630573723710,2077
1630573723714,2078
1630573723718,2079
1630573723722,2080
1630573723726,2082
1630573723730,2083
1630573723734,2084
1630573723738,2085
1630573723742,2085
1630573723746,2085
1630573723750,2085
1630573723754,2084
1630573723758,2084
1630573723762,2083
1630573723766,2083
1630573723770,2082
1630573723774,2082
1630573723778,2082
1630573723782,2081
1630573723786,2080
1630573723790,2078
1630573723794,2075
1630573723798,2072
1630573723802,2069
1630573723806,2066
1630573723810,2063
1630573723814,2060
1630573723818,2057
1630573723822,2053
1630573723826,2050
1630573723830,2048
1630573723834,2046
1630573723838,2044
1630573723842,2042
1630573723846,2041
1630573723850,2040
1630573723854,2039
1630573723858,2039
1630573723862,2039
1630573723866,2038
1630573723870,2038
1630573723874,2037
1630573723878,2036
1630573723882,2036
1630573723886,2035
1630573723890,2035
1630573723894,2035
1630573723898,2036
1630573723902,2036
1630573723906,2037
1630573723910,2037
1630573723914,2037
1630573723918,2037
1630573723922,2037
1630573723926,2037
1630573723930,2037
1630573723934,2038
1630573723938,2039
1630573723942,2040
1630573723946,2040
1630573723950,2040
1630573723954,2039
1630573723958,2039
1630573723962,2039
1630573723966,2040
1630573723970,2040
1630573723974,2041
1630573723978,2041
1630573723982,2042
1630573723986,2042
1630573723990,2042
1630573723994,2042
1630573723998,2042
1630573724002,2042
1630573724006,2042
1630573724010,2043
1630573724014,2043
1630573724018,2044
1630573724022,2044
1630573724026,2044
1630573724030,2043
1630573724034,2043
1630573724038,2043
1630573724042,2043
1630573724046,2043
1630573724050,2043
1630573724054,2043
1630573724058,2043
1630573724062,2043
1630573724066,2043
1630573724070,2043
1630573724074,2042
1630573724078,2042
1630573724082,2041
1630573724086,2041
1630573724090,2041
1630573724094,2042
1630573724098,2042
1630573724102,2042
1630573724106,2042
1630573724110,2042
1630573724114,2042
1630573724118,2041
1630573724122,2042
1630573724126,2042
1630573724130,2042
1630573724134,2042
1630573724138,2043
