timestamp,green,ir,red
1630573698889,37248,282133,215658
1630573698899,37245,282162,215654
1630573698909,37245,282155,215668
1630573698919,37240,282167,215642
1630573698929,37257,282169,215665
1630573698939,37259,282147,215637
1630573698949,37257,282161,215684
1630573698959,37251,282203,215670
1630573698969,37256,282167,215674
1630573698979,37265,282172,215684
1630573698989,37263,282182,215677
1630573698999,37260,282197,215670
1630573699009,37272,282193,215671
1630573699019,37270,282181,215689
1630573699029,37275,282199,215683
1630573699039,37270,282174,215672
1630573699049,37273,282206,215674
1630573699059,37274,282233,215681
1630573699069,37279,282245,215683
1630573699079,37299,282253,215687
1630573699089,37279,282244,215705
1630573699099,37290,282256,215713
1630573699109,37295,282286,215699
1630573699119,37295,282287,215700
1630573699129,37298,282313,215707
1630573699139,37297,282273,215694
1630573699149,37309,282240,215701
1630573699159,37312,282303,215710
1630573699169,37308,282314,215724
1630573699179,37322,282317,215732
1630573699189,37330,282319,215730
1630573699199,37324,282362,215710
1630573699209,37322,282336,215714
1630573699219,37334,282331,215718
1630573699229,37337,282344,215724
1630573699239,37343,282377,215706
1630573699249,37347,282368,215742
1630573699259,37344,282397,215725
1630573699269,37353,282373,215758
1630573699279,37356,282382,215723
1630573699289,37356,282439,215740
1630573699299,37357,282443,215749
1630573699309,37368,282439,215726
1630573699319,37372,282478,215728
1630573699329,37382,282432,215764
1630573699339,37388,282458,215765
1630573699349,37393,282455,215766
1630573699359,37388,282485,215741
1630573699369,37395,282524,215747
1630573699379,37405,282508,215767
1630573699389,37399,282520,215755
1630573699399,37417,282574,215767
1630573699409,37404,282518,215773
1630573699419,37422,282496,215772
1630573699429,37413,282571,215762
1630573699439,37421,282564,215781
1630573699449,37414,282520,215738
1630573699459,37402,282523,215756
1630573699469,37396,282528,215768
1630573699479,37400,282453,215743
1630573699489,37397,282432,215734
1630573699499,37378,282425,215734
1630573699509,37381,282412,215748
1630573699519,37363,282459,215751
1630573699529,37368,282408,215731
1630573699539,37343,282368,215702
1630573699549,37346,282350,215713
1630573699559,37342,282344,215708
1630573699569,37327,282354,215720
1630573699579,37319,282327,215699
1630573699589,37310,282295,215702
1630573699599,37304,282282,215713
1630573699609,37301,282267,215698
1630573699619,37296,282249,215697
1630573699629,37283,282248,215701
1630573699639,37279,282248,215693
1630573699649,37282,282216,215703
1630573699659,37265,282226,215688
1630573699669,37265,282214,215695
1630573699679,37270,282171,215696
1630573699689,37265,282219,215683
1630573699699,37262,282169,215716
1630573699709,37261,282191,215723
1630573699719,37253,282190,215703
1630573699729,37258,282155,215709
1630573699739,37260,282211,215716
1630573699749,37253,282215,215721
1630573699759,37255,282167,215724
1630573699769,37251,282165,215729
1630573699779,37253,282162,215711
1630573699789,37255,282138,215724
1630573699799,37256,282132,215727
1630573699809,37262,282144,215741
1630573699819,37252,282146,215746
1630573699829,37258,282180,215724
1630573699839,37268,282138,215724
1630573699849,37268,282134,215742
1630573699859,37254,282203,215714
1630573699869,37261,282176,215752
1630573699879,37264,282174,215740
1630573699889,37255,282171,215728
1630573699899,37264,282209,215774
1630573699909,37262,282225,215762
1630573699919,37270,282239,215804
1630573699929,37276,282270,215812
1630573699939,37283,282256,215822
1630573699949,37283,282306,215808
1630573699959,37291,282339,215819
1630573699969,37299,282308,215867
1630573699979,37310,282387,215890
1630573699989,37320,282435,215906
1630573699999,37320,282478,215978
1630573700009,37332,282487,216012
1630573700019,37341,282581,216063
1630573700029,37364,282674,216097
1630573700039,37373,282708,216176
1630573700049,37378,282769,216223
1630573700059,37387,282896,216293
1630573700069,37402,282981,216361
1630573700079,37406,283010,216413
1630573700089,37424,283072,216434
1630573700099,37435,283166,216483
1630573700109,37441,283189,216538
1630573700119,37444,283233,216534
1630573700129,37459,283264,216605
1630573700139,37465,283284,216621
1630573700149,37471,283329,216615
1630573700159,37487,283349,216624
1630573700169,37482,283360,216628
1630573700179,37501,283336,216640
1630573700189,37500,283368,216626
1630573700199,37503,283338,216642
1630573700209,37509,283412,216642
1630573700219,37503,283377,216626
1630573700229,37513,283376,216650
1630573700239,37524,283356,216625
1630573700249,37518,283349,216612
1630573700259,37529,283342,216597
1630573700269,37526,283324,216585
1630573700279,37532,283305,216592
1630573700289,37539,283305,216538
1630573700299,37536,283281,216514
1630573700309,37541,283257,216477
1630573700319,37554,283196,216495
1630573700329,37549,283270,216467
1630573700339,37557,283199,216430
1630573700349,37552,283172,216436
1630573700359,37552,283198,216412
1630573700369,37570,283146,216386
1630573700379,37575,283100,216382
1630573700389,37570,283122,216362
1630573700399,37558,283131,216347
1630573700409,37554,283068,216294
1630573700419,37550,283089,216288
1630573700429,37546,283044,216280
1630573700439,37538,283022,216271
1630573700449,37536,282998,216267
1630573700459,37537,282976,216246
1630573700469,37530,282940,216249
1630573700479,37514,282937,216260
1630573700489,37506,282908,216252
1630573700499,37499,282868,216217
1630573700509,37496,282886,216195
1630573700519,37487,282868,216192
1630573700529,37494,282890,216212
1630573700539,37480,282835,216208
1630573700549,37470,282851,216225
1630573700559,37464,282827,216234
1630573700569,37458,282830,216230
1630573700579,37459,282833,216241
1630573700589,37452,282856,216205
1630573700599,37443,282798,216255
1630573700609,37440,282833,216250
1630573700619,37438,282785,216271
1630573700629,37437,282786,216255
1630573700639,37443,282807,216268
1630573700649,37428,282803,216271
1630573700659,37437,282791,216266
1630573700669,37444,282784,216269
1630573700679,37430,282816,216259
1630573700689,37439,282794,216261
1630573700699,37432,282801,216278
1630573700709,37434,282794,216253
1630573700719,37430,282758,216267
1630573700729,37438,282788,216290
1630573700739,37441,282804,216249
1630573700749,37438,282778,216266
1630573700759,37441,282818,216255
1630573700769,37432,282807,216267
1630573700779,37434,282803,216286
1630573700789,37441,282768,216298
1630573700799,37446,282799,216276
1630573700809,37460,282759,216278
1630573700819,37447,282819,216264
1630573700829,37453,282816,216264
1630573700839,37456,282748,216286
1630573700849,37458,282818,216289
1630573700859,37455,282812,216273
1630573700869,37465,282803,216276
1630573700879,37472,282794,216251
1630573700889,37474,282801,216288
1630573700899,37476,282784,216260
1630573700909,37473,282831,216284
1630573700919,37485,282840,216281
1630573700929,37487,282842,216269
1630573700939,37489,282851,216301
1630573700949,37486,282850,216265
1630573700959,37504,282864,216241
1630573700969,37504,282875,216274
1630573700979,37518,282877,216289
1630573700989,37513,282921,216277
1630573700999,37521,282907,216303
1630573701009,37524,282899,216291
1630573701019,37520,282895,216303
1630573701029,37525,282899,216283
1630573701039,37541,282913,216302
1630573701049,37540,282946,216323
1630573701059,37538,282919,216313
1630573701069,37540,282934,216293
1630573701079,37547,282964,216307
1630573701089,37552,282933,216319
1630573701099,37558,282981,216321
1630573701109,37570,282995,216305
1630573701119,37570,282955,216301
1630573701129,37576,283027,216304
1630573701139,37593,282974,216323
1630573701149,37585,283040,216295
1630573701159,37588,283074,216305
1630573701169,37582,283045,216327
1630573701179,37601,283068,216317
1630573701189,37602,283101,216309
1630573701199,37615,283098,216301
1630573701209,37610,283081,216308
1630573701219,37620,283113,216332
1630573701229,37628,283135,216340
1630573701239,37633,283169,216353
1630573701249,37631,283158,216356
1630573701259,37644,283183,216363
1630573701269,37641,283188,216403
1630573701279,37659,283185,216396
1630573701289,37669,283243,216401
1630573701299,37676,283219,216414
1630573701309,37682,283288,216414
1630573701319,37696,283293,216442
1630573701329,37695,283284,216444
1630573701339,37704,283356,216469
1630573701349,37717,283341,216496
1630573701359,37723,283355,216501
1630573701369,37728,283403,216519
1630573701379,37742,283475,216539
1630573701389,37747,283471,216572
1630573701399,37753,283479,216559
1630573701409,37752,283475,216567
1630573701419,37755,283457,216612
1630573701429,37765,283439,216595
1630573701439,37764,283430,216614
1630573701449,37757,283422,216575
1630573701459,37765,283406,216631
1630573701469,37755,283435,216609
1630573701479,37758,283428,216593
1630573701489,37746,283374,216587
1630573701499,37747,283362,216571
1630573701509,37747,283375,216578
1630573701519,37740,283354,216598
1630573701529,37724,283322,216527
1630573701539,37721,283316,216569
1630573701549,37715,283275,216548
1630573701559,37713,283300,216540
1630573701569,37697,283195,216503
1630573701579,37689,283226,216508
1630573701589,37677,283231,216472
1630573701599,37675,283200,216475
1630573701609,37678,283186,216487
1630573701619,37671,283145,216453
1630573701629,37661,283162,216451
1630573701639,37656,283143,216461
1630573701649,37661,283133,216441
1630573701659,37655,283120,216433
1630573701669,37654,283117,216429
1630573701679,37656,283101,216435
1630573701689,37648,283145,216444
1630573701699,37652,283114,216413
1630573701709,37645,283103,216403
1630573701719,37651,283132,216425
1630573701729,37648,283109,216424
1630573701739,37639,283122,216397
1630573701749,37643,283112,216401
1630573701759,37645,283062,216380
1630573701769,37636,283107,216368
1630573701779,37636,283080,216377
1630573701789,37646,283106,216390
1630573701799,37640,283063,216364
1630573701809,37644,283073,216370
1630573701819,37641,283063,216337
1630573701829,37642,283057,216352
1630573701839,37649,283063,216364
1630573701849,37648,283093,216360
1630573701859,37646,283116,216321
1630573701869,37649,283082,216343
1630573701879,37646,283081,216320
1630573701889,37653,283110,216314
1630573701899,37650,283092,216322
1630573701909,37668,283073,216320
1630573701919,37672,283055,216302
1630573701929,37670,283094,216319
1630573701939,37692,283070,216290
1630573701949,37684,283059,216305
1630573701959,37691,283006,216274
1630573701969,37684,282982,216263
1630573701979,37679,282982,216255
1630573701989,37690,283018,216223
1630573701999,37682,282993,216226
1630573702009,37681,283001,216220
1630573702019,37682,282958,216193
1630573702029,37691,282982,216190
1630573702039,37684,282984,216192
1630573702049,37698,282976,216178
1630573702059,37697,282951,216184
1630573702069,37703,282943,216165
1630573702079,37709,283006,216156
1630573702089,37706,282988,216153
1630573702099,37728,282970,216155
1630573702109,37716,282969,216146
1630573702119,37726,283000,216151
1630573702129,37740,283000,216147
1630573702139,37741,282980,216119
1630573702149,37742,282971,216139
1630573702159,37745,282975,216117
1630573702169,37754,282992,216142
1630573702179,37747,283018,216113
1630573702189,37747,282988,216120
1630573702199,37756,283003,216113
1630573702209,37768,283008,216089
1630573702219,37769,283026,216103
1630573702229,37767,283033,216101
1630573702239,37775,283031,216107
1630573702249,37779,283049,216080
1630573702259,37794,282964,216071
1630573702269,37784,283012,216070
1630573702279,37791,283031,216062
1630573702289,37792,283044,216073
1630573702299,37807,283032,216049
1630573702309,37799,283006,216071
1630573702319,37808,283048,216051
1630573702329,37810,282978,216012
1630573702339,37807,283038,216036
1630573702349,37813,283031,216033
1630573702359,37811,283055,216028
1630573702369,37820,283048,216019
1630573702379,37826,283038,216026
1630573702389,37828,283063,216023
1630573702399,37844,283068,216048
1630573702409,37829,283064,216015
1630573702419,37839,283015,215975
1630573702429,37839,282990,215966
1630573702439,37821,282933,215952
1630573702449,37816,282900,215949
1630573702459,37824,282910,215961
1630573702469,37820,282912,215947
1630573702479,37815,282924,215962
1630573702489,37807,282828,215962
1630573702499,37799,282836,215930
1630573702509,37797,282813,215913
1630573702519,37792,282799,215891
1630573702529,37778,282796,215895
1630573702539,37775,282713,215868
1630573702549,37769,282724,215856
1630573702559,37775,282681,215853
1630573702569,37750,282685,215865
1630573702579,37750,282620,215851
1630573702589,37744,282608,215799
1630573702599,37744,282608,215808
1630573702609,37727,282552,215823
1630573702619,37734,282542,215792
1630573702629,37724,282527,215800
1630573702639,37714,282524,215776
1630573702649,37718,282476,215763
1630573702659,37704,282496,215761
1630573702669,37706,282467,215775
1630573702679,37702,282469,215762
1630573702689,37701,282449,215721
1630573702699,37696,282425,215750
1630573702709,37691,282386,215714
1630573702719,37688,282401,215730
1630573702729,37692,282386,215711
1630573702739,37693,282433,215697
1630573702749,37674,282383,215719
1630573702759,37671,282389,215699
1630573702769,37689,282396,215700
1630573702779,37678,282388,215689
1630573702789,37675,282379,215652
1630573702799,37665,282383,215679
1630573702809,37664,282371,215643
1630573702819,37662,282343,215651
1630573702829,37655,282393,215639
1630573702839,37656,282343,215655
1630573702849,37661,282322,215642
1630573702859,37656,282359,215641
1630573702869,37655,282355,215627
1630573702879,37656,282336,215649
1630573702889,37653,282319,215610
1630573702899,37666,282324,215621
1630573702909,37665,282362,215621
1630573702919,37667,282325,215599
1630573702929,37662,282321,215609
1630573702939,37667,282375,215594
1630573702949,37662,282329,215609
1630573702959,37673,282322,215598
1630573702969,37670,282329,215600
1630573702979,37667,282321,215611
1630573702989,37667,282359,215589
1630573702999,37660,282320,215597
1630573703009,37662,282334,215610
1630573703019,37663,282311,215575
1630573703029,37663,282341,215541
1630573703039,37666,282343,215553
1630573703049,37675,282332,215535
1630573703059,37672,282321,215548
1630573703069,37680,282369,215550
1630573703079,37677,282370,215548
1630573703089,37677,282329,215561
1630573703099,37683,282369,215544
1630573703109,37684,282307,215563
1630573703119,37683,282351,215558
1630573703129,37688,282347,215549
1630573703139,37686,282378,215556
1630573703149,37695,282417,215541
1630573703159,37684,282369,215557
1630573703169,37684,282400,215531
1630573703179,37694,282442,215538
1630573703189,37697,282412,215563
1630573703199,37704,282411,215533
1630573703209,37690,282428,215541
1630573703219,37694,282414,215531
1630573703229,37703,282419,215536
1630573703239,37710,282389,215508
1630573703249,37710,282383,215507
1630573703259,37710,282417,215525
1630573703269,37701,282458,215517
1630573703279,37715,282431,215517
1630573703289,37703,282437,215528
1630573703299,37708,282457,215498
1630573703309,37711,282474,215489
1630573703319,37718,282469,215505
1630573703329,37722,282464,215506
1630573703339,37738,282462,215526
1630573703349,37729,282469,215514
1630573703359,37739,282486,215507
1630573703369,37739,282475,215513
1630573703379,37735,282521,215510
1630573703389,37740,282468,215496
1630573703399,37739,282461,215508
1630573703409,37735,282454,215488
1630573703419,37726,282436,215489
1630573703429,37730,282428,215485
1630573703439,37730,282407,215480
1630573703449,37714,282445,215444
1630573703459,37702,282375,215475
1630573703469,37693,282350,215463
1630573703479,37692,282330,215452
1630573703489,37690,282331,215457
1630573703499,37684,282294,215459
1630573703509,37668,282327,215446
1630573703519,37670,282285,215476
1630573703529,37655,282260,215464
1630573703539,37657,282237,215452
1630573703549,37643,282245,215478
1630573703559,37639,282264,215456
1630573703569,37637,282207,215447
1630573703579,37628,282195,215436
1630573703589,37618,282149,215454
1630573703599,37613,282168,215440
1630573703609,37608,282145,215431
1630573703619,37599,282128,215427
1630573703629,37587,282141,215450
1630573703639,37593,282133,215461
1630573703649,37587,282143,215423
1630573703659,37588,282105,215452
1630573703669,37581,282107,215445
1630573703679,37578,282085,215442
1630573703689,37575,282107,215441
1630573703699,37570,282109,215427
1630573703709,37570,282080,215439
1630573703719,37566,282089,215433
1630573703729,37562,282106,215456
1630573703739,37561,282079,215455
1630573703749,37560,282076,215440
1630573703759,37557,282067,215438
1630573703769,37549,282058,215425
1630573703779,37544,282100,215445
1630573703789,37540,282042,215433
1630573703799,37537,282061,215443
1630573703809,37537,282046,215426
1630573703819,37535,282088,215435
1630573703829,37531,282111,215428
1630573703839,37533,282071,215438
1630573703849,37530,282081,215418
1630573703859,37542,282079,215453
1630573703869,37531,282090,215439
1630573703879,37537,282120,215462
1630573703889,37528,282087,215466
1630573703899,37527,282116,215448
1630573703909,37539,282082,215463
1630573703919,37535,282092,215470
1630573703929,37537,282107,215446
1630573703939,37531,282113,215471
1630573703949,37536,282113,215487
1630573703959,37540,282127,215459
1630573703969,37547,282119,215471
1630573703979,37547,282099,215478
1630573703989,37541,282156,215478
1630573703999,37546,282095,215465
1630573704009,37546,282166,215469
1630573704019,37555,282149,215472
1630573704029,37557,282136,215484
1630573704039,37557,282132,215494
1630573704049,37560,282154,215472
1630573704059,37565,282155,215483
1630573704069,37562,282216,215479
1630573704079,37568,282200,215471
1630573704089,37564,282182,215475
1630573704099,37565,282167,215482
1630573704109,37574,282230,215500
1630573704119,37576,282204,215482
1630573704129,37583,282244,215508
1630573704139,37586,282207,215508
1630573704149,37579,282259,215507
1630573704159,37583,282245,215500
1630573704169,37586,282278,215497
1630573704179,37578,282258,215476
1630573704189,37589,282251,215504
1630573704199,37594,282303,215502
1630573704209,37601,282222,215504
1630573704219,37601,282289,215496
1630573704229,37606,282309,215504
1630573704239,37613,282296,215530
1630573704249,37607,282294,215526
1630573704259,37610,282335,215526
1630573704269,37613,282333,215520
1630573704279,37617,282359,215520
1630573704289,37620,282339,215517
1630573704299,37630,282373,215541
1630573704309,37624,282370,215546
1630573704319,37628,282384,215544
1630573704329,37636,282379,215517
1630573704339,37642,282376,215557
1630573704349,37649,282388,215528
1630573704359,37641,282390,215534
1630573704369,37631,282366,215540
1630573704379,37639,282288,215538
1630573704389,37628,282355,215538
1630573704399,37622,282294,215534
1630573704409,37611,282283,215511
1630573704419,37601,282284,215507
1630573704429,37590,282290,215537
1630573704439,37576,282233,215520
1630573704449,37565,282186,215494
1630573704459,37555,282188,215533
1630573704469,37553,282198,215521
1630573704479,37543,282135,215490
1630573704489,37526,282133,215524
1630573704499,37526,282109,215502
1630573704509,37513,282154,215494
1630573704519,37508,282058,215486
1630573704529,37489,282067,215465
1630573704539,37484,282082,215508
1630573704549,37475,282029,215472
1630573704559,37467,282019,215504
1630573704569,37454,282020,215476
1630573704579,37443,281969,215491
1630573704589,37432,281966,215498
1630573704599,37420,281928,215477
1630573704609,37419,281941,215487
1630573704619,37415,281953,215493
1630573704629,37406,281976,215472
1630573704639,37398,281912,215483
1630573704649,37407,281917,215494
1630573704659,37400,281956,215483
1630573704669,37389,281925,215487
1630573704679,37394,281880,215489
1630573704689,37388,281906,215500
1630573704699,37395,281917,215508
1630573704709,37384,281912,215505
1630573704719,37396,281892,215502
1630573704729,37387,281908,215504
1630573704739,37392,281870,215482
1630573704749,37382,281890,215491
1630573704759,37377,281849,215489
1630573704769,37378,281881,215484
1630573704779,37374,281882,215505
1630573704789,37370,281870,215502
1630573704799,37369,281823,215519
1630573704809,37378,281906,215495
1630573704819,37369,281897,215500
1630573704829,37385,281879,215514
1630573704839,37384,281887,215526
1630573704849,37387,281904,215522
1630573704859,37380,281888,215524
1630573704869,37380,281906,215513
1630573704879,37367,281906,215521
1630573704889,37383,281934,215536
1630573704899,37374,281895,215542
1630573704909,37387,281867,215521
1630573704919,37384,281917,215532
1630573704929,37391,281958,215549
1630573704939,37379,281969,215558
1630573704949,37379,281945,215531
1630573704959,37383,281936,215558
1630573704969,37386,281944,215551
1630573704979,37385,281958,215567
1630573704989,37393,281934,215562
1630573704999,37395,281955,215549
1630573705009,37393,281981,215569
1630573705019,37401,281957,215572
1630573705029,37399,281985,215571
1630573705039,37402,282031,215603
1630573705049,37398,281978,215579
1630573705059,37405,282008,215587
1630573705069,37405,282027,215586
1630573705079,37412,282011,215589
1630573705089,37413,282057,215597
1630573705099,37412,282019,215584
1630573705109,37423,282050,215562
1630573705119,37418,282086,215585
1630573705129,37429,282073,215586
1630573705139,37436,282080,215588
1630573705149,37433,282111,215612
1630573705159,37444,282105,215605
1630573705169,37440,282142,215617
1630573705179,37440,282099,215602
1630573705189,37445,282107,215608
1630573705199,37450,282097,215610
1630573705209,37462,282128,215626
1630573705219,37460,282155,215623
1630573705229,37467,282165,215609
1630573705239,37456,282206,215657
1630573705249,37475,282207,215626
1630573705259,37477,282207,215617
1630573705269,37484,282176,215645
1630573705279,37486,282194,215648
1630573705289,37490,282221,215632
1630573705299,37494,282255,215650
1630573705309,37501,282255,215645
1630573705319,37510,282284,215670
1630573705329,37501,282246,215636
1630573705339,37505,282276,215667
1630573705349,37523,282295,215659
1630573705359,37524,282282,215679
1630573705369,37526,282249,215654
1630573705379,37515,282267,215665
1630573705389,37510,282269,215662
1630573705399,37509,282231,215667
1630573705409,37497,282185,215662
1630573705419,37485,282174,215666
1630573705429,37472,282146,215657
1630573705439,37463,282174,215661
1630573705449,37460,282104,215660
1630573705459,37447,282082,215659
1630573705469,37434,282059,215645
1630573705479,37428,282077,215656
1630573705489,37436,282084,215656
1630573705499,37410,282030,215649
1630573705509,37410,282026,215691
1630573705519,37397,281999,215655
1630573705529,37399,281979,215648
1630573705539,37391,281960,215654
1630573705549,37378,281900,215641
1630573705559,37369,281927,215645
1630573705569,37350,281919,215639
1630573705579,37339,281915,215621
1630573705589,37335,281909,215658
1630573705599,37330,281902,215666
1630573705609,37324,281896,215660
1630573705619,37312,281869,215664
1630573705629,37320,281877,215649
1630573705639,37321,281878,215653
1630573705649,37313,281880,215680
1630573705659,37326,281843,215677
1630573705669,37316,281863,215682
1630573705679,37314,281872,215686
1630573705689,37303,281871,215704
1630573705699,37302,281877,215710
1630573705709,37307,281843,215713
1630573705719,37294,281839,215693
1630573705729,37298,281862,215706
1630573705739,37303,281901,215706
1630573705749,37296,281881,215718
1630573705759,37293,281943,215718
1630573705769,37292,281885,215736
1630573705779,37293,281849,215744
1630573705789,37292,281874,215757
1630573705799,37302,281913,215756
1630573705809,37305,281910,215750
1630573705819,37300,281919,215723
1630573705829,37300,281874,215764
1630573705839,37294,281900,215773
1630573705849,37302,281946,215760
1630573705859,37308,281979,215774
1630573705869,37301,281946,215799
1630573705879,37318,281945,215802
1630573705889,37308,281935,215803
1630573705899,37310,281968,215806
1630573705909,37319,281979,215814
1630573705919,37324,281993,215822
1630573705929,37323,281951,215800
1630573705939,37320,281979,215823
1630573705949,37323,282004,215850
1630573705959,37330,282033,215823
1630573705969,37343,282026,215867
1630573705979,37345,282082,215847
1630573705989,37355,282064,215872
1630573705999,37347,282041,215837
1630573706009,37359,282071,215869
1630573706019,37373,282066,215889
1630573706029,37375,282091,215892
1630573706039,37377,282132,215927
1630573706049,37379,282119,215925
1630573706059,37382,282137,215907
1630573706069,37395,282138,215916
1630573706079,37396,282157,215932
1630573706089,37403,282188,215938
1630573706099,37403,282183,215933
1630573706109,37411,282158,215948
1630573706119,37420,282182,215973
1630573706129,37425,282172,215967
1630573706139,37422,282221,215947
1630573706149,37426,282224,215954
1630573706159,37438,282218,215935
1630573706169,37444,282241,215942
1630573706179,37446,282258,215961
1630573706189,37444,282218,215955
1630573706199,37453,282256,215954
1630573706209,37460,282235,215943
1630573706219,37455,282250,215934
1630573706229,37464,282272,215952
1630573706239,37459,282293,215934
1630573706249,37472,282280,215948
1630573706259,37477,282321,215945
1630573706269,37477,282342,215943
1630573706279,37490,282324,215944
1630573706289,37481,282341,215957
1630573706299,37492,282328,215945
1630573706309,37499,282353,215922
1630573706319,37499,282344,215917
1630573706329,37503,282369,215946
1630573706339,37512,282359,215920
1630573706349,37510,282371,215935
1630573706359,37523,282398,215924
1630573706369,37534,282399,215940
1630573706379,37528,282437,215946
1630573706389,37538,282417,215948
1630573706399,37534,282402,215957
1630573706409,37532,282408,215949
1630573706419,37529,282351,215952
1630573706429,37531,282415,215959
1630573706439,37520,282357,215922
1630573706449,37513,282348,215925
1630573706459,37507,282306,215907
1630573706469,37510,282310,215917
1630573706479,37505,282285,215900
1630573706489,37487,282286,215908
1630573706499,37474,282251,215912
1630573706509,37483,282261,215901
1630573706519,37471,282221,215916
1630573706529,37468,282239,215894
1630573706539,37468,282250,215893
1630573706549,37457,282203,215904
1630573706559,37450,282171,215887
1630573706569,37443,282158,215875
1630573706579,37437,282147,215890
1630573706589,37430,282102,215907
1630573706599,37423,282147,215866
1630573706609,37438,282070,215881
1630573706619,37419,282085,215869
1630573706629,37419,282107,215873
1630573706639,37429,282061,215874
1630573706649,37412,282072,215863
1630573706659,37412,282071,215890
1630573706669,37415,282073,215884
1630573706679,37414,282091,215868
1630573706689,37406,282048,215861
1630573706699,37408,282058,215829
1630573706709,37411,282079,215852
1630573706719,37413,282085,215859
1630573706729,37410,282040,215851
1630573706739,37406,282089,215870
1630573706749,37413,282043,215869
1630573706759,37413,282050,215874
1630573706769,37414,282084,215865
1630573706779,37415,282039,215850
1630573706789,37418,282031,215855
1630573706799,37407,282084,215869
1630573706809,37398,282057,215848
1630573706819,37421,282068,215841
1630573706829,37419,282075,215851
1630573706839,37423,282061,215873
1630573706849,37425,282065,215853
1630573706859,37431,282114,215846
1630573706869,37424,282069,215876
1630573706879,37430,282084,215861
1630573706889,37429,282058,215861
1630573706899,37432,282087,215882
1630573706909,37441,282060,215863
1630573706919,37442,282139,215863
1630573706929,37443,282116,215871
1630573706939,37446,282147,215878
1630573706949,37454,282142,215887
1630573706959,37462,282106,215902
1630573706969,37465,282125,215874
1630573706979,37460,282161,215865
1630573706989,37465,282140,215892
1630573706999,37470,282148,215876
1630573707009,37472,282145,215871
1630573707019,37483,282201,215865
1630573707029,37476,282190,215872
1630573707039,37481,282215,215872
1630573707049,37490,282182,215846
1630573707059,37491,282211,215888
1630573707069,37494,282191,215873
1630573707079,37489,282195,215887
1630573707089,37501,282220,215869
1630573707099,37511,282254,215859
1630573707109,37509,282262,215864
1630573707119,37518,282292,215889
1630573707129,37521,282243,215898
1630573707139,37528,282290,215866
1630573707149,37534,282257,215861
1630573707159,37528,282280,215880
1630573707169,37539,282280,215856
1630573707179,37553,282328,215883
1630573707189,37551,282304,215876
1630573707199,37552,282342,215860
1630573707209,37561,282329,215868
1630573707219,37566,282342,215873
1630573707229,37567,282333,215884
1630573707239,37574,282374,215888
1630573707249,37573,282382,215856
1630573707259,37583,282359,215854
1630573707269,37588,282396,215889
1630573707279,37590,282393,215856
1630573707289,37599,282395,215871
1630573707299,37609,282410,215893
1630573707309,37610,282424,215878
1630573707319,37620,282474,215859
1630573707329,37627,282447,215871
1630573707339,37628,282466,215890
1630573707349,37634,282509,215850
1630573707359,37636,282473,215878
1630573707369,37643,282489,215868
1630573707379,37649,282522,215864
1630573707389,37652,282526,215872
1630573707399,37654,282495,215884
1630573707409,37657,282479,215856
1630573707419,37659,282443,215858
1630573707429,37654,282510,215881
1630573707439,37644,282458,215863
1630573707449,37648,282425,215859
1630573707459,37644,282403,215824
1630573707469,37648,282373,215819
1630573707479,37639,282386,215808
1630573707489,37637,282408,215828
1630573707499,37633,282343,215824
1630573707509,37624,282372,215816
1630573707519,37615,282357,215822
1630573707529,37612,282309,215802
1630573707539,37609,282364,215796
1630573707549,37605,282318,215798
1630573707559,37597,282322,215797
1630573707569,37603,282287,215786
1630573707579,37586,282314,215792
1630573707589,37604,282248,215786
1630573707599,37597,282250,215773
1630573707609,37591,282268,215740
1630573707619,37572,282244,215760
1630573707629,37583,282244,215760
1630573707639,37582,282242,215747
1630573707649,37578,282255,215771
1630573707659,37581,282242,215782
1630573707669,37584,282249,215753
1630573707679,37563,282246,215757
1630573707689,37567,282213,215755
1630573707699,37574,282236,215752
1630573707709,37575,282207,215743
1630573707719,37570,282226,215747
1630573707729,37564,282219,215717
1630573707739,37563,282205,215740
1630573707749,37575,282227,215691
1630573707759,37560,282190,215722
1630573707769,37565,282201,215724
1630573707779,37580,282192,215707
1630573707789,37563,282194,215692
1630573707799,37567,282196,215699
1630573707809,37558,282170,215684
1630573707819,37565,282211,215694
1630573707829,37566,282233,215693
1630573707839,37573,282193,215695
1630573707849,37571,282197,215678
1630573707859,37563,282225,215680
1630573707869,37566,282217,215701
1630573707879,37566,282206,215667
1630573707889,37572,282211,215667
1630573707899,37589,282174,215676
1630573707909,37594,282231,215702
1630573707919,37580,282219,215699
1630573707929,37585,282234,215690
1630573707939,37598,282275,215667
1630573707949,37587,282291,215678
1630573707959,37596,282269,215702
1630573707969,37605,282279,215692
1630573707979,37599,282300,215678
1630573707989,37607,282295,215696
1630573707999,37611,282309,215684
1630573708009,37612,282316,215690
1630573708019,37613,282354,215697
1630573708029,37614,282295,215697
1630573708039,37616,282356,215665
1630573708049,37625,282335,215685
1630573708059,37635,282334,215686
1630573708069,37639,282355,215691
1630573708079,37634,282366,215699
1630573708089,37651,282379,215701
1630573708099,37654,282406,215676
1630573708109,37644,282378,215690
1630573708119,37647,282420,215678
1630573708129,37660,282436,215676
1630573708139,37663,282452,215695
1630573708149,37670,282406,215672
1630573708159,37664,282448,215693
1630573708169,37674,282474,215668
1630573708179,37674,282469,215671
1630573708189,37680,282499,215700
1630573708199,37686,282481,215692
1630573708209,37693,282477,215679
1630573708219,37690,282474,215706
1630573708229,37697,282493,215690
1630573708239,37700,282487,215692
1630573708249,37708,282481,215695
1630573708259,37712,282537,215697
1630573708269,37721,282556,215663
1630573708279,37717,282541,215670
1630573708289,37716,282549,215665
1630573708299,37713,282580,215682
1630573708309,37729,282550,215685
1630573708319,37731,282569,215706
1630573708329,37739,282592,215710
1630573708339,37744,282560,215688
1630573708349,37746,282568,215694
1630573708359,37747,282618,215687
1630573708369,37749,282587,215712
1630573708379,37743,282553,215711
1630573708389,37735,282511,215690
1630573708399,37736,282520,215679
1630573708409,37737,282506,215701
1630573708419,37722,282467,215664
1630573708429,37715,282450,215664
1630573708439,37712,282453,215658
1630573708449,37705,282454,215675
1630573708459,37700,282423,215658
1630573708469,37687,282403,215645
1630573708479,37693,282384,215638
1630573708489,37687,282368,215643
1630573708499,37677,282372,215619
1630573708509,37664,282324,215625
1630573708519,37664,282357,215610
1630573708529,37650,282316,215606
1630573708539,37645,282264,215639
1630573708549,37645,282293,215629
1630573708559,37635,282264,215627
1630573708569,37634,282236,215607
1630573708579,37626,282226,215589
1630573708589,37619,282238,215591
1630573708599,37612,282219,215586
1630573708609,37616,282241,215607
1630573708619,37607,282211,215585
1630573708629,37610,282183,215612
1630573708639,37621,282223,215595
1630573708649,37606,282214,215597
1630573708659,37594,282235,215589
1630573708669,37597,282218,215609
1630573708679,37588,282210,215590
1630573708689,37583,282146,215587
1630573708699,37588,282193,215577
1630573708709,37597,282172,215586
1630573708719,37591,282181,215584
1630573708729,37597,282163,215575
1630573708739,37597,282188,215578
1630573708749,37586,282169,215574
1630573708759,37583,282181,215572
1630573708769,37586,282144,215579
1630573708779,37593,282187,215587
1630573708789,37590,282142,215576
1630573708799,37592,282163,215574
1630573708809,37591,282156,215576
1630573708819,37580,282204,215581
1630573708829,37585,282177,215588
1630573708839,37588,282157,215599
1630573708849,37590,282177,215606
1630573708859,37593,282156,215592
1630573708869,37590,282187,215581
1630573708879,37598,282187,215595
1630573708889,37601,282204,215592
1630573708899,37601,282191,215595
1630573708909,37604,282243,215603
1630573708919,37600,282227,215582
1630573708929,37610,282219,215589
1630573708939,37612,282204,215598
1630573708949,37612,282203,215594
1630573708959,37615,282251,215600
1630573708969,37612,282241,215635
1630573708979,37615,282224,215597
1630573708989,37617,282268,215595
1630573708999,37619,282250,215601
1630573709009,37623,282229,215596
1630573709019,37629,282272,215601
1630573709029,37626,282262,215603
1630573709039,37623,282293,215600
1630573709049,37633,282275,215594
1630573709059,37643,282294,215607
1630573709069,37652,282318,215627
1630573709079,37635,282305,215609
1630573709089,37658,282332,215620
1630573709099,37646,282345,215613
1630573709109,37654,282315,215626
1630573709119,37645,282338,215622
1630573709129,37661,282331,215612
1630573709139,37663,282377,215652
1630573709149,37655,282333,215615
1630573709159,37660,282352,215617
1630573709169,37664,282394,215641
1630573709179,37668,282376,215631
1630573709189,37690,282358,215613
1630573709199,37674,282404,215647
1630573709209,37695,282399,215643
1630573709219,37690,282411,215647
1630573709229,37688,282468,215626
1630573709239,37684,282421,215632
1630573709249,37703,282473,215657
1630573709259,37693,282437,215611
1630573709269,37700,282485,215625
1630573709279,37712,282498,215642
1630573709289,37710,282470,215651
1630573709299,37717,282509,215659
1630573709309,37725,282510,215644
1630573709319,37723,282509,215665
1630573709329,37726,282508,215661
1630573709339,37731,282516,215685
1630573709349,37736,282476,215669
1630573709359,37719,282444,215689
1630573709369,37732,282458,215662
1630573709379,37713,282431,215652
1630573709389,37696,282384,215639
1630573709399,37704,282418,215649
1630573709409,37697,282372,215632
1630573709419,37688,282318,215625
1630573709429,37678,282347,215614
1630573709439,37657,282288,215592
1630573709449,37658,282252,215608
1630573709459,37644,282251,215616
1630573709469,37643,282251,215598
1630573709479,37631,282260,215619
1630573709489,37625,282199,215607
1630573709499,37613,282194,215596
1630573709509,37603,282179,215598
1630573709519,37597,282136,215578
1630573709529,37592,282092,215604
1630573709539,37570,282117,215605
1630573709549,37567,282128,215593
1630573709559,37559,282070,215593
1630573709569,37548,282021,215595
1630573709579,37554,282049,215585
1630573709589,37546,282001,215615
1630573709599,37531,282037,215602
1630573709609,37531,281981,215560
1630573709619,37521,281996,215592
1630573709629,37525,282003,215595
1630573709639,37516,282018,215611
1630573709649,37510,281993,215582
1630573709659,37508,281970,215603
1630573709669,37499,281959,215593
1630573709679,37501,281979,215582
1630573709689,37508,281943,215611
1630573709699,37501,281961,215616
1630573709709,37491,281959,215628
1630573709719,37499,281952,215616
1630573709729,37495,281912,215610
1630573709739,37488,281940,215641
1630573709749,37482,281922,215632
1630573709759,37484,281930,215632
1630573709769,37478,281957,215627
1630573709779,37476,281939,215650
1630573709789,37478,281938,215640
1630573709799,37471,281907,215602
1630573709809,37473,281959,215647
1630573709819,37473,281912,215641
1630573709829,37475,281907,215636
1630573709839,37474,281953,215652
1630573709849,37488,281915,215643
1630573709859,37480,281950,215665
1630573709869,37489,281954,215648
1630573709879,37476,281939,215661
1630573709889,37485,281957,215663
1630573709899,37486,281945,215675
1630573709909,37479,281981,215663
1630573709919,37479,281989,215691
1630573709929,37484,282004,215687
1630573709939,37480,281981,215687
1630573709949,37483,281953,215683
1630573709959,37486,281999,215663
1630573709969,37493,282001,215692
1630573709979,37496,282015,215708
1630573709989,37500,282011,215701
1630573709999,37497,281987,215689
1630573710009,37498,282064,215743
1630573710019,37498,281996,215691
1630573710029,37503,282031,215721
1630573710039,37508,282055,215703
1630573710049,37508,282008,215731
1630573710059,37509,282037,215717
1630573710069,37509,282051,215716
1630573710079,37511,282052,215725
1630573710089,37515,282050,215740
1630573710099,37511,282082,215745
1630573710109,37518,282075,215757
1630573710119,37517,282090,215739
1630573710129,37522,282100,215747
1630573710139,37528,282111,215747
1630573710149,37526,282128,215767
1630573710159,37527,282113,215756
1630573710169,37532,282135,215785
1630573710179,37540,282148,215786
1630573710189,37539,282109,215769
1630573710199,37544,282155,215788
1630573710209,37547,282207,215815
1630573710219,37562,282164,215782
1630573710229,37556,282183,215781
1630573710239,37563,282238,215799
1630573710249,37562,282174,215798
1630573710259,37570,282199,215774
1630573710269,37568,282212,215816
1630573710279,37569,282229,215802
1630573710289,37574,282213,215817
1630573710299,37573,282261,215802
1630573710309,37579,282257,215821
1630573710319,37589,282259,215825
1630573710329,37598,282267,215839
1630573710339,37605,282251,215840
1630573710349,37595,282301,215847
1630573710359,37627,282338,215852
1630573710369,37614,282323,215854
1630573710379,37602,282261,215843
1630573710389,37597,282282,215833
1630573710399,37593,282264,215835
1630573710409,37576,282229,215841
1630573710419,37571,282204,215837
1630573710429,37555,282188,215840
1630573710439,37540,282147,215819
1630573710449,37531,282120,215828
1630573710459,37519,282117,215821
1630573710469,37504,282054,215778
1630573710479,37488,282059,215806
1630573710489,37474,282039,215824
1630573710499,37475,281990,215835
1630573710509,37467,281971,215821
1630573710519,37462,281990,215803
1630573710529,37438,281924,215820
1630573710539,37428,281931,215815
1630573710549,37419,281972,215807
1630573710559,37412,281898,215819
1630573710569,37405,281886,215828
1630573710579,37387,281900,215827
1630573710589,37385,281884,215820
1630573710599,37365,281816,215811
1630573710609,37355,281824,215823
1630573710619,37351,281810,215822
1630573710629,37348,281792,215836
1630573710639,37351,281809,215838
1630573710649,37341,281806,215839
1630573710659,37334,281802,215864
1630573710669,37339,281807,215874
1630573710679,37335,281805,215887
1630573710689,37323,281754,215877
1630573710699,37326,281766,215875
1630573710709,37320,281785,215898
1630573710719,37314,281794,215877
1630573710729,37316,281759,215887
1630573710739,37311,281771,215897
1630573710749,37302,281780,215885
1630573710759,37305,281733,215900
1630573710769,37300,281762,215880
1630573710779,37297,281742,215904
1630573710789,37294,281773,215899
1630573710799,37298,281762,215912
1630573710809,37292,281749,215919
1630573710819,37289,281782,215938
1630573710829,37298,281744,215943
1630573710839,37291,281766,215929
1630573710849,37299,281792,215943
1630573710859,37305,281826,215949
1630573710869,37296,281815,215944
1630573710879,37296,281786,215941
1630573710889,37297,281796,215978
1630573710899,37306,281782,215979
1630573710909,37300,281823,215977
1630573710919,37297,281844,215960
1630573710929,37304,281824,215965
1630573710939,37306,281828,215968
1630573710949,37305,281813,215951
1630573710959,37316,281835,215976
1630573710969,37313,281889,215982
1630573710979,37309,281806,216005
1630573710989,37318,281855,216000
1630573710999,37334,281872,215986
1630573711009,37324,281894,216008
1630573711019,37328,281894,215991
1630573711029,37322,281873,216022
1630573711039,37335,281918,216014
1630573711049,37341,281876,216032
1630573711059,37339,281910,216020
1630573711069,37335,281926,216000
1630573711079,37336,281937,216037
1630573711089,37341,281923,216034
1630573711099,37339,281950,216024
1630573711109,37349,281957,216023
1630573711119,37352,281949,216032
1630573711129,37356,282004,216037
1630573711139,37360,281971,216039
1630573711149,37363,281962,216044
1630573711159,37371,281942,216023
1630573711169,37371,281998,216042
1630573711179,37377,281997,216047
1630573711189,37375,282048,216032
1630573711199,37390,282008,216056
1630573711209,37385,282054,216085
1630573711219,37389,282047,216095
1630573711229,37398,282051,216038
1630573711239,37394,282094,216076
1630573711249,37397,282070,216077
1630573711259,37400,282112,216086
1630573711269,37407,282085,216089
1630573711279,37411,282137,216076
1630573711289,37411,282138,216083
1630573711299,37419,282147,216085
1630573711309,37433,282187,216097
1630573711319,37433,282151,216113
1630573711329,37436,282185,216091
1630573711339,37447,282186,216107
1630573711349,37442,282171,216127
1630573711359,37456,282218,216118
1630573711369,37455,282228,216129
1630573711379,37454,282191,216128
1630573711389,37467,282261,216094
1630573711399,37455,282220,216125
1630573711409,37449,282181,216130
1630573711419,37444,282212,216105
1630573711429,37441,282142,216121
1630573711439,37431,282165,216113
1630573711449,37427,282146,216117
1630573711459,37424,282104,216098
1630573711469,37408,282125,216099
1630573711479,37398,282085,216105
1630573711489,37391,282068,216073
1630573711499,37401,282028,216075
1630573711509,37384,282040,216073
1630573711519,37375,282028,216077
1630573711529,37367,281984,216079
1630573711539,37364,281997,216049
1630573711549,37356,281986,216072
1630573711559,37343,281955,216077
1630573711569,37339,281926,216104
1630573711579,37332,281906,216055
1630573711589,37321,281906,216082
1630573711599,37312,281942,216077
1630573711609,37309,281916,216092
1630573711619,37319,281884,216102
1630573711629,37295,281912,216084
1630573711639,37305,281901,216070
1630573711649,37300,281872,216091
1630573711659,37299,281901,216067
1630573711669,37296,281875,216099
1630573711679,37292,281893,216094
1630573711689,37290,281893,216100
1630573711699,37291,281897,216097
1630573711709,37290,281868,216087
1630573711719,37293,281894,216087
1630573711729,37280,281894,216085
1630573711739,37288,281901,216100
1630573711749,37285,281883,216073
1630573711759,37284,281897,216111
1630573711769,37281,281899,216094
1630573711779,37287,281923,216089
1630573711789,37296,281887,216132
1630573711799,37302,281885,216117
1630573711809,37293,281911,216101
1630573711819,37303,281895,216129
1630573711829,37309,281916,216118
1630573711839,37297,281880,216127
1630573711849,37307,281934,216136
1630573711859,37306,281948,216119
1630573711869,37305,281932,216140
1630573711879,37309,281928,216132
1630573711889,37315,281937,216143
1630573711899,37319,281952,216140
1630573711909,37324,281966,216149
1630573711919,37320,281953,216144
1630573711929,37320,282001,216136
1630573711939,37330,281985,216142
1630573711949,37329,281993,216131
1630573711959,37337,281999,216171
1630573711969,37334,282013,216165
1630573711979,37344,282012,216160
1630573711989,37348,282042,216179
1630573711999,37353,282064,216179
1630573712009,37360,282057,216195
1630573712019,37361,282080,216165
1630573712029,37361,282052,216189
1630573712039,37369,282084,216184
1630573712049,37367,282090,216164
1630573712059,37373,282148,216171
1630573712069,37376,282138,216208
1630573712079,37379,282079,216173
1630573712089,37385,282129,216218
1630573712099,37395,282126,216213
1630573712109,37409,282177,216215
1630573712119,37411,282181,216215
1630573712129,37414,282193,216208
1630573712139,37401,282210,216198
1630573712149,37422,282261,216212
1630573712159,37423,282252,216214
1630573712169,37423,282230,216200
1630573712179,37428,282231,216211
1630573712189,37441,282283,216223
1630573712199,37448,282309,216221
1630573712209,37451,282276,216241
1630573712219,37448,282298,216221
1630573712229,37461,282278,216230
1630573712239,37463,282295,216220
1630573712249,37478,282328,216220
1630573712259,37478,282372,216236
1630573712269,37493,282362,216242
1630573712279,37486,282366,216241
1630573712289,37506,282397,216262
1630573712299,37511,282386,216240
1630573712309,37513,282410,216247
1630573712319,37522,282410,216269
1630573712329,37523,282432,216266
1630573712339,37533,282410,216259
1630573712349,37538,282391,216251
1630573712359,37551,282417,216285
1630573712369,37547,282446,216281
1630573712379,37540,282416,216257
1630573712389,37547,282410,216256
1630573712399,37543,282381,216269
1630573712409,37545,282404,216258
1630573712419,37537,282396,216247
1630573712429,37532,282380,216244
1630573712439,37535,282354,216244
1630573712449,37528,282338,216239
1630573712459,37516,282343,216235
1630573712469,37515,282342,216240
1630573712479,37509,282323,216235
1630573712489,37507,282318,216232
1630573712499,37508,282277,216224
1630573712509,37509,282285,216237
1630573712519,37501,282271,216235
1630573712529,37500,282264,216233
1630573712539,37497,282235,216224
1630573712549,37485,282248,216219
1630573712559,37479,282284,216206
1630573712569,37475,282229,216225
1630573712579,37472,282246,216212
1630573712589,37479,282171,216187
1630573712599,37478,282187,216201
1630573712609,37473,282178,216222
1630573712619,37464,282203,216204
1630573712629,37467,282182,216210
1630573712639,37459,282191,216201
1630573712649,37473,282216,216187
1630573712659,37470,282173,216207
1630573712669,37470,282200,216174
1630573712679,37460,282162,216171
1630573712689,37470,282176,216211
1630573712699,37470,282156,216198
1630573712709,37466,282176,216195
1630573712719,37462,282193,216208
1630573712729,37467,282176,216173
1630573712739,37472,282167,216192
1630573712749,37480,282176,216168
1630573712759,37485,282215,216183
1630573712769,37482,282183,216173
1630573712779,37487,282205,216171
1630573712789,37486,282217,216185
1630573712799,37487,282223,216167
1630573712809,37487,282245,216192
1630573712819,37491,282174,216168
1630573712829,37493,282220,216174
1630573712839,37501,282215,216176
1630573712849,37503,282256,216171
1630573712859,37500,282223,216158
1630573712869,37505,282236,216157
1630573712879,37503,282248,216169
1630573712889,37515,282241,216170
1630573712899,37513,282240,216194
1630573712909,37517,282266,216160
1630573712919,37527,282255,216174
1630573712929,37536,282313,216173
1630573712939,37531,282295,216180
1630573712949,37538,282285,216169
1630573712959,37547,282320,216149
1630573712969,37537,282297,216183
1630573712979,37546,282300,216175
1630573712989,37560,282347,216177
1630573712999,37546,282295,216176
1630573713009,37557,282310,216167
1630573713019,37568,282368,216177
1630573713029,37574,282360,216188
1630573713039,37570,282325,216167
1630573713049,37580,282365,216197
1630573713059,37593,282396,216184
1630573713069,37591,282365,216188
1630573713079,37594,282397,216172
1630573713089,37597,282388,216184
1630573713099,37586,282413,216152
1630573713109,37604,282435,216193
1630573713119,37609,282419,216186
1630573713129,37614,282457,216173
1630573713139,37618,282451,216192
1630573713149,37626,282436,216184
1630573713159,37626,282455,216152
1630573713169,37637,282498,216163
1630573713179,37642,282461,216156
1630573713189,37636,282481,216198
1630573713199,37643,282483,216175
1630573713209,37656,282494,216178
1630573713219,37653,282520,216212
1630573713229,37660,282562,216165
1630573713239,37668,282551,216185
1630573713249,37675,282586,216170
1630573713259,37678,282557,216155
1630573713269,37684,282593,216164
1630573713279,37698,282611,216183
1630573713289,37696,282587,216168
1630573713299,37696,282632,216167
1630573713309,37711,282649,216189
1630573713319,37713,282664,216176
1630573713329,37716,282678,216182
1630573713339,37735,282645,216180
1630573713349,37741,282657,216166
1630573713359,37735,282656,216172
1630573713369,37733,282636,216159
1630573713379,37735,282641,216182
1630573713389,37731,282626,216164
1630573713399,37723,282635,216173
1630573713409,37721,282629,216162
1630573713419,37727,282583,216148
1630573713429,37724,282560,216156
1630573713439,37711,282578,216149
1630573713449,37716,282541,216146
1630573713459,37709,282577,216124
1630573713469,37703,282562,216103
1630573713479,37700,282499,216124
1630573713489,37689,282491,216104
1630573713499,37697,282472,216121
1630573713509,37678,282469,216113
1630573713519,37685,282439,216119
1630573713529,37680,282478,216094
1630573713539,37670,282438,216086
1630573713549,37665,282438,216086
1630573713559,37663,282391,216084
1630573713569,37656,282382,216078
1630573713579,37646,282382,216072
1630573713589,37661,282410,216058
1630573713599,37657,282364,216067
1630573713609,37658,282363,216070
1630573713619,37650,282378,216069
1630573713629,37646,282376,216041
1630573713639,37645,282395,216051
1630573713649,37638,282337,216026
1630573713659,37643,282354,216051
1630573713669,37633,282332,216045
1630573713679,37632,282359,216033
1630573713689,37635,282363,216046
1630573713699,37634,282355,216039
1630573713709,37639,282326,216042
1630573713719,37638,282348,216005
1630573713729,37637,282313,216021
1630573713739,37638,282338,216010
1630573713749,37628,282327,215995
1630573713759,37642,282323,215991
1630573713769,37634,282307,216013
1630573713779,37637,282321,215998
1630573713789,37634,282311,216010
1630573713799,37632,282322,216014
1630573713809,37636,282336,215975
1630573713819,37637,282293,215994
1630573713829,37637,282307,215998
1630573713839,37641,282339,215987
1630573713849,37647,282345,215974
1630573713859,37641,282362,215981
1630573713869,37642,282363,216011
1630573713879,37648,282378,215992
1630573713889,37645,282334,215965
1630573713899,37655,282391,216001
1630573713909,37664,282353,215980
1630573713919,37659,282330,215992
1630573713929,37659,282357,215961
1630573713939,37655,282374,215985
1630573713949,37673,282355,215981
1630573713959,37672,282372,215977
1630573713969,37665,282393,215948
1630573713979,37680,282377,215962
1630573713989,37684,282388,215966
1630573713999,37677,282420,215967
1630573714009,37678,282438,215965
1630573714019,37686,282431,215961
1630573714029,37695,282417,215969
1630573714039,37689,282389,215958
1630573714049,37689,282422,215981
1630573714059,37698,282399,215967
1630573714069,37699,282441,215966
1630573714079,37715,282413,215965
1630573714089,37716,282453,215978
1630573714099,37710,282473,215960
1630573714109,37717,282465,215946
1630573714119,37725,282515,215969
1630573714129,37725,282515,215964
1630573714139,37738,282495,215955
1630573714149,37736,282479,215951
1630573714159,37732,282503,215976
1630573714169,37738,282510,215969
1630573714179,37742,282554,215953
1630573714189,37739,282512,215959
1630573714199,37747,282586,215955
1630573714209,37747,282544,215957
1630573714219,37752,282542,215951
1630573714229,37759,282554,215934
1630573714239,37756,282584,215948
1630573714249,37773,282588,215970
1630573714259,37774,282579,215936
1630573714269,37776,282632,215946
1630573714279,37787,282631,215939
1630573714289,37787,282589,215935
1630573714299,37785,282651,215936
1630573714309,37788,282632,215948
1630573714319,37799,282691,215938
1630573714329,37793,282688,215943
1630573714339,37805,282669,215958
1630573714349,37808,282717,215945
1630573714359,37815,282706,215936
1630573714369,37823,282712,215960
1630573714379,37818,282687,215954
1630573714389,37821,282713,215949
1630573714399,37822,282678,215917
1630573714409,37823,282651,215943
1630573714419,37814,282615,215932
1630573714429,37818,282637,215942
1630573714439,37811,282602,215947
1630573714449,37805,282627,215909
1630573714459,37801,282548,215916
1630573714469,37789,282581,215901
1630573714479,37783,282523,215883
1630573714489,37782,282544,215901
1630573714499,37772,282499,215872
1630573714509,37762,282508,215894
1630573714519,37754,282481,215873
1630573714529,37754,282465,215856
1630573714539,37749,282486,215869
1630573714549,37728,282405,215870
1630573714559,37730,282385,215863
1630573714569,37722,282402,215865
1630573714579,37713,282380,215854
1630573714589,37712,282345,215825
1630573714599,37700,282310,215828
1630573714609,37696,282289,215831
1630573714619,37686,282293,215816
1630573714629,37684,282317,215821
1630573714639,37667,282293,215789
1630573714649,37677,282258,215816
1630573714659,37672,282259,215792
1630573714669,37668,282255,215813
1630573714679,37672,282245,215802
1630573714689,37653,282251,215818
1630573714699,37658,282225,215807
1630573714709,37651,282187,215814
1630573714719,37658,282218,215776
1630573714729,37654,282204,215800
1630573714739,37644,282237,215794
1630573714749,37650,282214,215787
1630573714759,37648,282190,215789
1630573714769,37650,282235,215789
1630573714779,37645,282198,215783
1630573714789,37648,282180,215782
1630573714799,37638,282182,215786
1630573714809,37637,282182,215755
1630573714819,37635,282144,215774
1630573714829,37634,282175,215779
1630573714839,37637,282155,215798
1630573714849,37639,282168,215739
1630573714859,37635,282190,215771
1630573714869,37645,282169,215781
1630573714879,37648,282210,215788
1630573714889,37651,282218,215778
1630573714899,37645,282218,215799
1630573714909,37658,282209,215765
1630573714919,37656,282202,215784
1630573714929,37650,282209,215770
1630573714939,37656,282235,215781
1630573714949,37654,282205,215783
1630573714959,37668,282207,215795
1630573714969,37661,282226,215786
1630573714979,37659,282196,215774
1630573714989,37664,282224,215774
1630573714999,37673,282241,215777
1630573715009,37674,282210,215756
1630573715019,37676,282246,215757
1630573715029,37676,282261,215782
1630573715039,37666,282247,215773
1630573715049,37671,282240,215766
1630573715059,37685,282273,215773
1630573715069,37694,282251,215784
1630573715079,37692,282272,215779
1630573715089,37687,282258,215783
1630573715099,37704,282263,215783
1630573715109,37701,282283,215790
1630573715119,37707,282283,215773
1630573715129,37703,282290,215782
1630573715139,37708,282311,215796
1630573715149,37704,282283,215787
1630573715159,37705,282306,215757
1630573715169,37714,282309,215782
1630573715179,37730,282348,215781
1630573715189,37718,282322,215795
1630573715199,37728,282338,215773
1630573715209,37724,282348,215776
1630573715219,37742,282353,215762
1630573715229,37731,282367,215768
1630573715239,37736,282325,215786
1630573715249,37744,282389,215772
1630573715259,37737,282390,215753
1630573715269,37745,282381,215771
1630573715279,37749,282373,215771
1630573715289,37757,282415,215796
1630573715299,37755,282402,215776
1630573715309,37755,282412,215762
1630573715319,37762,282418,215785
1630573715329,37769,282431,215775
1630573715339,37767,282429,215769
1630573715349,37781,282460,215802
1630573715359,37783,282468,215774
1630573715369,37778,282470,215797
1630573715379,37802,282481,215771
1630573715389,37790,282479,215789
1630573715399,37805,282513,215814
1630573715409,37805,282508,215787
1630573715419,37798,282516,215804
1630573715429,37804,282505,215778
1630573715439,37796,282502,215779
1630573715449,37793,282455,215778
1630573715459,37790,282484,215769
1630573715469,37783,282413,215756
1630573715479,37767,282387,215760
1630573715489,37764,282345,215769
1630573715499,37752,282332,215732
1630573715509,37746,282347,215734
1630573715519,37729,282303,215755
1630573715529,37728,282271,215733
1630573715539,37729,282292,215741
1630573715549,37705,282236,215751
1630573715559,37703,282242,215739
1630573715569,37694,282258,215733
1630573715579,37681,282197,215718
1630573715589,37672,282164,215736
1630573715599,37665,282178,215703
1630573715609,37653,282159,215707
1630573715619,37652,282121,215717
1630573715629,37639,282102,215681
1630573715639,37622,282105,215719
1630573715649,37615,282070,215709
1630573715659,37618,282125,215683
1630573715669,37602,282060,215687
1630573715679,37602,282044,215712
1630573715689,37596,282090,215698
1630573715699,37596,282043,215709
1630573715709,37594,282047,215702
1630573715719,37581,282031,215707
1630573715729,37584,282019,215692
1630573715739,37573,282004,215717
1630573715749,37571,282020,215726
1630573715759,37569,282035,215715
1630573715769,37556,282059,215697
1630573715779,37553,281988,215696
1630573715789,37556,281990,215690
1630573715799,37547,281981,215707
1630573715809,37547,281984,215692
1630573715819,37545,281980,215704
1630573715829,37541,281941,215696
1630573715839,37541,281947,215702
1630573715849,37539,282001,215711
1630573715859,37532,281938,215701
1630573715869,37539,281978,215731
1630573715879,37544,282002,215743
1630573715889,37547,281982,215702
1630573715899,37532,281959,215744
1630573715909,37533,281997,215721
1630573715919,37532,281962,215736
1630573715929,37540,282005,215727
1630573715939,37534,281991,215748
1630573715949,37543,281991,215743
1630573715959,37539,282003,215746
1630573715969,37534,281997,215771
1630573715979,37533,282005,215765
1630573715989,37542,282013,215767
1630573715999,37544,282003,215756
1630573716009,37544,282026,215766
1630573716019,37534,281996,215759
1630573716029,37543,282026,215765
1630573716039,37545,282056,215776
1630573716049,37547,282089,215772
1630573716059,37550,282052,215766
1630573716069,37554,282027,215801
1630573716079,37548,282055,215775
1630573716089,37554,282069,215776
1630573716099,37554,282045,215778
1630573716109,37550,282070,215792
1630573716119,37555,282056,215764
1630573716129,37559,282108,215814
1630573716139,37552,282091,215799
1630573716149,37564,282138,215813
1630573716159,37569,282117,215806
1630573716169,37566,282099,215803
1630573716179,37565,282122,215819
1630573716189,37567,282137,215835
1630573716199,37569,282138,215784
1630573716209,37577,282122,215821
1630573716219,37579,282156,215816
1630573716229,37591,282144,215829
1630573716239,37591,282162,215811
1630573716249,37587,282195,215792
1630573716259,37580,282194,215836
1630573716269,37586,282189,215833
1630573716279,37592,282185,215838
1630573716289,37596,282236,215856
1630573716299,37600,282229,215854
1630573716309,37607,282196,215858
1630573716319,37601,282183,215857
1630573716329,37622,282240,215873
1630573716339,37620,282240,215840
1630573716349,37612,282264,215845
1630573716359,37621,282306,215855
1630573716369,37633,282287,215876
1630573716379,37625,282267,215855
1630573716389,37627,282306,215861
1630573716399,37629,282314,215885
1630573716409,37630,282286,215876
1630573716419,37625,282268,215866
1630573716429,37614,282237,215845
1630573716439,37610,282232,215875
1630573716449,37598,282189,215852
1630573716459,37584,282129,215865
1630573716469,37570,282156,215841
1630573716479,37565,282112,215817
1630573716489,37551,282096,215841
1630573716499,37528,282100,215831
1630573716509,37520,282063,215833
1630573716519,37516,282058,215812
1630573716529,37508,282017,215839
1630573716539,37505,282001,215820
1630573716549,37491,281963,215821
1630573716559,37472,281973,215800
1630573716569,37469,281932,215826
1630573716579,37453,281898,215825
1630573716589,37442,281923,215827
1630573716599,37431,281934,215816
1630573716609,37419,281821,215809
1630573716619,37409,281856,215842
1630573716629,37402,281848,215814
1630573716639,37395,281797,215824
1630573716649,37381,281765,215820
1630573716659,37361,281802,215822
1630573716669,37368,281790,215845
1630573716679,37365,281803,215840
1630573716689,37359,281770,215836
1630573716699,37354,281759,215848
1630573716709,37353,281778,215823
1630573716719,37343,281758,215833
1630573716729,37346,281758,215843
1630573716739,37328,281744,215847
1630573716749,37327,281736,215830
1630573716759,37322,281719,215844
1630573716769,37324,281719,215849
1630573716779,37319,281714,215836
1630573716789,37324,281696,215844
1630573716799,37312,281713,215859
1630573716809,37308,281731,215851
1630573716819,37324,281745,215863
1630573716829,37315,281708,215861
1630573716839,37307,281723,215860
1630573716849,37311,281714,215855
1630573716859,37309,281761,215871
1630573716869,37305,281722,215900
1630573716879,37305,281760,215910
1630573716889,37314,281749,215870
1630573716899,37314,281717,215895
1630573716909,37311,281742,215909
1630573716919,37305,281739,215895
1630573716929,37310,281710,215887
1630573716939,37306,281755,215911
1630573716949,37309,281725,215921
1630573716959,37314,281819,215931
1630573716969,37317,281736,215920
1630573716979,37315,281790,215942
1630573716989,37317,281772,215938
1630573716999,37334,281781,215928
1630573717009,37321,281823,215940
1630573717019,37323,281805,215972
1630573717029,37322,281792,215917
1630573717039,37317,281832,215938
1630573717049,37328,281860,215943
1630573717059,37335,281791,215961
1630573717069,37332,281853,215951
1630573717079,37332,281838,215978
1630573717089,37336,281868,215957
1630573717099,37334,281844,215960
1630573717109,37342,281884,215971
1630573717119,37352,281884,215972
1630573717129,37355,281896,215988
1630573717139,37361,281921,215980
1630573717149,37357,281922,215995
1630573717159,37345,281912,215973
1630573717169,37354,281930,216001
1630573717179,37364,281965,215987
1630573717189,37366,281930,215994
1630573717199,37372,281969,216005
1630573717209,37379,281993,216005
1630573717219,37380,281990,216009
1630573717229,37380,281962,216028
1630573717239,37384,281992,215995
1630573717249,37386,281988,216043
1630573717259,37390,282071,216034
1630573717269,37395,282012,216016
1630573717279,37402,282053,216044
1630573717289,37411,282093,216021
1630573717299,37401,282050,216056
1630573717309,37415,282063,216032
1630573717319,37424,282049,216045
1630573717329,37417,282067,216060
1630573717339,37424,282076,216042
1630573717349,37434,282114,216061
1630573717359,37442,282110,216062
1630573717369,37456,282132,216083
1630573717379,37454,282160,216063
1630573717389,37439,282107,216062
1630573717399,37437,282109,216071
1630573717409,37432,282068,216054
1630573717419,37425,282084,216050
1630573717429,37422,282027,216042
1630573717439,37408,282033,216048
1630573717449,37397,281987,216063
1630573717459,37389,281963,216049
1630573717469,37370,281991,216045
1630573717479,37372,281955,216024
1630573717489,37357,281878,216022
1630573717499,37351,281905,216020
1630573717509,37341,281871,216021
1630573717519,37332,281871,216029
1630573717529,37322,281841,216034
1630573717539,37310,281816,216027
1630573717549,37301,281769,216013
1630573717559,37290,281790,216026
1630573717569,37278,281753,216029
1630573717579,37275,281784,216027
1630573717589,37260,281713,216044
1630573717599,37257,281744,216003
1630573717609,37251,281688,216011
1630573717619,37251,281665,216019
1630573717629,37233,281699,216024
1630573717639,37233,281680,216004
1630573717649,37230,281685,216038
1630573717659,37223,281671,216027
1630573717669,37218,281669,216051
1630573717679,37220,281620,216047
1630573717689,37217,281686,216062
1630573717699,37215,281607,216060
1630573717709,37208,281645,216060
1630573717719,37210,281629,216078
1630573717729,37206,281639,216049
1630573717739,37203,281649,216071
1630573717749,37199,281614,216062
1630573717759,37199,281607,216086
1630573717769,37203,281604,216075
1630573717779,37198,281659,216077
1630573717789,37202,281683,216094
1630573717799,37209,281668,216075
1630573717809,37207,281663,216093
1630573717819,37198,281623,216085
1630573717829,37202,281667,216108
1630573717839,37193,281667,216087
1630573717849,37205,281662,216116
1630573717859,37212,281643,216126
1630573717869,37208,281672,216133
1630573717879,37206,281677,216146
1630573717889,37209,281640,216114
1630573717899,37205,281673,216140
1630573717909,37207,281676,216136
1630573717919,37212,281714,216136
1630573717929,37210,281699,216150
1630573717939,37222,281695,216132
1630573717949,37228,281685,216146
1630573717959,37229,281733,216160
1630573717969,37230,281721,216190
1630573717979,37241,281735,216172
1630573717989,37241,281775,216176
1630573717999,37232,281753,216190
1630573718009,37247,281780,216184
1630573718019,37246,281794,216209
1630573718029,37256,281786,216171
1630573718039,37254,281778,216201
1630573718049,37263,281788,216198
1630573718059,37264,281852,216181
1630573718069,37268,281818,216204
1630573718079,37274,281840,216211
1630573718089,37277,281889,216230
1630573718099,37281,281856,216217
1630573718109,37283,281832,216213
1630573718119,37289,281840,216244
1630573718129,37273,281888,216248
1630573718139,37293,281899,216237
1630573718149,37304,281877,216259
1630573718159,37309,281930,216247
1630573718169,37309,281950,216270
1630573718179,37316,281936,216236
1630573718189,37323,281932,216249
1630573718199,37323,281967,216241
1630573718209,37332,281967,216252
1630573718219,37331,281986,216244
1630573718229,37334,282001,216271
1630573718239,37341,282015,216274
1630573718249,37349,282033,216265
1630573718259,37357,282016,216273
1630573718269,37350,282067,216265
1630573718279,37357,282077,216267
1630573718289,37381,282074,216305
1630573718299,37387,282100,216296
1630573718309,37373,282091,216304
1630573718319,37389,282090,216290
1630573718329,37391,282137,216296
1630573718339,37402,282120,216298
1630573718349,37412,282159,216306
1630573718359,37406,282152,216315
1630573718369,37407,282164,216303
1630573718379,37418,282202,216321
1630573718389,37425,282200,216315
1630573718399,37431,282209,216333
1630573718409,37427,282203,216328
1630573718419,37431,282160,216333
1630573718429,37434,282155,216332
1630573718439,37418,282164,216319
1630573718449,37424,282137,216310
1630573718459,37420,282146,216326
1630573718469,37419,282125,216318
1630573718479,37410,282056,216320
1630573718489,37396,282101,216283
1630573718499,37389,282051,216291
1630573718509,37387,282092,216319
1630573718519,37383,282016,216314
1630573718529,37384,282032,216301
1630573718539,37364,282001,216290
1630573718549,37365,281998,216286
1630573718559,37365,281971,216300
1630573718569,37356,281983,216327
1630573718579,37350,281991,216295
1630573718589,37349,282004,216292
1630573718599,37351,281948,216292
1630573718609,37351,281898,216286
1630573718619,37344,281912,216271
1630573718629,37327,281891,216290
1630573718639,37320,281930,216287
1630573718649,37321,281880,216282
1630573718659,37324,281905,216286
1630573718669,37325,281876,216286
1630573718679,37329,281931,216295
1630573718689,37326,281892,216308
1630573718699,37325,281899,216302
1630573718709,37314,281875,216282
1630573718719,37314,281880,216301
1630573718729,37322,281933,216313
1630573718739,37326,281921,216326
1630573718749,37322,281910,216307
1630573718759,37317,281868,216310
1630573718769,37340,281883,216284
1630573718779,37320,281892,216298
1630573718789,37327,281874,216300
1630573718799,37325,281907,216321
1630573718809,37331,281892,216300
1630573718819,37339,281907,216298
1630573718829,37335,281902,216306
1630573718839,37328,281929,216349
1630573718849,37331,281919,216292
1630573718859,37339,281881,216322
1630573718869,37340,281921,216316
1630573718879,37353,281960,216330
1630573718889,37344,281934,216322
1630573718899,37366,281957,216321
1630573718909,37362,281940,216338
1630573718919,37382,281990,216305
1630573718929,37376,281988,216347
1630573718939,37372,281954,216332
1630573718949,37373,281978,216312
1630573718959,37374,282039,216344
1630573718969,37384,282023,216325
1630573718979,37386,281979,216341
1630573718989,37397,281983,216357
1630573718999,37401,282035,216350
1630573719009,37405,282023,216329
1630573719019,37401,282089,216333
1630573719029,37411,282060,216351
1630573719039,37401,282088,216351
1630573719049,37423,282047,216341
1630573719059,37424,282088,216356
1630573719069,37438,282098,216346
1630573719079,37441,282075,216343
1630573719089,37440,282122,216334
1630573719099,37445,282127,216392
1630573719109,37445,282215,216366
1630573719119,37456,282151,216337
1630573719129,37456,282157,216349
1630573719139,37468,282179,216339
1630573719149,37474,282227,216370
1630573719159,37479,282196,216359
1630573719169,37478,282239,216377
1630573719179,37488,282212,216376
1630573719189,37494,282267,216366
1630573719199,37498,282252,216359
1630573719209,37501,282264,216364
1630573719219,37506,282265,216361
1630573719229,37510,282333,216373
1630573719239,37515,282281,216379
1630573719249,37517,282329,216349
1630573719259,37532,282308,216397
1630573719269,37540,282334,216386
1630573719279,37538,282359,216375
1630573719289,37551,282344,216382
1630573719299,37555,282363,216379
1630573719309,37566,282412,216376
1630573719319,37566,282398,216382
1630573719329,37568,282385,216365
1630573719339,37576,282413,216386
1630573719349,37579,282413,216387
1630573719359,37589,282450,216361
1630573719369,37598,282442,216397
1630573719379,37599,282480,216391
1630573719389,37616,282450,216392
1630573719399,37619,282456,216397
1630573719409,37616,282474,216405
1630573719419,37614,282445,216394
1630573719429,37618,282426,216385
1630573719439,37614,282411,216414
1630573719449,37601,282404,216407
1630573719459,37601,282421,216385
1630573719469,37602,282400,216391
1630573719479,37597,282364,216385
1630573719489,37597,282384,216376
1630573719499,37582,282392,216361
1630573719509,37582,282364,216373
1630573719519,37573,282373,216371
1630573719529,37571,282357,216371
1630573719539,37569,282327,216354
1630573719549,37570,282313,216363
1630573719559,37559,282322,216324
1630573719569,37574,282305,216340
1630573719579,37563,282298,216348
1630573719589,37550,282266,216346
1630573719599,37550,282280,216341
1630573719609,37551,282261,216349
1630573719619,37552,282249,216339
1630573719629,37546,282225,216343
1630573719639,37547,282264,216328
1630573719649,37548,282275,216324
1630573719659,37542,282219,216329
1630573719669,37539,282269,216333
1630573719679,37545,282247,216329
1630573719689,37540,282220,216312
1630573719699,37539,282217,216308
1630573719709,37534,282220,216347
1630573719719,37545,282236,216315
1630573719729,37544,282208,216349
1630573719739,37533,282207,216342
1630573719749,37542,282249,216330
1630573719759,37538,282232,216312
1630573719769,37543,282207,216325
1630573719779,37545,282262,216304
1630573719789,37542,282214,216314
1630573719799,37546,282215,216310
1630573719809,37548,282243,216340
1630573719819,37545,282265,216319
1630573719829,37547,282229,216312
1630573719839,37542,282294,216291
1630573719849,37558,282227,216304
1630573719859,37551,282252,216315
1630573719869,37551,282248,216342
1630573719879,37568,282295,216271
1630573719889,37557,282292,216308
1630573719899,37571,282251,216313
1630573719909,37580,282315,216289
1630573719919,37568,282308,216304
1630573719929,37572,282290,216323
1630573719939,37581,282292,216289
1630573719949,37588,282304,216302
1630573719959,37587,282303,216322
1630573719969,37588,282312,216311
1630573719979,37594,282354,216332
1630573719989,37594,282353,216305
1630573719999,37602,282386,216289
1630573720009,37599,282331,216299
1630573720019,37603,282389,216296
1630573720029,37613,282387,216301
1630573720039,37616,282367,216332
1630573720049,37625,282384,216311
1630573720059,37632,282407,216332
1630573720069,37634,282433,216336
1630573720079,37634,282432,216308
1630573720089,37638,282422,216327
1630573720099,37642,282436,216328
1630573720109,37650,282444,216316
1630573720119,37649,282507,216317
1630573720129,37651,282451,216337
1630573720139,37660,282436,216316
1630573720149,37658,282501,216328
1630573720159,37659,282486,216321
1630573720169,37661,282491,216318
1630573720179,37667,282483,216311
1630573720189,37682,282516,216318
1630573720199,37678,282548,216300
1630573720209,37672,282548,216306
1630573720219,37705,282536,216323
1630573720229,37700,282570,216321
1630573720239,37702,282555,216328
1630573720249,37698,282569,216315
1630573720259,37706,282584,216322
1630573720269,37718,282592,216323
1630573720279,37723,282566,216314
1630573720289,37733,282667,216318
1630573720299,37731,282650,216331
1630573720309,37734,282673,216321
1630573720319,37740,282648,216311
1630573720329,37739,282624,216321
1630573720339,37749,282656,216312
1630573720349,37746,282635,216339
1630573720359,37753,282629,216303
1630573720369,37755,282599,216300
1630573720379,37749,282637,216285
1630573720389,37751,282612,216310
1630573720399,37738,282542,216293
1630573720409,37726,282606,216292
1630573720419,37711,282508,216318
1630573720429,37718,282513,216293
1630573720439,37708,282533,216297
1630573720449,37705,282492,216288
1630573720459,37688,282518,216285
1630573720469,37692,282496,216279
1630573720479,37690,282472,216271
1630573720489,37678,282450,216269
1630573720499,37675,282421,216247
1630573720509,37664,282448,216273
1630573720519,37665,282445,216273
1630573720529,37656,282386,216238
1630573720539,37653,282422,216256
1630573720549,37650,282365,216207
1630573720559,37634,282373,216255
1630573720569,37627,282362,216234
1630573720579,37621,282325,216223
1630573720589,37615,282287,216230
1630573720599,37610,282341,216204
1630573720609,37608,282346,216243
1630573720619,37610,282304,216219
1630573720629,37602,282327,216227
1630573720639,37598,282291,216228
1630573720649,37601,282292,216205
1630573720659,37596,282321,216229
1630573720669,37590,282309,216200
1630573720679,37588,282281,216192
1630573720689,37601,282274,216203
1630573720699,37592,282236,216176
1630573720709,37582,282245,216205
1630573720719,37587,282252,216207
1630573720729,37584,282254,216187
1630573720739,37587,282279,216205
1630573720749,37595,282270,216198
1630573720759,37591,282292,216202
1630573720769,37582,282249,216182
1630573720779,37601,282253,216190
1630573720789,37585,282211,216174
1630573720799,37586,282257,216195
1630573720809,37592,282259,216185
1630573720819,37586,282248,216187
1630573720829,37587,282287,216175
1630573720839,37595,282229,216167
1630573720849,37602,282297,216182
1630573720859,37601,282287,216191
1630573720869,37598,282304,216208
1630573720879,37609,282271,216219
1630573720889,37598,282269,216184
1630573720899,37603,282282,216194
1630573720909,37601,282309,216186
1630573720919,37604,282297,216201
1630573720929,37612,282318,216197
1630573720939,37613,282306,216209
1630573720949,37615,282340,216181
1630573720959,37611,282325,216193
1630573720969,37617,282319,216199
1630573720979,37615,282290,216174
1630573720989,37625,282354,216180
1630573720999,37619,282372,216173
1630573721009,37641,282326,216185
1630573721019,37634,282367,216182
1630573721029,37625,282366,216192
1630573721039,37637,282343,216186
1630573721049,37629,282404,216212
1630573721059,37653,282401,216189
1630573721069,37644,282406,216176
1630573721079,37642,282436,216204
1630573721089,37652,282396,216213
1630573721099,37656,282415,216194
1630573721109,37660,282378,216179
1630573721119,37662,282407,216205
1630573721129,37659,282430,216184
1630573721139,37663,282464,216207
1630573721149,37666,282445,216210
1630573721159,37671,282466,216207
1630573721169,37694,282483,216211
1630573721179,37694,282437,216208
1630573721189,37694,282445,216191
1630573721199,37700,282467,216185
1630573721209,37700,282520,216197
1630573721219,37701,282468,216188
1630573721229,37703,282514,216210
1630573721239,37697,282499,216199
1630573721249,37708,282564,216202
1630573721259,37708,282555,216180
1630573721269,37717,282543,216183
1630573721279,37719,282540,216203
1630573721289,37729,282540,216212
1630573721299,37727,282585,216206
1630573721309,37728,282569,216225
1630573721319,37739,282571,216215
1630573721329,37732,282594,216216
1630573721339,37726,282577,216220
1630573721349,37729,282554,216198
1630573721359,37731,282526,216185
1630573721369,37716,282502,216176
1630573721379,37712,282494,216164
1630573721389,37705,282445,216155
1630573721399,37687,282432,216168
1630573721409,37685,282403,216173
1630573721419,37673,282421,216146
1630573721429,37659,282382,216156
1630573721439,37664,282381,216153
1630573721449,37639,282307,216134
1630573721459,37630,282334,216131
1630573721469,37628,282363,216147
1630573721479,37617,282304,216143
1630573721489,37606,282280,216133
1630573721499,37595,282258,216118
1630573721509,37588,282252,216137
1630573721519,37587,282243,216100
1630573721529,37570,282224,216144
1630573721539,37560,282179,216112
1630573721549,37559,282156,216126
1630573721559,37547,282122,216080
1630573721569,37541,282109,216102
1630573721579,37534,282127,216079
1630573721589,37528,282071,216083
1630573721599,37528,282110,216111
1630573721609,37523,282086,216100
1630573721619,37515,282112,216100
1630573721629,37510,282057,216120
1630573721639,37508,282047,216093
1630573721649,37510,282067,216046
1630573721659,37502,282060,216096
1630573721669,37507,282043,216069
1630573721679,37490,282038,216083
1630573721689,37500,282014,216100
1630573721699,37492,282025,216115
1630573721709,37489,282024,216093
1630573721719,37491,282023,216078
1630573721729,37483,281989,216056
1630573721739,37476,282015,216067
1630573721749,37475,282000,216072
1630573721759,37472,282046,216053
1630573721769,37469,282019,216081
1630573721779,37474,282039,216083
1630573721789,37462,282000,216092
1630573721799,37469,282042,216073
1630573721809,37462,282017,216089
1630573721819,37476,282074,216079
1630573721829,37478,282013,216081
1630573721839,37470,282054,216106
1630573721849,37478,281998,216072
1630573721859,37478,282034,216083
1630573721869,37486,282047,216066
1630573721879,37477,282044,216070
1630573721889,37487,282022,216109
1630573721899,37479,282061,216089
1630573721909,37488,282070,216127
1630573721919,37493,282046,216088
1630573721929,37485,282043,216101
1630573721939,37489,282061,216114
1630573721949,37486,282039,216099
1630573721959,37496,282074,216088
1630573721969,37491,282093,216092
1630573721979,37491,282120,216117
1630573721989,37515,282060,216112
1630573721999,37518,282081,216109
1630573722009,37508,282059,216084
1630573722019,37512,282066,216104
1630573722029,37512,282107,216118
1630573722039,37522,282106,216110
1630573722049,37513,282128,216112
1630573722059,37516,282127,216128
1630573722069,37524,282164,216120
1630573722079,37533,282171,216121
1630573722089,37540,282168,216118
1630573722099,37531,282182,216138
1630573722109,37535,282186,216133
1630573722119,37536,282170,216129
1630573722129,37538,282200,216130
1630573722139,37556,282224,216144
1630573722149,37554,282222,216119
1630573722159,37557,282251,216146
1630573722169,37561,282177,216129
1630573722179,37568,282257,216131
1630573722189,37573,282251,216143
1630573722199,37574,282224,216124
1630573722209,37574,282232,216155
1630573722219,37580,282263,216136
1630573722229,37594,282282,216155
1630573722239,37587,282293,216152
1630573722249,37595,282279,216160
1630573722259,37593,282308,216161
1630573722269,37597,282290,216157
1630573722279,37603,282314,216154
1630573722289,37602,282361,216143
1630573722299,37612,282368,216167
1630573722309,37617,282352,216129
1630573722319,37624,282355,216151
1630573722329,37620,282331,216163
1630573722339,37622,282312,216153
1630573722349,37615,282317,216151
1630573722359,37616,282315,216160
1630573722369,37609,282260,216134
1630573722379,37595,282246,216150
1630573722389,37589,282242,216143
1630573722399,37583,282189,216134
1630573722409,37556,282207,216152
1630573722419,37549,282171,216113
1630573722429,37546,282129,216095
1630573722439,37539,282142,216115
1630573722449,37524,282090,216100
1630573722459,37521,282104,216086
1630573722469,37514,282048,216086
1630573722479,37511,282042,216089
1630573722489,37496,282007,216107
1630573722499,37481,282008,216099
1630573722509,37465,281987,216077
1630573722519,37471,281986,216087
1630573722529,37450,281912,216094
1630573722539,37452,281903,216053
1630573722549,37448,281930,216074
1630573722559,37437,281915,216066
1630573722569,37422,281876,216087
1630573722579,37412,281871,216068
1630573722589,37414,281860,216116
1630573722599,37414,281852,216098
1630573722609,37411,281849,216080
1630573722619,37412,281888,216084
1630573722629,37396,281863,216095
1630573722639,37399,281838,216077
1630573722649,37400,281824,216071
1630573722659,37390,281857,216086
1630573722669,37396,281802,216085
1630573722679,37393,281809,216056
1630573722689,37392,281792,216082
1630573722699,37383,281765,216073
1630573722709,37389,281767,216061
1630573722719,37380,281815,216063
1630573722729,37373,281780,216078
1630573722739,37373,281802,216090
1630573722749,37375,281806,216083
1630573722759,37369,281769,216072
1630573722769,37372,281798,216103
1630573722779,37372,281788,216086
1630573722789,37387,281798,216083
1630573722799,37380,281762,216090
1630573722809,37381,281795,216090
1630573722819,37380,281805,216098
1630573722829,37374,281825,216099
1630573722839,37380,281788,216101
1630573722849,37395,281812,216110
1630573722859,37385,281808,216104
1630573722869,37387,281794,216106
1630573722879,37385,281797,216118
1630573722889,37386,281863,216094
1630573722899,37398,281797,216121
1630573722909,37396,281837,216116
1630573722919,37392,281816,216111
1630573722929,37393,281822,216121
1630573722939,37404,281912,216115
1630573722949,37407,281814,216157
1630573722959,37416,281871,216129
1630573722969,37410,281851,216124
1630573722979,37410,281863,216123
1630573722989,37411,281901,216134
1630573722999,37414,281892,216125
1630573723009,37415,281840,216119
1630573723019,37416,281882,216144
1630573723029,37428,281900,216136
1630573723039,37443,281898,216140
1630573723049,37426,281910,216146
1630573723059,37421,281909,216118
1630573723069,37430,281934,216141
1630573723079,37432,281938,216151
1630573723089,37435,281938,216155
1630573723099,37446,281949,216158
1630573723109,37450,281976,216143
1630573723119,37455,281962,216177
1630573723129,37460,281995,216142
1630573723139,37463,281980,216163
1630573723149,37474,281982,216166
1630573723159,37469,282007,216156
1630573723169,37468,282018,216180
1630573723179,37479,282045,216165
1630573723189,37487,282044,216199
1630573723199,37479,282045,216161
1630573723209,37482,282045,216149
1630573723219,37490,282056,216179
1630573723229,37493,282089,216176
1630573723239,37500,282058,216159
1630573723249,37498,282056,216167
1630573723259,37507,282078,216194
1630573723269,37519,282143,216183
1630573723279,37516,282088,216178
1630573723289,37529,282143,216200
1630573723299,37534,282158,216192
1630573723309,37531,282171,216184
1630573723319,37537,282177,216183
1630573723329,37550,282193,216187
1630573723339,37554,282175,216224
1630573723349,37552,282153,216183
1630573723359,37547,282149,216182
1630573723369,37546,282158,216187
1630573723379,37533,282144,216176
1630573723389,37518,282076,216204
1630573723399,37510,282076,216163
1630573723409,37508,282046,216183
1630573723419,37493,282029,216153
1630573723429,37501,282001,216170
1630573723439,37476,281980,216153
1630573723449,37487,281970,216138
1630573723459,37471,281896,216150
1630573723469,37464,281927,216156
1630573723479,37451,281939,216135
1630573723489,37448,281901,216173
1630573723499,37446,281914,216139
1630573723509,37430,281866,216127
1630573723519,37424,281869,216140
1630573723529,37415,281848,216118
1630573723539,37401,281829,216128
1630573723549,37394,281836,216106
1630573723559,37384,281797,216129
1630573723569,37387,281775,216127
1630573723579,37376,281734,216132
1630573723589,37378,281769,216124
1630573723599,37375,281786,216150
1630573723609,37368,281795,216129
1630573723619,37357,281748,216141
1630573723629,37371,281726,216134
1630573723639,37363,281713,216131
1630573723649,37359,281752,216129
1630573723659,37360,281765,216132
1630573723669,37360,281748,216154
1630573723679,37350,281732,216152
1630573723689,37364,281764,216130
1630573723699,37352,281728,216150
1630573723709,37350,281748,216138
1630573723719,37347,281743,216145
1630573723729,37346,281725,216153
1630573723739,37346,281732,216134
1630573723749,37352,281759,216167
1630573723759,37357,281691,216149
1630573723769,37355,281732,216155
1630573723779,37353,281754,216159
1630573723789,37338,281775,216183
1630573723799,37357,281729,216182
1630573723809,37350,281723,216152
1630573723819,37350,281769,216175
1630573723829,37356,281772,216203
1630573723839,37347,281762,216164
1630573723849,37361,281788,216154
1630573723859,37354,281766,216177
1630573723869,37360,281794,216184
1630573723879,37364,281772,216191
1630573723889,37359,281782,216170
1630573723899,37362,281808,216172
1630573723909,37367,281793,216191
1630573723919,37367,281812,216200
1630573723929,37364,281853,216186
1630573723939,37376,281844,216206
1630573723949,37384,281853,216219
1630573723959,37377,281850,216180
1630573723969,37386,281863,216190
1630573723979,37384,281847,216223
1630573723989,37389,281871,216223
1630573723999,37395,281890,216223
1630573724009,37406,281913,216233
1630573724019,37399,281872,216220
1630573724029,37406,281920,216209
1630573724039,37413,281893,216223
1630573724049,37419,281949,216229
1630573724059,37424,281932,216241
1630573724069,37421,281955,216233
1630573724079,37425,281915,216212
1630573724089,37430,281965,216207
1630573724099,37438,281963,216237
1630573724109,37422,281981,216222
1630573724119,37450,282047,216243
1630573724129,37442,282000,216254
1630573724139,37454,281982,216260
1630573724149,37454,282017,216264
1630573724159,37461,282018,216243
1630573724169,37461,282028,216238
1630573724179,37471,282067,216263
1630573724189,37475,282058,216262
1630573724199,37472,282078,216262
1630573724209,37480,282067,216259
1630573724219,37484,282103,216278
1630573724229,37487,282090,216277
1630573724239,37508,282059,216275
1630573724249,37504,282115,216275
1630573724259,37508,282114,216291
1630573724269,37495,282136,216273
1630573724279,37524,282161,216290
1630573724289,37524,282161,216277
1630573724299,37520,282218,216286
1630573724309,37533,282146,216288
1630573724319,37544,282192,216297
1630573724329,37529,282185,216305
1630573724339,37539,282184,216299
1630573724349,37531,282146,216312
1630573724359,37518,282141,216296
1630573724369,37519,282127,216289
1630573724379,37518,282082,216304
1630573724389,37501,282089,216291
1630573724399,37509,282083,216300
1630573724409,37494,282057,216267
1630573724419,37485,282045,216287
1630573724429,37493,282063,216271
1630573724439,37487,282057,216240
1630573724449,37478,281989,216259
1630573724459,37468,282023,216243
1630573724469,37463,282019,216262
1630573724479,37453,281940,216253
1630573724489,37453,281916,216258
1630573724499,37434,281926,216259
1630573724509,37443,281896,216275
1630573724519,37423,281889,216261
1630573724529,37419,281855,216268
1630573724539,37409,281869,216262
1630573724549,37406,281848,216255
1630573724559,37404,281835,216265
1630573724569,37400,281865,216248
1630573724579,37402,281841,216250
1630573724589,37401,281828,216267
1630573724599,37409,281829,216256
1630573724609,37391,281818,216262
1630573724619,37391,281800,216251
1630573724629,37388,281814,216257
1630573724639,37386,281810,216266
1630573724649,37389,281836,216250
1630573724659,37393,281755,216260
1630573724669,37390,281786,216250
1630573724679,37386,281793,216243
1630573724689,37389,281787,216258
1630573724699,37385,281785,216239
1630573724709,37377,281792,216257
1630573724719,37380,281815,216256
1630573724729,37397,281818,216237
1630573724739,37379,281805,216253
1630573724749,37387,281804,216273
1630573724759,37395,281844,216270
1630573724769,37403,281789,216268
1630573724779,37392,281800,216274
1630573724789,37400,281815,216262
1630573724799,37402,281806,216278
1630573724809,37402,281813,216270
1630573724819,37404,281834,216283
1630573724829,37404,281839,216293
1630573724839,37405,281857,216294
1630573724849,37405,281878,216322
1630573724859,37406,281854,216283
1630573724869,37415,281869,216273
1630573724879,37414,281881,216286
1630573724889,37429,281878,216280
1630573724899,37430,281918,216289
1630573724909,37432,281932,216290
1630573724919,37424,281899,216304
1630573724929,37438,281897,216288
1630573724939,37447,281956,216315
1630573724949,37444,281957,216313
1630573724959,37448,281952,216329
1630573724969,37444,281971,216318
1630573724979,37458,281998,216319
1630573724989,37470,281950,216296
1630573724999,37462,281997,216308
1630573725009,37467,282009,216323
1630573725019,37470,282013,216326
1630573725029,37475,282028,216343
1630573725039,37479,282028,216360
1630573725049,37490,282028,216338
1630573725059,37494,282073,216320
1630573725069,37499,282061,216308
1630573725079,37495,282098,216319
1630573725089,37514,282150,216334
1630573725099,37517,282143,216344
1630573725109,37520,282129,216351
1630573725119,37515,282121,216349
1630573725129,37533,282156,216334
1630573725139,37536,282136,216355
1630573725149,37536,282171,216353
1630573725159,37550,282164,216347
1630573725169,37552,282162,216356
1630573725179,37554,282211,216362
1630573725189,37569,282195,216363
1630573725199,37556,282230,216352
1630573725209,37579,282222,216357
1630573725219,37587,282255,216377
1630573725229,37583,282256,216384
1630573725239,37598,282295,216363
1630573725249,37596,282258,216370
1630573725259,37608,282286,216387
1630573725269,37604,282293,216373
1630573725279,37613,282365,216373
1630573725289,37621,282340,216387
1630573725299,37623,282334,216398
1630573725309,37641,282384,216407
1630573725319,37631,282355,216389
1630573725329,37640,282382,216379
1630573725339,37639,282357,216415
1630573725349,37640,282336,216406
1630573725359,37643,282337,216388
1630573725369,37632,282314,216369
1630573725379,37647,282322,216366
1630573725389,37625,282275,216376
1630573725399,37629,282254,216373
1630573725409,37618,282282,216373
1630573725419,37614,282251,216374
1630573725429,37611,282237,216353
1630573725439,37609,282180,216334
1630573725449,37603,282212,216362
1630573725459,37604,282180,216328
1630573725469,37594,282184,216355
1630573725479,37592,282169,216356
1630573725489,37578,282124,216355
1630573725499,37571,282194,216339
1630573725509,37568,282124,216331
1630573725519,37565,282097,216329
1630573725529,37554,282092,216327
1630573725539,37558,282082,216325
1630573725549,37548,282053,216317
1630573725559,37538,282078,216318
1630573725569,37530,282022,216315
1630573725579,37535,282030,216321
1630573725589,37527,282065,216324
1630573725599,37521,282004,216319
1630573725609,37528,282031,216316
1630573725619,37533,282050,216299
1630573725629,37522,282044,216304
1630573725639,37520,282018,216322
1630573725649,37520,282007,216299
1630573725659,37521,282070,216331
1630573725669,37518,282028,216304
1630573725679,37521,282042,216321
1630573725689,37518,282032,216302
1630573725699,37515,282024,216349
1630573725709,37526,282019,216300
1630573725719,37524,282005,216294
1630573725729,37506,282006,216322
1630573725739,37522,282009,216320
1630573725749,37511,282018,216292
1630573725759,37522,281991,216320
1630573725769,37520,281982,216338
1630573725779,37521,282050,216331
1630573725789,37531,282061,216331
1630573725799,37523,282028,216305
1630573725809,37525,282029,216326
1630573725819,37523,282073,216320
1630573725829,37532,282061,216305
1630573725839,37537,282034,216302
1630573725849,37540,282081,216322
1630573725859,37533,282044,216319
1630573725869,37546,282052,216331
1630573725879,37552,282109,216302
1630573725889,37557,282109,216336
1630573725899,37549,282113,216322
1630573725909,37556,282097,216335
1630573725919,37555,282091,216328
1630573725929,37565,282165,216338
1630573725939,37568,282134,216349
1630573725949,37573,282128,216333
1630573725959,37581,282135,216336
1630573725969,37584,282131,216336
1630573725979,37577,282127,216329
1630573725989,37584,282171,216340
1630573725999,37593,282176,216352
1630573726009,37593,282188,216332
1630573726019,37599,282148,216366
1630573726029,37601,282231,216327
1630573726039,37612,282199,216376
1630573726049,37597,282208,216348
1630573726059,37619,282238,216350
1630573726069,37621,282241,216349
1630573726079,37616,282252,216372
1630573726089,37628,282270,216352
1630573726099,37638,282278,216359
1630573726109,37639,282269,216359
1630573726119,37641,282274,216348
1630573726129,37648,282278,216368
1630573726139,37640,282293,216364
1630573726149,37648,282263,216392
1630573726159,37653,282357,216380
1630573726169,37656,282354,216389
1630573726179,37666,282353,216349
1630573726189,37672,282370,216373
1630573726199,37679,282394,216401
1630573726209,37694,282373,216399
1630573726219,37684,282413,216378
1630573726229,37690,282442,216391
1630573726239,37685,282413,216394
1630573726249,37696,282457,216356
1630573726259,37702,282445,216367
1630573726269,37702,282439,216406
1630573726279,37718,282437,216389
1630573726289,37718,282468,216365
1630573726299,37720,282501,216387
1630573726309,37725,282511,216391
1630573726319,37729,282525,216386
1630573726329,37735,282559,216387
1630573726339,37740,282514,216399
1630573726349,37750,282548,216417
1630573726359,37762,282543,216390
1630573726369,37763,282523,216412
1630573726379,37756,282514,216394
1630573726389,37754,282501,216379
1630573726399,37751,282521,216408
1630573726409,37753,282502,216392
1630573726419,37734,282494,216375
1630573726429,37732,282470,216383
1630573726439,37717,282439,216368
1630573726449,37715,282437,216386
1630573726459,37708,282400,216387
1630573726469,37703,282354,216365
1630573726479,37692,282392,216357
1630573726489,37691,282400,216378
1630573726499,37680,282362,216341
1630573726509,37692,282339,216349
1630573726519,37675,282298,216364
1630573726529,37663,282316,216363
1630573726539,37663,282285,216339
1630573726549,37654,282268,216334
1630573726559,37638,282275,216338
1630573726569,37632,282275,216318
1630573726579,37628,282249,216335
1630573726589,37627,282228,216335
1630573726599,37616,282207,216331
1630573726609,37607,282213,216340
1630573726619,37593,282166,216336
1630573726629,37598,282174,216323
1630573726639,37595,282169,216333
1630573726649,37599,282191,216332
1630573726659,37589,282197,216344
1630573726669,37599,282154,216334
1630573726679,37590,282169,216339
1630573726689,37577,282179,216301
1630573726699,37581,282173,216311
1630573726709,37581,282142,216337
1630573726719,37579,282165,216330
1630573726729,37584,282183,216341
1630573726739,37586,282152,216322
1630573726749,37573,282156,216332
1630573726759,37578,282143,216344
1630573726769,37580,282150,216345
1630573726779,37572,282137,216293
1630573726789,37574,282196,216326
1630573726799,37575,282167,216342
1630573726809,37574,282134,216337
1630573726819,37578,282135,216342
1630573726829,37581,282177,216336
1630573726839,37576,282159,216339
1630573726849,37575,282192,216357
1630573726859,37596,282183,216353
1630573726869,37593,282189,216343
1630573726879,37591,282182,216345
1630573726889,37588,282168,216341
1630573726899,37590,282171,216343
1630573726909,37601,282212,216339
1630573726919,37602,282200,216341
1630573726929,37611,282190,216363
1630573726939,37604,282246,216339
1630573726949,37608,282223,216363
1630573726959,37608,282239,216343
1630573726969,37610,282277,216349
1630573726979,37610,282255,216367
1630573726989,37618,282243,216375
1630573726999,37610,282286,216359
1630573727009,37621,282257,216359
1630573727019,37621,282236,216366
1630573727029,37629,282277,216362
1630573727039,37631,282253,216378
1630573727049,37632,282336,216345
1630573727059,37637,282316,216365
1630573727069,37638,282326,216362
1630573727079,37636,282330,216380
1630573727089,37646,282302,216344
1630573727099,37648,282334,216365
1630573727109,37646,282366,216359
1630573727119,37643,282338,216373
1630573727129,37645,282317,216367
1630573727139,37652,282382,216360
1630573727149,37655,282394,216372
1630573727159,37672,282340,216375
1630573727169,37668,282359,216349
1630573727179,37676,282356,216370
1630573727189,37670,282392,216365
1630573727199,37677,282405,216358
1630573727209,37679,282411,216350
1630573727219,37687,282411,216368
1630573727229,37695,282423,216354
1630573727239,37690,282450,216364
1630573727249,37702,282432,216375
1630573727259,37709,282428,216361
1630573727269,37705,282472,216368
1630573727279,37709,282460,216385
1630573727289,37715,282473,216374
1630573727299,37712,282527,216382
1630573727309,37720,282516,216362
1630573727319,37718,282536,216373
1630573727329,37737,282563,216375
1630573727339,37741,282561,216378
1630573727349,37724,282582,216380
1630573727359,37754,282556,216380
1630573727369,37743,282582,216400
1630573727379,37759,282610,216381
1630573727389,37765,282604,216380
1630573727399,37764,282599,216365
1630573727409,37757,282598,216365
1630573727419,37761,282576,216379
1630573727429,37751,282546,216375
1630573727439,37740,282488,216364
1630573727449,37746,282498,216314
1630573727459,37731,282511,216352
1630573727469,37719,282468,216333
1630573727479,37711,282433,216345
1630573727489,37694,282453,216318
1630573727499,37704,282410,216327
1630573727509,37689,282375,216317
1630573727519,37676,282406,216323
1630573727529,37676,282352,216310
1630573727539,37668,282364,216310
1630573727549,37659,282331,216308
1630573727559,37658,282324,216276
1630573727569,37650,282298,216312
1630573727579,37643,282310,216284
1630573727589,37627,282283,216287
1630573727599,37623,282269,216259
1630573727609,37608,282249,216261
1630573727619,37608,282225,216256
1630573727629,37596,282204,216265
1630573727639,37598,282237,216271
1630573727649,37604,282176,216266
1630573727659,37582,282179,216281
1630573727669,37587,282184,216270
1630573727679,37580,282218,216256
1630573727689,37576,282156,216253
1630573727699,37578,282150,216257
1630573727709,37576,282140,216264
1630573727719,37565,282130,216238
1630573727729,37566,282144,216252
1630573727739,37569,282157,216266
1630573727749,37564,282133,216234
1630573727759,37562,282146,216253
1630573727769,37552,282143,216218
1630573727779,37547,282125,216233
1630573727789,37550,282102,216249
1630573727799,37551,282106,216251
1630573727809,37551,282135,216259
1630573727819,37558,282140,216226
1630573727829,37547,282105,216246
1630573727839,37551,282122,216245
1630573727849,37543,282105,216218
1630573727859,37560,282158,216240
1630573727869,37547,282117,216240
1630573727879,37547,282075,216257
1630573727889,37552,282116,216228
1630573727899,37554,282142,216229
1630573727909,37556,282124,216247
1630573727919,37557,282126,216247
1630573727929,37556,282149,216257
1630573727939,37555,282139,216223
1630573727949,37555,282165,216245
1630573727959,37559,282176,216240
1630573727969,37557,282166,216229
1630573727979,37554,282175,216253
1630573727989,37563,282193,216224
1630573727999,37570,282173,216228
1630573728009,37568,282202,216246
1630573728019,37561,282190,216243
1630573728029,37570,282178,216260
1630573728039,37578,282209,216244
1630573728049,37572,282204,216245
1630573728059,37577,282198,216237
1630573728069,37591,282217,216242
1630573728079,37594,282253,216244
1630573728089,37589,282221,216251
1630573728099,37597,282275,216257
1630573728109,37592,282277,216240
1630573728119,37594,282302,216252
1630573728129,37596,282296,216275
1630573728139,37598,282288,216247
1630573728149,37611,282298,216233
1630573728159,37620,282290,216248
1630573728169,37620,282290,216252
1630573728179,37624,282260,216261
1630573728189,37622,282324,216257
1630573728199,37616,282368,216245
1630573728209,37630,282327,216232
1630573728219,37633,282349,216260
1630573728229,37638,282332,216243
1630573728239,37644,282376,216268
1630573728249,37637,282378,216265
1630573728259,37641,282348,216248
1630573728269,37652,282370,216248
1630573728279,37645,282386,216251
1630573728289,37659,282404,216249
1630573728299,37663,282423,216249
1630573728309,37665,282394,216263
1630573728319,37663,282404,216260
1630573728329,37676,282400,216281
1630573728339,37676,282418,216269
1630573728349,37683,282470,216284
1630573728359,37693,282426,216278
1630573728369,37696,282463,216289
1630573728379,37691,282477,216262
1630573728389,37696,282424,216245
1630573728399,37692,282420,216264
1630573728409,37686,282460,216245
1630573728419,37685,282452,216274
1630573728429,37679,282408,216269
1630573728439,37673,282370,216233
1630573728449,37670,282379,216230
1630573728459,37666,282326,216251
1630573728469,37648,282315,216228
1630573728479,37635,282294,216224
1630573728489,37634,282305,216188
1630573728499,37620,282253,216207
1630573728509,37618,282250,216203
1630573728519,37607,282246,216195
1630573728529,37602,282206,216201
1630573728539,37593,282196,216194
1630573728549,37588,282154,216202
1630573728559,37564,282136,216189
1630573728569,37562,282148,216197
1630573728579,37548,282107,216176
1630573728589,37544,282075,216160
1630573728599,37535,282064,216170
1630573728609,37534,282033,216158
1630573728619,37521,282067,216166
1630573728629,37512,281955,216161
1630573728639,37512,282016,216154
1630573728649,37503,282015,216158
1630573728659,37504,282010,216149
1630573728669,37501,282028,216159
1630573728679,37494,281988,216137
1630573728689,37487,281977,216149
1630573728699,37485,281956,216135
1630573728709,37482,281962,216144
1630573728719,37480,281945,216127
1630573728729,37468,281950,216129
1630573728739,37471,281946,216146
1630573728749,37465,281957,216147
1630573728759,37459,281936,216143
1630573728769,37459,281925,216117
1630573728779,37475,281932,216122
1630573728789,37458,281904,216126
1630573728799,37458,281918,216122
1630573728809,37466,281913,216147
1630573728819,37465,281925,216122
1630573728829,37458,281886,216148
1630573728839,37458,281930,216132
1630573728849,37452,281887,216156
1630573728859,37453,281921,216166
1630573728869,37459,281924,216153
1630573728879,37456,281911,216140
1630573728889,37454,281932,216164
1630573728899,37459,281928,216167
1630573728909,37448,281966,216177
1630573728919,37462,281957,216164
1630573728929,37470,282002,216173
1630573728939,37468,281936,216148
1630573728949,37449,281943,216153
1630573728959,37456,281960,216167
1630573728969,37458,281964,216130
1630573728979,37457,281986,216141
1630573728989,37462,281939,216160
1630573728999,37473,281965,216165
1630573729009,37465,281996,216157
1630573729019,37466,281943,216157
1630573729029,37476,282000,216152
1630573729039,37481,281958,216164
1630573729049,37478,281989,216163
1630573729059,37486,281984,216155
1630573729069,37489,282015,216165
1630573729079,37486,281984,216151
1630573729089,37494,282003,216165
1630573729099,37496,282083,216164
1630573729109,37481,282021,216167
1630573729119,37496,282028,216177
1630573729129,37492,282036,216174
1630573729139,37502,282041,216158
1630573729149,37503,282056,216158
1630573729159,37503,282063,216166
1630573729169,37510,282081,216181
1630573729179,37504,282119,216172
1630573729189,37515,282074,216176
1630573729199,37511,282128,216168
1630573729209,37515,282106,216178
1630573729219,37518,282112,216181
1630573729229,37524,282118,216216
1630573729239,37539,282154,216196
1630573729249,37533,282137,216194
1630573729259,37552,282149,216185
1630573729269,37537,282162,216198
1630573729279,37556,282194,216200
1630573729289,37555,282193,216213
1630573729299,37564,282190,216211
1630573729309,37555,282189,216204
1630573729319,37573,282238,216217
1630573729329,37571,282266,216198
1630573729339,37575,282220,216209
1630573729349,37573,282249,216191
1630573729359,37575,282245,216221
1630573729369,37581,282307,216202
1630573729379,37588,282288,216208
1630573729389,37591,282241,216227
1630573729399,37601,282245,216209
1630573729409,37592,282257,216237
1630573729419,37602,282208,216207
1630573729429,37606,282186,216229
1630573729439,37587,282196,216226
1630573729449,37580,282130,216211
1630573729459,37571,282178,216206
1630573729469,37566,282121,216205
1630573729479,37553,282142,216209
1630573729489,37539,282081,216188
1630573729499,37524,282044,216184
1630573729509,37522,282063,216156
1630573729519,37506,282013,216183
1630573729529,37495,282022,216162
1630573729539,37485,281988,216168
1630573729549,37482,281991,216136
1630573729559,37467,281980,216158
1630573729569,37463,281930,216147
1630573729579,37457,281916,216140
1630573729589,37460,281866,216136
1630573729599,37443,281851,216142
1630573729609,37429,281834,216135
1630573729619,37433,281851,216137
1630573729629,37408,281788,216136
1630573729639,37411,281827,216140
1630573729649,37402,281782,216133
1630573729659,37405,281771,216134
1630573729669,37400,281781,216138
1630573729679,37393,281744,216136
1630573729689,37393,281745,216151
1630573729699,37385,281757,216124
1630573729709,37383,281748,216133
1630573729719,37378,281752,216136
1630573729729,37380,281738,216124
1630573729739,37384,281701,216144
1630573729749,37378,281706,216144
1630573729759,37380,281732,216145
1630573729769,37378,281711,216152
1630573729779,37369,281676,216146
1630573729789,37369,281690,216141
1630573729799,37369,281719,216133
1630573729809,37377,281699,216125
1630573729819,37358,281734,216137
1630573729829,37371,281713,216146
1630573729839,37369,281704,216156
1630573729849,37380,281677,216135
1630573729859,37368,281686,216172
1630573729869,37367,281691,216160
1630573729879,37370,281700,216169
1630573729889,37373,281703,216166
1630573729899,37376,281731,216164
1630573729909,37372,281678,216165
1630573729919,37374,281761,216179
1630573729929,37390,281736,216182
1630573729939,37382,281735,216184
1630573729949,37382,281765,216194
1630573729959,37382,281749,216188
1630573729969,37389,281768,216159
1630573729979,37397,281756,216208
1630573729989,37389,281788,216204
1630573729999,37405,281766,216199
1630573730009,37404,281783,216210
1630573730019,37398,281760,216195
1630573730029,37399,281812,216218
1630573730039,37411,281790,216217
1630573730049,37406,281832,216240
1630573730059,37414,281813,216233
1630573730069,37413,281822,216230
1630573730079,37418,281829,216237
1630573730089,37421,281848,216233
1630573730099,37428,281867,216230
1630573730109,37422,281867,216233
1630573730119,37429,281890,216234
1630573730129,37436,281873,216253
1630573730139,37448,281867,216244
1630573730149,37443,281881,216260
1630573730159,37452,281892,216273
1630573730169,37452,281902,216242
1630573730179,37450,281916,216237
1630573730189,37448,281896,216272
1630573730199,37456,281932,216268
1630573730209,37459,281967,216260
1630573730219,37463,281941,216271
1630573730229,37477,281970,216279
1630573730239,37476,281992,216275
1630573730249,37478,281991,216294
1630573730259,37488,281987,216259
1630573730269,37503,282003,216283
1630573730279,37491,281985,216298
1630573730289,37501,282009,216280
1630573730299,37499,282064,216308
1630573730309,37516,282015,216307
1630573730319,37511,282040,216307
1630573730329,37525,282055,216320
1630573730339,37519,282060,216311
1630573730349,37523,282124,216319
1630573730359,37537,282061,216335
1630573730369,37534,282101,216312
1630573730379,37540,282101,216314
1630573730389,37558,282097,216315
1630573730399,37549,282145,216313
1630573730409,37560,282192,216316
1630573730419,37566,282155,216340
1630573730429,37572,282184,216339
1630573730439,37580,282186,216348
1630573730449,37563,282146,216334
1630573730459,37573,282147,216337
1630573730469,37572,282128,216326
1630573730479,37559,282084,216323
1630573730489,37548,282063,216321
1630573730499,37536,282069,216327
1630573730509,37531,282053,216311
1630573730519,37520,282027,216304
1630573730529,37513,281994,216296
1630573730539,37501,281985,216324
1630573730549,37502,281956,216285
1630573730559,37501,281947,216295
1630573730569,37496,281931,216281
1630573730579,37485,281919,216289
1630573730589,37476,281908,216285
1630573730599,37466,281897,216268
1630573730609,37455,281833,216290
1630573730619,37454,281851,216294
1630573730629,37445,281817,216294
1630573730639,37449,281792,216285
1630573730649,37436,281752,216273
1630573730659,37421,281756,216253
1630573730669,37420,281745,216268
1630573730679,37408,281730,216284
1630573730689,37394,281733,216266
1630573730699,37400,281730,216277
1630573730709,37403,281742,216281
1630573730719,37395,281723,216300
1630573730729,37395,281681,216288
1630573730739,37375,281696,216254
1630573730749,37384,281690,216273
1630573730759,37380,281680,216272
1630573730769,37393,281669,216270
1630573730779,37385,281692,216272
1630573730789,37376,281671,216283
1630573730799,37378,281688,216270
1630573730809,37385,281652,216262
1630573730819,37375,281677,216263
1630573730829,37373,281660,216275
1630573730839,37370,281694,216267
1630573730849,37369,281640,216277
1630573730859,37375,281651,216296
1630573730869,37386,281647,216278
1630573730879,37379,281683,216271
1630573730889,37370,281677,216292
1630573730899,37374,281659,216300
1630573730909,37379,281693,216314
1630573730919,37387,281722,216292
1630573730929,37389,281713,216302
1630573730939,37385,281654,216300
1630573730949,37396,281683,216316
1630573730959,37397,281685,216308
1630573730969,37395,281699,216329
1630573730979,37391,281737,216319
1630573730989,37396,281749,216309
1630573730999,37393,281751,216318
1630573731009,37398,281731,216303
1630573731019,37396,281707,216317
1630573731029,37410,281799,216314
1630573731039,37407,281755,216329
1630573731049,37421,281798,216305
1630573731059,37415,281769,216351
1630573731069,37427,281774,216324
1630573731079,37428,281807,216327
1630573731089,37426,281795,216343
1630573731099,37427,281828,216355
1630573731109,37429,281809,216349
1630573731119,37437,281834,216347
1630573731129,37443,281846,216322
1630573731139,37442,281850,216353
1630573731149,37436,281871,216347
1630573731159,37447,281857,216353
1630573731169,37455,281889,216345
1630573731179,37451,281832,216346
1630573731189,37454,281892,216361
1630573731199,37455,281903,216336
1630573731209,37476,281915,216377
1630573731219,37471,281965,216367
1630573731229,37483,281912,216361
1630573731239,37473,281925,216353
1630573731249,37481,281915,216365
1630573731259,37497,281954,216382
1630573731269,37493,282006,216388
1630573731279,37499,281984,216391
1630573731289,37508,281950,216394
1630573731299,37507,282064,216369
1630573731309,37507,281998,216400
1630573731319,37513,282054,216415
1630573731329,37518,282037,216393
1630573731339,37524,282073,216419
1630573731349,37530,282060,216419
1630573731359,37533,282069,216388
1630573731369,37530,282100,216388
1630573731379,37539,282098,216417
1630573731389,37549,282104,216382
1630573731399,37552,282115,216423
1630573731409,37565,282147,216452
1630573731419,37573,282175,216420
1630573731429,37575,282141,216415
1630573731439,37601,282155,216430
1630573731449,37581,282167,216424
1630573731459,37593,282177,216451
1630573731469,37589,282178,216419
1630573731479,37583,282162,216431
1630573731489,37577,282164,216428
1630573731499,37579,282137,216422
1630573731509,37572,282137,216416
1630573731519,37569,282126,216394
1630573731529,37573,282078,216408
1630573731539,37557,282065,216424
1630573731549,37552,282079,216422
1630573731559,37544,282070,216404
1630573731569,37528,282021,216373
1630573731579,37527,282002,216388
1630573731589,37524,282008,216381
1630573731599,37516,282000,216372
1630573731609,37506,281986,216399
1630573731619,37504,281951,216394
1630573731629,37503,281969,216362
1630573731639,37491,281965,216396
1630573731649,37484,281917,216355
1630573731659,37484,281904,216379
1630573731669,37478,281873,216382
1630573731679,37463,281854,216384
1630573731689,37464,281899,216361
1630573731699,37461,281848,216399
1630573731709,37452,281840,216372
1630573731719,37463,281838,216387
1630573731729,37446,281882,216408
1630573731739,37456,281878,216386
1630573731749,37451,281881,216379
1630573731759,37440,281836,216365
1630573731769,37444,281852,216374
1630573731779,37435,281826,216376
1630573731789,37436,281848,216378
1630573731799,37441,281822,216382
1630573731809,37434,281869,216356
1630573731819,37440,281833,216385
1630573731829,37432,281872,216352
1630573731839,37441,281834,216388
1630573731849,37437,281814,216415
1630573731859,37437,281814,216382
1630573731869,37433,281829,216393
1630573731879,37441,281829,216390
1630573731889,37434,281847,216393
1630573731899,37430,281850,216398
1630573731909,37442,281846,216386
1630573731919,37446,281859,216402
1630573731929,37449,281936,216400
1630573731939,37444,281878,216414
1630573731949,37449,281878,216408
1630573731959,37450,281887,216417
1630573731969,37453,281911,216417
1630573731979,37454,281890,216439
1630573731989,37450,281925,216427
1630573731999,37451,281934,216434
1630573732009,37451,281962,216444
1630573732019,37471,281920,216423
1630573732029,37469,281941,216454
1630573732039,37471,281940,216437
1630573732049,37477,281970,216438
1630573732059,37478,281955,216440
1630573732069,37475,281961,216458
1630573732079,37488,282001,216429
1630573732089,37496,282001,216440
1630573732099,37484,282032,216450
1630573732109,37499,282042,216449
1630573732119,37495,282027,216441
1630573732129,37500,282033,216442
1630573732139,37501,282022,216461
1630573732149,37504,282056,216458
1630573732159,37516,282037,216445
1630573732169,37506,282047,216466
1630573732179,37530,282071,216438
1630573732189,37526,282118,216459
1630573732199,37529,282090,216469
1630573732209,37534,282116,216467
1630573732219,37537,282100,216458
1630573732229,37542,282142,216482
1630573732239,37538,282158,216479
1630573732249,37554,282163,216467
1630573732259,37559,282177,216508
1630573732269,37562,282159,216482
1630573732279,37561,282169,216487
1630573732289,37568,282264,216483
1630573732299,37566,282210,216502
1630573732309,37573,282223,216510
1630573732319,37578,282229,216490
1630573732329,37580,282230,216501
1630573732339,37598,282297,216456
1630573732349,37615,282254,216514
1630573732359,37597,282290,216522
1630573732369,37583,282308,216503
1630573732379,37615,282278,216503
1630573732389,37605,282326,216498
1630573732399,37619,282320,216494
1630573732409,37627,282343,216529
1630573732419,37626,282335,216531
1630573732429,37643,282372,216530
1630573732439,37638,282364,216514
1630573732449,37640,282324,216523
1630573732459,37646,282371,216509
1630573732469,37640,282308,216514
1630573732479,37635,282315,216510
1630573732489,37627,282294,216523
1630573732499,37616,282316,216495
1630573732509,37608,282267,216494
1630573732519,37606,282255,216492
1630573732529,37595,282231,216475
1630573732539,37594,282231,216491
1630573732549,37584,282174,216497
1630573732559,37581,282204,216472
1630573732569,37565,282197,216482
1630573732579,37565,282190,216457
1630573732589,37547,282173,216458
1630573732599,37546,282154,216491
1630573732609,37537,282156,216460
1630573732619,37528,282121,216470
1630573732629,37526,282139,216452
1630573732639,37531,282097,216456
1630573732649,37515,282065,216447
1630573732659,37504,282097,216448
1630573732669,37502,282107,216441
1630573732679,37480,282074,216475
1630573732689,37490,282055,216461
1630573732699,37485,282073,216443
1630573732709,37486,282041,216447
1630573732719,37477,282038,216421
1630573732729,37484,282068,216455
1630573732739,37476,282059,216446
1630573732749,37466,282026,216461
1630573732759,37466,282053,216445
1630573732769,37467,282026,216456
1630573732779,37471,282019,216467
1630573732789,37467,282014,216442
1630573732799,37463,282010,216443
1630573732809,37457,282018,216427
1630573732819,37467,282019,216446
1630573732829,37469,282009,216435
1630573732839,37476,282029,216426
1630573732849,37474,282060,216469
1630573732859,37455,282039,216448
1630573732869,37467,282007,216431
1630573732879,37462,282025,216420
1630573732889,37468,282054,216452
1630573732899,37457,282047,216427
1630573732909,37467,282054,216461
1630573732919,37469,282073,216442
1630573732929,37466,282047,216407
1630573732939,37468,282071,216448
1630573732949,37472,282069,216447
1630573732959,37473,282064,216444
1630573732969,37480,282084,216427
1630573732979,37489,282071,216456
1630573732989,37491,282104,216466
1630573732999,37487,282102,216447
1630573733009,37496,282119,216464
1630573733019,37491,282089,216451
1630573733029,37484,282104,216457
1630573733039,37507,282117,216452
1630573733049,37510,282132,216455
1630573733059,37501,282184,216461
1630573733069,37511,282146,216471
1630573733079,37512,282150,216481
1630573733089,37516,282178,216459
1630573733099,37516,282204,216477
1630573733109,37519,282208,216474
1630573733119,37522,282198,216466
1630573733129,37519,282188,216498
1630573733139,37532,282221,216466
1630573733149,37542,282201,216471
1630573733159,37541,282226,216481
1630573733169,37546,282246,216461
1630573733179,37548,282267,216472
1630573733189,37544,282239,216482
1630573733199,37556,282296,216454
1630573733209,37560,282251,216474
1630573733219,37565,282269,216471
1630573733229,37572,282289,216487
1630573733239,37573,282282,216496
1630573733249,37572,282316,216437
1630573733259,37577,282302,216475
1630573733269,37592,282340,216505
1630573733279,37588,282306,216473
1630573733289,37589,282370,216484
1630573733299,37595,282391,216471
1630573733309,37607,282398,216462
1630573733319,37604,282399,216503
1630573733329,37618,282398,216489
1630573733339,37632,282388,216486
1630573733349,37627,282446,216485
1630573733359,37631,282416,216474
1630573733369,37636,282443,216473
1630573733379,37641,282448,216475
1630573733389,37643,282453,216489
1630573733399,37648,282516,216493
1630573733409,37650,282462,216490
1630573733419,37660,282497,216488
1630573733429,37668,282515,216503
1630573733439,37655,282542,216501
1630573733449,37677,282516,216514
1630573733459,37674,282534,216491
1630573733469,37680,282554,216518
1630573733479,37686,282496,216515
1630573733489,37673,282499,216470
1630573733499,37667,282484,216498
1630573733509,37668,282430,216486
1630573733519,37655,282423,216469
1630573733529,37649,282400,216469
1630573733539,37637,282425,216451
1630573733549,37628,282364,216458
1630573733559,37623,282370,216424
1630573733569,37610,282345,216453
1630573733579,37609,282375,216441
1630573733589,37597,282370,216423
1630573733599,37588,282330,216432
1630573733609,37583,282318,216432
1630573733619,37579,282305,216413
1630573733629,37560,282285,216427
1630573733639,37562,282255,216410
1630573733649,37554,282241,216409
1630573733659,37535,282203,216407
1630573733669,37544,282186,216386
1630573733679,37534,282177,216427
1630573733689,37524,282175,216398
1630573733699,37515,282164,216383
1630573733709,37514,282156,216391
1630573733719,37507,282133,216398
1630573733729,37501,282150,216374
1630573733739,37498,282140,216389
1630573733749,37499,282147,216375
1630573733759,37497,282129,216379
1630573733769,37503,282155,216388
1630573733779,37494,282106,216374
1630573733789,37490,282114,216389
1630573733799,37489,282108,216375
1630573733809,37472,282113,216388
1630573733819,37473,282087,216385
1630573733829,37473,282113,216358
1630573733839,37488,282066,216383
1630573733849,37481,282089,216369
1630573733859,37481,282098,216360
1630573733869,37479,282093,216386
1630573733879,37480,282108,216366
1630573733889,37479,282112,216368
1630573733899,37480,282068,216360
1630573733909,37479,282105,216376
1630573733919,37482,282114,216381
1630573733929,37478,282121,216373
1630573733939,37478,282137,216360
1630573733949,37487,282112,216357
1630573733959,37481,282116,216388
1630573733969,37496,282136,216339
1630573733979,37496,282148,216387
1630573733989,37499,282108,216369
1630573733999,37501,282111,216384
1630573734009,37499,282149,216369
1630573734019,37509,282115,216347
1630573734029,37511,282109,216388
1630573734039,37514,282122,216376
1630573734049,37510,282143,216353
1630573734059,37517,282156,216380
1630573734069,37516,282142,216377
1630573734079,37522,282156,216396
1630573734089,37532,282185,216371
1630573734099,37525,282134,216376
1630573734109,37520,282197,216403
1630573734119,37526,282232,216385
1630573734129,37540,282234,216395
1630573734139,37545,282192,216389
1630573734149,37541,282232,216384
1630573734159,37545,282218,216408
