timestamp,green,ir,red
1630573698891,28544,163395,138631
1630573698901,28558,163410,138636
1630573698911,28555,163421,138636
1630573698921,28552,163429,138640
1630573698931,28554,163412,138633
1630573698941,28550,163394,138634
1630573698951,28550,163409,138637
1630573698961,28555,163407,138629
1630573698971,28553,163421,138634
1630573698981,28552,163420,138640
1630573698991,28555,163417,138643
1630573699001,28553,163407,138645
1630573699011,28562,163414,138635
1630573699021,28557,163391,138632
1630573699031,28564,163422,138646
1630573699041,28564,163393,138645
1630573699051,28570,163413,138640
1630573699061,28548,163433,138627
1630573699071,28561,163426,138651
1630573699081,28557,163400,138641
1630573699091,28558,163420,138639
1630573699101,28555,163413,138640
1630573699111,28553,163414,138621
1630573699121,28569,163409,138638
1630573699131,28567,163421,138639
1630573699141,28568,163423,138631
1630573699151,28570,163432,138633
1630573699161,28565,163406,138628
1630573699171,28573,163420,138622
1630573699181,28569,163434,138630
1630573699191,28572,163412,138607
1630573699201,28573,163432,138618
1630573699211,28565,163448,138610
1630573699221,28568,163448,138617
1630573699231,28589,163443,138624
1630573699241,28578,163474,138626
1630573699251,28580,163454,138626
1630573699261,28577,163459,138625
1630573699271,28581,163460,138609
1630573699281,28577,163474,138615
1630573699291,28583,163468,138616
1630573699301,28582,163465,138624
1630573699311,28594,163470,138618
1630573699321,28589,163478,138605
1630573699331,28584,163461,138623
1630573699341,28594,163473,138613
1630573699351,28596,163461,138615
1630573699361,28593,163478,138600
1630573699371,28586,163491,138609
1630573699381,28598,163502,138616
1630573699391,28590,163511,138604
1630573699401,28592,163517,138608
1630573699411,28600,163493,138602
1630573699421,28603,163505,138608
1630573699431,28604,163519,138612
1630573699441,28602,163499,138607
1630573699451,28613,163518,138616
1630573699461,28610,163513,138596
1630573699471,28614,163516,138603
1630573699481,28616,163530,138607
1630573699491,28610,163508,138594
1630573699501,28616,163537,138593
1630573699511,28617,163530,138574
1630573699521,28622,163536,138596
1630573699531,28633,163575,138582
1630573699541,28619,163546,138583
1630573699551,28622,163546,138590
1630573699561,28622,163553,138600
1630573699571,28625,163559,138585
1630573699581,28624,163574,138578
1630573699591,28626,163534,138599
1630573699601,28621,163534,138581
1630573699611,28609,163525,138583
1630573699621,28615,163527,138563
1630573699631,28611,163505,138579
1630573699641,28610,163498,138583
1630573699651,28610,163474,138574
1630573699661,28607,163505,138580
1630573699671,28595,163500,138590
1630573699681,28591,163471,138570
1630573699691,28594,163466,138578
1630573699701,28598,163471,138576
1630573699711,28599,163483,138557
1630573699721,28592,163454,138568
1630573699731,28591,163448,138575
1630573699741,28585,163438,138576
1630573699751,28582,163424,138572
1630573699761,28582,163434,138575
1630573699771,28575,163419,138565
1630573699781,28579,163417,138577
1630573699791,28576,163413,138562
1630573699801,28578,163390,138578
1630573699811,28569,163399,138554
1630573699821,28574,163396,138569
1630573699831,28575,163361,138586
1630573699841,28563,163401,138580
1630573699851,28577,163402,138583
1630573699861,28577,163379,138585
1630573699871,28572,163377,138572
1630573699881,28572,163397,138563
1630573699891,28582,163370,138576
1630573699901,28568,163366,138567
1630573699911,28565,163356,138596
1630573699921,28566,163370,138570
1630573699931,28562,163397,138577
1630573699941,28564,163363,138562
1630573699951,28565,163369,138572
1630573699961,28567,163357,138567
1630573699971,28566,163383,138567
1630573699981,28563,163339,138577
1630573699991,28562,163344,138575
1630573700001,28556,163339,138556
1630573700011,28568,163345,138573
1630573700021,28565,163355,138546
1630573700031,28559,163373,138579
1630573700041,28562,163363,138563
1630573700051,28563,163365,138563
1630573700061,28564,163375,138563
1630573700071,28563,163359,138563
1630573700081,28563,163361,138560
1630573700091,28563,163380,138563
1630573700101,28570,163379,138574
1630573700111,28567,163366,138570
1630573700121,28570,163394,138566
1630573700131,28571,163406,138591
1630573700141,28575,163449,138609
1630573700151,28577,163428,138616
1630573700161,28574,163437,138662
1630573700171,28571,163494,138652
1630573700181,28592,163532,138697
1630573700191,28589,163575,138695
1630573700201,28595,163592,138752
1630573700211,28594,163609,138770
1630573700221,28598,163646,138782
1630573700231,28601,163660,138814
1630573700241,28601,163681,138813
1630573700251,28601,163731,138828
1630573700261,28610,163745,138859
1630573700271,28613,163773,138859
1630573700281,28614,163758,138861
1630573700291,28620,163780,138879
1630573700301,28625,163792,138883
1630573700311,28624,163799,138882
1630573700321,28628,163788,138881
1630573700331,28615,163826,138889
1630573700341,28615,163816,138897
1630573700351,28631,163831,138889
1630573700361,28633,163809,138889
1630573700371,28627,163801,138849
1630573700381,28633,163803,138887
1630573700391,28631,163780,138861
1630573700401,28635,163804,138842
1630573700411,28629,163794,138832
1630573700421,28630,163778,138820
1630573700431,28631,163744,138787
1630573700441,28631,163728,138797
1630573700451,28634,163702,138759
1630573700461,28629,163730,138743
1630573700471,28625,163684,138726
1630573700481,28636,163664,138703
1630573700491,28626,163631,138688
1630573700501,28624,163622,138667
1630573700511,28626,163618,138641
1630573700521,28623,163610,138651
1630573700531,28627,163575,138613
1630573700541,28623,163573,138599
1630573700551,28616,163536,138592
1630573700561,28612,163504,138579
1630573700571,28609,163514,138586
1630573700581,28600,163494,138572
1630573700591,28608,163484,138553
1630573700601,28591,163444,138553
1630573700611,28593,163444,138549
1630573700621,28590,163414,138562
1630573700631,28588,163446,138548
1630573700641,28585,163445,138537
1630573700651,28572,163427,138569
1630573700661,28575,163417,138569
1630573700671,28569,163431,138604
1630573700681,28574,163437,138594
1630573700691,28563,163440,138612
1630573700701,28573,163441,138623
1630573700711,28565,163453,138626
1630573700721,28565,163458,138650
1630573700731,28560,163461,138659
1630573700741,28557,163458,138659
1630573700751,28557,163490,138682
1630573700761,28567,163511,138706
1630573700771,28558,163493,138721
1630573700781,28557,163493,138741
1630573700791,28554,163494,138732
1630573700801,28559,163492,138755
1630573700811,28558,163507,138740
1630573700821,28562,163492,138753
1630573700831,28555,163524,138759
1630573700841,28547,163545,138770
1630573700851,28555,163490,138768
1630573700861,28551,163516,138771
1630573700871,28552,163508,138756
1630573700881,28554,163518,138756
1630573700891,28545,163509,138762
1630573700901,28547,163480,138771
1630573700911,28547,163502,138774
1630573700921,28542,163512,138756
1630573700931,28542,163508,138771
1630573700941,28540,163506,138775
1630573700951,28547,163492,138756
1630573700961,28542,163482,138763
1630573700971,28553,163487,138766
1630573700981,28547,163457,138763
1630573700991,28543,163484,138757
1630573701001,28554,163489,138756
1630573701011,28535,163473,138749
1630573701021,28542,163491,138787
1630573701031,28543,163506,138769
1630573701041,28539,163479,138769
1630573701051,28544,163504,138752
1630573701061,28541,163485,138763
1630573701071,28544,163501,138769
1630573701081,28546,163489,138750
1630573701091,28544,163496,138764
1630573701101,28546,163508,138780
1630573701111,28541,163496,138774
1630573701121,28548,163479,138774
1630573701131,28542,163519,138775
1630573701141,28551,163508,138760
1630573701151,28560,163533,138771
1630573701161,28550,163531,138771
1630573701171,28554,163530,138770
1630573701181,28549,163518,138770
1630573701191,28548,163519,138762
1630573701201,28547,163520,138779
1630573701211,28545,163535,138774
1630573701221,28545,163497,138756
1630573701231,28547,163511,138750
1630573701241,28549,163506,138744
1630573701251,28553,163534,138739
1630573701261,28546,163512,138753
1630573701271,28549,163523,138761
1630573701281,28555,163546,138742
1630573701291,28563,163526,138760
1630573701301,28549,163524,138751
1630573701311,28548,163542,138763
1630573701321,28563,163527,138750
1630573701331,28555,163548,138742
1630573701341,28557,163546,138737
1630573701351,28557,163550,138730
1630573701361,28560,163537,138743
1630573701371,28559,163572,138745
1630573701381,28560,163563,138762
1630573701391,28562,163579,138742
1630573701401,28561,163566,138738
1630573701411,28567,163570,138745
1630573701421,28566,163582,138741
1630573701431,28560,163584,138749
1630573701441,28572,163600,138743
1630573701451,28561,163594,138741
1630573701461,28563,163581,138757
1630573701471,28580,163596,138753
1630573701481,28583,163618,138758
1630573701491,28564,163637,138770
1630573701501,28577,163666,138774
1630573701511,28588,163642,138769
1630573701521,28584,163656,138784
1630573701531,28582,163655,138785
1630573701541,28579,163664,138801
1630573701551,28579,163656,138798
1630573701561,28576,163660,138793
1630573701571,28577,163645,138802
1630573701581,28570,163594,138777
1630573701591,28566,163609,138799
1630573701601,28558,163623,138795
1630573701611,28560,163563,138784
1630573701621,28553,163585,138785
1630573701631,28556,163569,138786
1630573701641,28543,163557,138799
1630573701651,28538,163552,138782
1630573701661,28546,163545,138784
1630573701671,28537,163524,138776
1630573701681,28529,163520,138812
1630573701691,28530,163497,138787
1630573701701,28525,163507,138814
1630573701711,28518,163484,138786
1630573701721,28509,163477,138786
1630573701731,28510,163468,138796
1630573701741,28509,163438,138792
1630573701751,28502,163453,138795
1630573701761,28498,163451,138791
1630573701771,28492,163425,138792
1630573701781,28488,163424,138770
1630573701791,28479,163406,138779
1630573701801,28478,163407,138764
1630573701811,28479,163368,138777
1630573701821,28476,163380,138743
1630573701831,28481,163355,138788
1630573701841,28479,163367,138772
1630573701851,28478,163388,138753
1630573701861,28477,163344,138758
1630573701871,28473,163349,138760
1630573701881,28475,163350,138769
1630573701891,28469,163331,138763
1630573701901,28468,163335,138756
1630573701911,28468,163330,138743
1630573701921,28466,163329,138737
1630573701931,28467,163318,138739
1630573701941,28471,163314,138755
1630573701951,28454,163331,138735
1630573701961,28458,163325,138756
1630573701971,28459,163313,138760
1630573701981,28462,163313,138745
1630573701991,28462,163299,138741
1630573702001,28460,163343,138754
1630573702011,28463,163283,138738
1630573702021,28455,163309,138743
1630573702031,28460,163316,138744
1630573702041,28459,163301,138743
1630573702051,28453,163294,138746
1630573702061,28453,163306,138742
1630573702071,28457,163297,138726
1630573702081,28449,163319,138741
1630573702091,28452,163315,138723
1630573702101,28449,163282,138740
1630573702111,28459,163287,138732
1630573702121,28453,163293,138742
1630573702131,28446,163302,138738
1630573702141,28449,163275,138711
1630573702151,28454,163299,138718
1630573702161,28446,163286,138726
1630573702171,28453,163292,138720
1630573702181,28452,163304,138710
1630573702191,28457,163307,138713
1630573702201,28451,163300,138721
1630573702211,28456,163277,138711
1630573702221,28458,163286,138695
1630573702231,28455,163309,138716
1630573702241,28456,163295,138708
1630573702251,28461,163280,138700
1630573702261,28458,163315,138691
1630573702271,28460,163312,138675
1630573702281,28471,163325,138697
1630573702291,28461,163288,138673
1630573702301,28457,163305,138660
1630573702311,28452,163327,138677
1630573702321,28452,163309,138688
1630573702331,28455,163354,138686
1630573702341,28451,163320,138685
1630573702351,28455,163341,138684
1630573702361,28466,163340,138694
1630573702371,28457,163350,138689
1630573702381,28461,163337,138679
1630573702391,28463,163358,138702
1630573702401,28464,163332,138683
1630573702411,28465,163366,138694
1630573702421,28465,163393,138705
1630573702431,28470,163367,138701
1630573702441,28471,163378,138677
1630573702451,28468,163362,138696
1630573702461,28465,163394,138679
1630573702471,28476,163377,138690
1630573702481,28462,163392,138700
1630573702491,28473,163373,138695
1630573702501,28488,163403,138714
1630573702511,28480,163406,138691
1630573702521,28475,163454,138690
1630573702531,28474,163433,138703
1630573702541,28480,163418,138689
1630573702551,28478,163439,138693
1630573702561,28481,163446,138701
1630573702571,28476,163421,138693
1630573702581,28475,163410,138702
1630573702591,28464,163394,138680
1630573702601,28459,163368,138682
1630573702611,28458,163336,138680
1630573702621,28442,163342,138678
1630573702631,28427,163340,138655
1630573702641,28428,163328,138682
1630573702651,28423,163322,138669
1630573702661,28434,163307,138649
1630573702671,28424,163324,138677
1630573702681,28424,163318,138672
1630573702691,28415,163284,138677
1630573702701,28417,163283,138665
1630573702711,28413,163291,138671
1630573702721,28408,163265,138679
1630573702731,28403,163253,138684
1630573702741,28403,163268,138681
1630573702751,28399,163276,138692
1630573702761,28403,163260,138689
1630573702771,28386,163264,138704
1630573702781,28397,163247,138698
1630573702791,28399,163217,138690
1630573702801,28392,163232,138700
1630573702811,28384,163235,138706
1630573702821,28388,163272,138730
1630573702831,28388,163264,138718
1630573702841,28384,163233,138733
1630573702851,28387,163253,138720
1630573702861,28385,163256,138728
1630573702871,28382,163221,138719
1630573702881,28386,163238,138720
1630573702891,28376,163231,138720
1630573702901,28384,163250,138718
1630573702911,28379,163236,138712
1630573702921,28378,163234,138724
1630573702931,28373,163233,138724
1630573702941,28376,163216,138697
1630573702951,28368,163219,138704
1630573702961,28384,163201,138695
1630573702971,28379,163237,138721
1630573702981,28378,163234,138733
1630573702991,28379,163212,138705
1630573703001,28378,163217,138706
1630573703011,28382,163206,138711
1630573703021,28379,163242,138712
1630573703031,28382,163225,138696
1630573703041,28384,163205,138711
1630573703051,28392,163227,138700
1630573703061,28380,163231,138688
1630573703071,28378,163199,138716
1630573703081,28383,163254,138696
1630573703091,28382,163218,138687
1630573703101,28387,163227,138690
1630573703111,28383,163194,138685
1630573703121,28378,163227,138692
1630573703131,28383,163209,138696
1630573703141,28381,163205,138686
1630573703151,28384,163223,138678
1630573703161,28385,163216,138669
1630573703171,28389,163214,138673
1630573703181,28385,163213,138675
1630573703191,28390,163213,138674
1630573703201,28392,163243,138690
1630573703211,28398,163228,138680
1630573703221,28394,163247,138676
1630573703231,28394,163246,138665
1630573703241,28398,163223,138676
1630573703251,28409,163246,138693
1630573703261,28388,163246,138663
1630573703271,28400,163261,138695
1630573703281,28396,163271,138671
1630573703291,28398,163270,138679
1630573703301,28402,163265,138656
1630573703311,28396,163266,138672
1630573703321,28405,163285,138669
1630573703331,28408,163273,138671
1630573703341,28405,163279,138655
1630573703351,28409,163294,138684
1630573703361,28410,163288,138678
1630573703371,28414,163290,138658
1630573703381,28415,163300,138659
1630573703391,28417,163301,138663
1630573703401,28414,163301,138669
1630573703411,28431,163321,138667
1630573703421,28427,163335,138678
1630573703431,28433,163337,138653
1630573703441,28424,163317,138659
1630573703451,28430,163327,138672
1630573703461,28427,163338,138657
1630573703471,28440,163335,138640
1630573703481,28434,163348,138662
1630573703491,28433,163360,138660
1630573703501,28439,163362,138650
1630573703511,28441,163385,138653
1630573703521,28442,163382,138659
1630573703531,28442,163377,138658
1630573703541,28444,163374,138658
1630573703551,28442,163392,138649
1630573703561,28439,163351,138654
1630573703571,28441,163332,138666
1630573703581,28425,163327,138637
1630573703591,28429,163359,138645
1630573703601,28431,163306,138636
1630573703611,28421,163309,138645
1630573703621,28412,163301,138650
1630573703631,28414,163291,138656
1630573703641,28412,163292,138636
1630573703651,28408,163296,138651
1630573703661,28405,163274,138641
1630573703671,28403,163242,138645
1630573703681,28400,163259,138640
1630573703691,28402,163245,138628
1630573703701,28395,163264,138629
1630573703711,28398,163244,138671
1630573703721,28386,163234,138637
1630573703731,28389,163257,138645
1630573703741,28394,163224,138655
1630573703751,28394,163237,138643
1630573703761,28390,163212,138639
1630573703771,28369,163210,138658
1630573703781,28385,163191,138661
1630573703791,28385,163211,138657
1630573703801,28382,163194,138644
1630573703811,28385,163194,138662
1630573703821,28386,163209,138655
1630573703831,28382,163231,138659
1630573703841,28385,163182,138659
1630573703851,28377,163199,138672
1630573703861,28389,163174,138660
1630573703871,28380,163183,138645
1630573703881,28379,163196,138650
1630573703891,28388,163168,138657
1630573703901,28386,163185,138655
1630573703911,28386,163171,138654
1630573703921,28377,163205,138659
1630573703931,28378,163183,138666
1630573703941,28393,163185,138669
1630573703951,28386,163191,138676
1630573703961,28384,163188,138662
1630573703971,28381,163179,138657
1630573703981,28386,163176,138661
1630573703991,28387,163164,138656
1630573704001,28390,163186,138646
1630573704011,28394,163207,138653
1630573704021,28391,163192,138656
1630573704031,28397,163211,138660
1630573704041,28396,163211,138662
1630573704051,28391,163198,138669
1630573704061,28392,163200,138653
1630573704071,28391,163212,138653
1630573704081,28406,163194,138651
1630573704091,28389,163219,138656
1630573704101,28405,163198,138652
1630573704111,28398,163226,138659
1630573704121,28401,163236,138666
1630573704131,28404,163220,138663
1630573704141,28403,163240,138683
1630573704151,28411,163263,138670
1630573704161,28407,163232,138663
1630573704171,28411,163256,138670
1630573704181,28412,163248,138664
1630573704191,28416,163239,138665
1630573704201,28419,163260,138681
1630573704211,28420,163277,138679
1630573704221,28421,163284,138668
1630573704231,28425,163257,138676
1630573704241,28424,163268,138684
1630573704251,28427,163246,138670
1630573704261,28439,163287,138686
1630573704271,28430,163317,138688
1630573704281,28440,163315,138681
1630573704291,28439,163292,138689
1630573704301,28440,163322,138679
1630573704311,28439,163283,138682
1630573704321,28440,163331,138675
1630573704331,28448,163311,138688
1630573704341,28448,163309,138684
1630573704351,28447,163335,138681
1630573704361,28447,163341,138681
1630573704371,28453,163344,138680
1630573704381,28464,163350,138694
1630573704391,28456,163331,138670
1630573704401,28473,163382,138683
1630573704411,28473,163363,138691
1630573704421,28470,163359,138676
1630573704431,28467,163360,138674
1630573704441,28470,163388,138676
1630573704451,28472,163394,138680
1630573704461,28476,163397,138676
1630573704471,28478,163414,138678
1630573704481,28479,163398,138677
1630573704491,28483,163400,138689
1630573704501,28481,163383,138681
1630573704511,28484,163419,138683
1630573704521,28479,163409,138675
1630573704531,28470,163401,138675
1630573704541,28471,163401,138677
1630573704551,28474,163374,138682
1630573704561,28480,163342,138685
1630573704571,28457,163350,138682
1630573704581,28466,163355,138696
1630573704591,28460,163340,138663
1630573704601,28454,163351,138678
1630573704611,28453,163365,138678
1630573704621,28457,163329,138686
1630573704631,28449,163318,138681
1630573704641,28454,163312,138686
1630573704651,28449,163282,138677
1630573704661,28447,163299,138692
1630573704671,28452,163314,138690
1630573704681,28442,163290,138695
1630573704691,28443,163280,138688
1630573704701,28443,163272,138684
1630573704711,28436,163255,138705
1630573704721,28439,163232,138707
1630573704731,28442,163257,138690
1630573704741,28441,163260,138688
1630573704751,28432,163234,138703
1630573704761,28435,163246,138691
1630573704771,28430,163243,138710
1630573704781,28430,163229,138684
1630573704791,28440,163240,138707
1630573704801,28436,163226,138694
1630573704811,28440,163239,138711
1630573704821,28439,163230,138700
1630573704831,28436,163247,138708
1630573704841,28441,163226,138713
1630573704851,28440,163229,138706
1630573704861,28435,163224,138703
1630573704871,28440,163246,138697
1630573704881,28432,163242,138681
1630573704891,28441,163208,138727
1630573704901,28446,163244,138708
1630573704911,28430,163233,138724
1630573704921,28438,163247,138723
1630573704931,28439,163251,138709
1630573704941,28441,163259,138719
1630573704951,28442,163266,138708
1630573704961,28441,163248,138720
1630573704971,28444,163238,138724
1630573704981,28446,163255,138708
1630573704991,28447,163274,138717
1630573705001,28452,163252,138713
1630573705011,28455,163270,138721
1630573705021,28449,163268,138707
1630573705031,28459,163263,138723
1630573705041,28471,163257,138717
1630573705051,28449,163281,138742
1630573705061,28456,163272,138718
1630573705071,28455,163283,138720
1630573705081,28454,163275,138716
1630573705091,28469,163321,138722
1630573705101,28462,163278,138711
1630573705111,28466,163293,138719
1630573705121,28467,163301,138724
1630573705131,28474,163276,138721
1630573705141,28470,163290,138712
1630573705151,28472,163296,138715
1630573705161,28474,163298,138733
1630573705171,28475,163298,138720
1630573705181,28481,163315,138719
1630573705191,28477,163318,138722
1630573705201,28487,163353,138729
1630573705211,28480,163310,138736
1630573705221,28487,163331,138712
1630573705231,28500,163305,138718
1630573705241,28486,163359,138720
1630573705251,28492,163368,138723
1630573705261,28497,163352,138724
1630573705271,28496,163373,138719
1630573705281,28495,163349,138727
1630573705291,28497,163375,138714
1630573705301,28506,163373,138729
1630573705311,28508,163371,138729
1630573705321,28504,163395,138714
1630573705331,28505,163403,138734
1630573705341,28511,163372,138729
1630573705351,28511,163387,138697
1630573705361,28512,163397,138708
1630573705371,28512,163428,138722
1630573705381,28513,163412,138701
1630573705391,28522,163418,138725
1630573705401,28525,163432,138718
1630573705411,28529,163434,138709
1630573705421,28528,163427,138748
1630573705431,28536,163444,138729
1630573705441,28532,163430,138712
1630573705451,28530,163472,138708
1630573705461,28540,163466,138718
1630573705471,28543,163457,138731
1630573705481,28549,163454,138729
1630573705491,28543,163476,138732
1630573705501,28558,163489,138748
1630573705511,28559,163463,138750
1630573705521,28556,163456,138731
1630573705531,28553,163462,138735
1630573705541,28537,163469,138734
1630573705551,28532,163472,138730
1630573705561,28536,163433,138739
1630573705571,28526,163440,138719
1630573705581,28531,163404,138722
1630573705591,28531,163406,138736
1630573705601,28519,163430,138732
1630573705611,28532,163383,138738
1630573705621,28520,163397,138731
1630573705631,28519,163408,138741
1630573705641,28516,163373,138751
1630573705651,28513,163387,138731
1630573705661,28518,163377,138742
1630573705671,28517,163354,138750
1630573705681,28510,163370,138742
1630573705691,28511,163357,138717
1630573705701,28512,163368,138747
1630573705711,28501,163353,138756
1630573705721,28487,163328,138727
1630573705731,28506,163334,138730
1630573705741,28495,163299,138748
1630573705751,28495,163314,138739
1630573705761,28493,163330,138736
1630573705771,28494,163291,138742
1630573705781,28494,163323,138739
1630573705791,28495,163312,138745
1630573705801,28497,163316,138726
1630573705811,28489,163303,138724
1630573705821,28491,163285,138746
1630573705831,28492,163294,138736
1630573705841,28492,163303,138732
1630573705851,28493,163297,138758
1630573705861,28488,163282,138732
1630573705871,28486,163295,138721
1630573705881,28497,163294,138723
1630573705891,28491,163272,138720
1630573705901,28490,163272,138717
1630573705911,28492,163277,138733
1630573705921,28489,163294,138730
1630573705931,28491,163279,138738
1630573705941,28494,163272,138731
1630573705951,28492,163269,138736
1630573705961,28495,163280,138729
1630573705971,28494,163267,138731
1630573705981,28494,163261,138732
1630573705991,28498,163294,138720
1630573706001,28500,163279,138721
1630573706011,28505,163282,138722
1630573706021,28501,163280,138726
1630573706031,28504,163264,138729
1630573706041,28504,163295,138713
1630573706051,28500,163295,138728
1630573706061,28501,163302,138726
1630573706071,28502,163297,138742
1630573706081,28502,163302,138721
1630573706091,28502,163318,138734
1630573706101,28504,163307,138727
1630573706111,28514,163290,138738
1630573706121,28511,163318,138725
1630573706131,28513,163301,138751
1630573706141,28519,163313,138724
1630573706151,28519,163300,138731
1630573706161,28518,163350,138745
1630573706171,28529,163327,138747
1630573706181,28515,163322,138744
1630573706191,28531,163336,138746
1630573706201,28535,163344,138741
1630573706211,28529,163373,138741
1630573706221,28535,163350,138757
1630573706231,28533,163368,138760
1630573706241,28539,163371,138759
1630573706251,28542,163376,138765
1630573706261,28540,163386,138771
1630573706271,28545,163393,138770
1630573706281,28555,163398,138786
1630573706291,28549,163408,138767
1630573706301,28550,163404,138764
1630573706311,28553,163395,138787
1630573706321,28558,163397,138763
1630573706331,28552,163430,138776
1630573706341,28562,163442,138779
1630573706351,28565,163433,138755
1630573706361,28567,163445,138788
1630573706371,28560,163449,138770
1630573706381,28568,163459,138782
1630573706391,28569,163452,138786
1630573706401,28575,163475,138777
1630573706411,28573,163480,138797
1630573706421,28572,163470,138783
1630573706431,28575,163503,138793
1630573706441,28575,163497,138786
1630573706451,28578,163515,138780
1630573706461,28581,163473,138782
1630573706471,28590,163528,138779
1630573706481,28585,163516,138783
1630573706491,28594,163530,138801
1630573706501,28593,163510,138786
1630573706511,28596,163525,138798
1630573706521,28595,163554,138792
1630573706531,28599,163567,138785
1630573706541,28599,163528,138780
1630573706551,28595,163542,138808
1630573706561,28592,163531,138792
1630573706571,28597,163533,138804
1630573706581,28590,163518,138801
1630573706591,28580,163507,138799
1630573706601,28589,163493,138776
1630573706611,28582,163492,138782
1630573706621,28573,163484,138790
1630573706631,28575,163480,138776
1630573706641,28564,163493,138774
1630573706651,28565,163469,138790
1630573706661,28562,163458,138784
1630573706671,28561,163453,138800
1630573706681,28566,163456,138796
1630573706691,28556,163421,138779
1630573706701,28546,163447,138783
1630573706711,28557,163453,138786
1630573706721,28550,163409,138784
1630573706731,28540,163412,138785
1630573706741,28536,163386,138804
1630573706751,28534,163384,138787
1630573706761,28537,163380,138772
1630573706771,28532,163353,138794
1630573706781,28523,163376,138793
1630573706791,28530,163362,138778
1630573706801,28523,163346,138790
1630573706811,28522,163329,138773
1630573706821,28515,163371,138785
1630573706831,28508,163332,138789
1630573706841,28523,163331,138792
1630573706851,28522,163348,138786
1630573706861,28512,163330,138762
1630573706871,28518,163319,138783
1630573706881,28516,163326,138772
1630573706891,28517,163327,138794
1630573706901,28514,163324,138781
1630573706911,28509,163340,138796
1630573706921,28512,163311,138778
1630573706931,28512,163301,138796
1630573706941,28517,163324,138783
1630573706951,28517,163312,138772
1630573706961,28514,163304,138767
1630573706971,28508,163312,138780
1630573706981,28498,163322,138792
1630573706991,28514,163312,138771
1630573707001,28507,163321,138785
1630573707011,28512,163328,138770
1630573707021,28510,163309,138771
1630573707031,28513,163326,138769
1630573707041,28515,163328,138773
1630573707051,28523,163305,138782
1630573707061,28517,163299,138754
1630573707071,28512,163333,138780
1630573707081,28515,163330,138771
1630573707091,28512,163324,138772
1630573707101,28516,163325,138766
1630573707111,28509,163313,138768
1630573707121,28519,163348,138765
1630573707131,28519,163336,138772
1630573707141,28521,163322,138734
1630573707151,28527,163362,138761
1630573707161,28512,163343,138755
1630573707171,28518,163356,138749
1630573707181,28512,163329,138758
1630573707191,28524,163341,138761
1630573707201,28527,163346,138764
1630573707211,28525,163342,138765
1630573707221,28523,163335,138757
1630573707231,28526,163355,138756
1630573707241,28528,163327,138759
1630573707251,28536,163334,138765
1630573707261,28534,163367,138748
1630573707271,28526,163355,138748
1630573707281,28534,163373,138743
1630573707291,28533,163355,138754
1630573707301,28538,163371,138748
1630573707311,28547,163360,138747
1630573707321,28534,163410,138755
1630573707331,28553,163388,138745
1630573707341,28528,163404,138733
1630573707351,28544,163372,138735
1630573707361,28535,163394,138747
1630573707371,28545,163396,138748
1630573707381,28546,163414,138743
1630573707391,28544,163422,138746
1630573707401,28548,163414,138740
1630573707411,28550,163418,138752
1630573707421,28554,163404,138754
1630573707431,28554,163427,138745
1630573707441,28555,163451,138735
1630573707451,28547,163435,138734
1630573707461,28554,163439,138732
1630573707471,28553,163440,138739
1630573707481,28564,163444,138732
1630573707491,28556,163443,138741
1630573707501,28569,163461,138748
1630573707511,28566,163464,138734
1630573707521,28560,163464,138747
1630573707531,28563,163456,138749
1630573707541,28567,163485,138752
1630573707551,28565,163454,138740
1630573707561,28563,163467,138724
1630573707571,28568,163431,138724
1630573707581,28556,163444,138736
1630573707591,28552,163423,138712
1630573707601,28548,163418,138719
1630573707611,28545,163421,138723
1630573707621,28540,163402,138724
1630573707631,28542,163391,138721
1630573707641,28534,163375,138736
1630573707651,28535,163359,138727
1630573707661,28528,163376,138725
1630573707671,28524,163348,138719
1630573707681,28522,163355,138723
1630573707691,28514,163344,138721
1630573707701,28512,163350,138723
1630573707711,28509,163331,138725
1630573707721,28507,163325,138718
1630573707731,28504,163314,138738
1630573707741,28500,163298,138719
1630573707751,28498,163300,138715
1630573707761,28492,163289,138719
1630573707771,28489,163276,138720
1630573707781,28483,163263,138724
1630573707791,28491,163288,138731
1630573707801,28482,163297,138742
1630573707811,28479,163290,138707
1630573707821,28492,163280,138721
1630573707831,28489,163259,138745
1630573707841,28479,163291,138743
1630573707851,28473,163304,138716
1630573707861,28474,163248,138737
1630573707871,28472,163276,138714
1630573707881,28471,163255,138709
1630573707891,28464,163245,138725
1630573707901,28467,163246,138728
1630573707911,28466,163218,138696
1630573707921,28466,163249,138718
1630573707931,28463,163235,138728
1630573707941,28463,163214,138709
1630573707951,28465,163250,138721
1630573707961,28469,163233,138709
1630573707971,28467,163251,138709
1630573707981,28450,163231,138704
1630573707991,28460,163239,138715
1630573708001,28455,163254,138710
1630573708011,28462,163213,138722
1630573708021,28462,163247,138718
1630573708031,28460,163226,138697
1630573708041,28459,163249,138702
1630573708051,28454,163248,138710
1630573708061,28456,163258,138711
1630573708071,28454,163227,138702
1630573708081,28456,163254,138715
1630573708091,28461,163239,138711
1630573708101,28456,163259,138718
1630573708111,28460,163259,138721
1630573708121,28448,163257,138709
1630573708131,28472,163270,138715
1630573708141,28461,163286,138705
1630573708151,28450,163255,138701
1630573708161,28470,163277,138716
1630573708171,28462,163265,138701
1630573708181,28465,163261,138698
1630573708191,28459,163276,138696
1630573708201,28466,163294,138717
1630573708211,28464,163291,138713
1630573708221,28473,163281,138704
1630573708231,28464,163297,138700
1630573708241,28465,163275,138701
1630573708251,28478,163293,138731
1630573708261,28473,163277,138717
1630573708271,28468,163304,138701
1630573708281,28467,163316,138696
1630573708291,28477,163317,138720
1630573708301,28477,163311,138719
1630573708311,28480,163297,138714
1630573708321,28473,163322,138704
1630573708331,28473,163321,138714
1630573708341,28479,163322,138708
1630573708351,28480,163355,138696
1630573708361,28479,163318,138689
1630573708371,28484,163344,138708
1630573708381,28479,163362,138703
1630573708391,28489,163341,138709
1630573708401,28489,163355,138699
1630573708411,28487,163354,138696
1630573708421,28489,163360,138711
1630573708431,28486,163365,138695
1630573708441,28491,163376,138721
1630573708451,28494,163375,138712
1630573708461,28479,163377,138692
1630573708471,28498,163374,138692
1630573708481,28492,163384,138702
1630573708491,28498,163403,138707
1630573708501,28494,163383,138717
1630573708511,28493,163392,138691
1630573708521,28502,163379,138707
1630573708531,28492,163366,138705
1630573708541,28486,163366,138704
1630573708551,28480,163341,138699
1630573708561,28475,163337,138698
1630573708571,28469,163303,138704
1630573708581,28468,163337,138698
1630573708591,28465,163312,138702
1630573708601,28461,163293,138699
1630573708611,28454,163291,138699
1630573708621,28458,163298,138698
1630573708631,28448,163297,138707
1630573708641,28445,163243,138692
1630573708651,28442,163259,138729
1630573708661,28433,163255,138691
1630573708671,28431,163241,138710
1630573708681,28427,163239,138720
1630573708691,28418,163218,138700
1630573708701,28419,163207,138698
1630573708711,28420,163211,138731
1630573708721,28416,163238,138711
1630573708731,28412,163195,138712
1630573708741,28415,163194,138719
1630573708751,28409,163195,138725
1630573708761,28405,163196,138713
1630573708771,28397,163188,138726
1630573708781,28404,163177,138760
1630573708791,28412,163164,138723
1630573708801,28406,163166,138743
1630573708811,28399,163178,138728
1630573708821,28396,163204,138746
1630573708831,28397,163166,138729
1630573708841,28397,163149,138730
1630573708851,28391,163173,138741
1630573708861,28393,163173,138728
1630573708871,28396,163172,138750
1630573708881,28387,163169,138743
1630573708891,28391,163159,138755
1630573708901,28394,163174,138738
1630573708911,28388,163177,138754
1630573708921,28399,163199,138732
1630573708931,28390,163181,138751
1630573708941,28387,163169,138742
1630573708951,28383,163192,138757
1630573708961,28393,163192,138756
1630573708971,28387,163182,138769
1630573708981,28389,163173,138758
1630573708991,28386,163164,138747
1630573709001,28393,163179,138765
1630573709011,28388,163182,138747
1630573709021,28396,163187,138746
1630573709031,28392,163173,138769
1630573709041,28392,163192,138750
1630573709051,28386,163172,138739
1630573709061,28398,163212,138776
1630573709071,28398,163181,138755
1630573709081,28396,163200,138761
1630573709091,28396,163196,138776
1630573709101,28394,163231,138752
1630573709111,28400,163199,138767
1630573709121,28395,163190,138747
1630573709131,28408,163198,138758
1630573709141,28400,163217,138761
1630573709151,28399,163236,138766
1630573709161,28400,163217,138770
1630573709171,28406,163214,138771
1630573709181,28403,163223,138771
1630573709191,28408,163246,138762
1630573709201,28411,163233,138788
1630573709211,28405,163250,138771
1630573709221,28413,163241,138768
1630573709231,28408,163265,138789
1630573709241,28413,163263,138750
1630573709251,28422,163247,138763
1630573709261,28411,163247,138784
1630573709271,28407,163295,138767
1630573709281,28413,163254,138762
1630573709291,28421,163283,138772
1630573709301,28420,163254,138766
1630573709311,28423,163275,138773
1630573709321,28425,163304,138767
1630573709331,28429,163259,138771
1630573709341,28427,163280,138760
1630573709351,28429,163297,138776
1630573709361,28433,163287,138774
1630573709371,28434,163296,138773
1630573709381,28439,163322,138769
1630573709391,28440,163305,138762
1630573709401,28434,163337,138772
1630573709411,28447,163319,138779
1630573709421,28425,163323,138786
1630573709431,28440,163299,138791
1630573709441,28449,163353,138769
1630573709451,28442,163353,138788
1630573709461,28449,163362,138779
1630573709471,28452,163367,138782
1630573709481,28454,163363,138796
1630573709491,28455,163369,138786
1630573709501,28451,163372,138787
1630573709511,28453,163345,138781
1630573709521,28445,163364,138772
1630573709531,28438,163338,138782
1630573709541,28439,163331,138779
1630573709551,28439,163319,138792
1630573709561,28431,163313,138769
1630573709571,28426,163319,138788
1630573709581,28417,163309,138781
1630573709591,28413,163275,138777
1630573709601,28402,163262,138778
1630573709611,28407,163263,138775
1630573709621,28409,163255,138772
1630573709631,28404,163271,138783
1630573709641,28405,163226,138802
1630573709651,28394,163235,138786
1630573709661,28398,163232,138809
1630573709671,28386,163234,138799
1630573709681,28387,163200,138804
1630573709691,28389,163191,138804
1630573709701,28381,163192,138808
1630573709711,28374,163203,138822
1630573709721,28379,163189,138811
1630573709731,28380,163165,138812
1630573709741,28362,163162,138829
1630573709751,28370,163175,138814
1630573709761,28352,163151,138811
1630573709771,28366,163154,138801
1630573709781,28371,163165,138838
1630573709791,28369,163163,138827
1630573709801,28369,163164,138840
1630573709811,28366,163171,138846
1630573709821,28366,163173,138844
1630573709831,28360,163157,138824
1630573709841,28370,163165,138839
1630573709851,28361,163155,138861
1630573709861,28360,163140,138825
1630573709871,28363,163134,138836
1630573709881,28365,163144,138840
1630573709891,28368,163132,138848
1630573709901,28361,163171,138860
1630573709911,28372,163156,138832
1630573709921,28370,163168,138849
1630573709931,28359,163161,138870
1630573709941,28360,163157,138854
1630573709951,28362,163137,138857
1630573709961,28368,163176,138860
1630573709971,28367,163154,138855
1630573709981,28364,163177,138878
1630573709991,28373,163152,138843
1630573710001,28368,163148,138854
1630573710011,28379,163174,138855
1630573710021,28373,163183,138853
1630573710031,28376,163191,138850
1630573710041,28373,163187,138863
1630573710051,28375,163174,138849
1630573710061,28379,163164,138860
1630573710071,28381,163199,138871
1630573710081,28387,163173,138850
1630573710091,28389,163196,138871
1630573710101,28386,163215,138889
1630573710111,28388,163217,138865
1630573710121,28386,163199,138859
1630573710131,28392,163203,138885
1630573710141,28389,163207,138876
1630573710151,28385,163242,138883
1630573710161,28395,163224,138877
1630573710171,28401,163250,138874
1630573710181,28397,163217,138895
1630573710191,28398,163225,138889
1630573710201,28398,163235,138888
1630573710211,28402,163236,138875
1630573710221,28411,163250,138874
1630573710231,28403,163273,138864
1630573710241,28401,163268,138887
1630573710251,28414,163277,138876
1630573710261,28401,163275,138884
1630573710271,28404,163270,138878
1630573710281,28414,163250,138877
1630573710291,28414,163286,138884
1630573710301,28418,163258,138883
1630573710311,28417,163293,138875
1630573710321,28421,163287,138867
1630573710331,28419,163301,138888
1630573710341,28422,163278,138873
1630573710351,28428,163300,138869
1630573710361,28426,163307,138886
1630573710371,28432,163318,138885
1630573710381,28423,163312,138860
1630573710391,28424,163312,138871
1630573710401,28434,163344,138877
1630573710411,28436,163323,138874
1630573710421,28434,163346,138901
1630573710431,28439,163340,138883
1630573710441,28446,163347,138898
1630573710451,28445,163356,138887
1630573710461,28445,163354,138884
1630573710471,28443,163382,138881
1630573710481,28453,163393,138899
1630573710491,28452,163379,138884
1630573710501,28461,163400,138889
1630573710511,28461,163394,138889
1630573710521,28462,163387,138890
1630573710531,28461,163381,138894
1630573710541,28465,163383,138912
1630573710551,28439,163403,138885
1630573710561,28453,163365,138885
1630573710571,28448,163367,138917
1630573710581,28441,163356,138909
1630573710591,28436,163352,138889
1630573710601,28435,163350,138903
1630573710611,28429,163349,138902
1630573710621,28432,163336,138894
1630573710631,28427,163335,138912
1630573710641,28425,163310,138889
1630573710651,28415,163324,138906
1630573710661,28423,163298,138915
1630573710671,28418,163287,138911
1630573710681,28418,163314,138912
1630573710691,28417,163284,138917
1630573710701,28413,163279,138910
1630573710711,28401,163268,138930
1630573710721,28415,163262,138920
1630573710731,28411,163252,138922
1630573710741,28399,163280,138931
1630573710751,28402,163261,138919
1630573710761,28401,163228,138932
1630573710771,28396,163238,138930
1630573710781,28394,163245,138937
1630573710791,28401,163238,138939
1630573710801,28400,163256,138963
1630573710811,28399,163226,138952
1630573710821,28403,163260,138951
1630573710831,28401,163265,138960
1630573710841,28406,163257,138953
1630573710851,28403,163250,138967
1630573710861,28406,163229,138952
1630573710871,28399,163241,138971
1630573710881,28402,163244,138951
1630573710891,28411,163232,138960
1630573710901,28405,163230,138969
1630573710911,28406,163230,138946
1630573710921,28397,163234,138968
1630573710931,28405,163256,138953
1630573710941,28401,163231,138960
1630573710951,28404,163232,138963
1630573710961,28403,163238,138948
1630573710971,28402,163260,138959
1630573710981,28413,163255,138955
1630573710991,28411,163240,138960
1630573711001,28409,163268,138963
1630573711011,28412,163269,138956
1630573711021,28411,163254,138955
1630573711031,28406,163236,138966
1630573711041,28422,163255,138957
1630573711051,28408,163228,138951
1630573711061,28425,163276,138977
1630573711071,28426,163264,138977
1630573711081,28424,163271,138971
1630573711091,28422,163284,138955
1630573711101,28417,163249,138965
1630573711111,28423,163286,138974
1630573711121,28429,163282,138978
1630573711131,28428,163290,138945
1630573711141,28427,163288,138963
1630573711151,28432,163274,138967
1630573711161,28432,163280,138960
1630573711171,28441,163289,138958
1630573711181,28438,163286,138959
1630573711191,28446,163288,138960
1630573711201,28438,163299,138962
1630573711211,28439,163326,138966
1630573711221,28445,163310,138957
1630573711231,28450,163323,138971
1630573711241,28449,163320,138957
1630573711251,28444,163332,138965
1630573711261,28454,163341,138960
1630573711271,28453,163339,138951
1630573711281,28454,163307,138961
1630573711291,28457,163320,138966
1630573711301,28461,163351,138956
1630573711311,28459,163336,138948
1630573711321,28463,163355,138950
1630573711331,28467,163348,138953
1630573711341,28465,163373,138946
1630573711351,28473,163367,138943
1630573711361,28459,163363,138964
1630573711371,28483,163378,138968
1630573711381,28478,163354,138959
1630573711391,28478,163386,138955
1630573711401,28475,163383,138957
1630573711411,28481,163408,138948
1630573711421,28486,163413,138959
1630573711431,28478,163401,138948
1630573711441,28489,163428,138947
1630573711451,28494,163447,138947
1630573711461,28501,163441,138940
1630573711471,28504,163439,138941
1630573711481,28501,163424,138944
1630573711491,28508,163447,138949
1630573711501,28504,163442,138948
1630573711511,28511,163465,138941
1630573711521,28513,163487,138947
1630573711531,28511,163468,138965
1630573711541,28515,163471,138938
1630573711551,28513,163475,138940
1630573711561,28520,163461,138937
1630573711571,28507,163459,138960
1630573711581,28510,163453,138934
1630573711591,28502,163432,138950
1630573711601,28502,163459,138926
1630573711611,28500,163421,138957
1630573711621,28499,163424,138952
1630573711631,28501,163418,138935
1630573711641,28497,163403,138943
1630573711651,28496,163395,138936
1630573711661,28490,163410,138946
1630573711671,28500,163383,138958
1630573711681,28484,163436,138973
1630573711691,28487,163386,138963
1630573711701,28492,163379,138962
1630573711711,28485,163390,138963
1630573711721,28485,163406,138937
1630573711731,28480,163364,138955
1630573711741,28475,163345,138962
1630573711751,28479,163353,138965
1630573711761,28479,163345,138948
1630573711771,28475,163348,138947
1630573711781,28476,163370,138950
1630573711791,28474,163339,138952
1630573711801,28477,163337,138950
1630573711811,28479,163343,138949
1630573711821,28476,163356,138968
1630573711831,28477,163374,138952
1630573711841,28488,163364,138949
1630573711851,28476,163333,138968
1630573711861,28493,163336,138958
1630573711871,28478,163348,138959
1630573711881,28481,163349,138974
1630573711891,28478,163371,138956
1630573711901,28474,163358,138967
1630573711911,28476,163342,138949
1630573711921,28477,163343,138973
1630573711931,28478,163349,138961
1630573711941,28486,163342,138957
1630573711951,28484,163344,138963
1630573711961,28487,163338,138963
1630573711971,28485,163358,138955
1630573711981,28490,163353,138947
1630573711991,28487,163350,138968
1630573712001,28492,163385,138950
1630573712011,28491,163364,138955
1630573712021,28490,163342,138978
1630573712031,28486,163349,138934
1630573712041,28488,163359,138973
1630573712051,28491,163379,138961
1630573712061,28491,163358,138956
1630573712071,28494,163385,138956
1630573712081,28500,163378,138965
1630573712091,28498,163373,138962
1630573712101,28496,163387,138951
1630573712111,28504,163403,138950
1630573712121,28508,163411,138968
1630573712131,28507,163393,138977
1630573712141,28504,163409,138956
1630573712151,28511,163401,138963
1630573712161,28502,163398,138954
1630573712171,28520,163424,138969
1630573712181,28526,163431,138952
1630573712191,28513,163426,138931
1630573712201,28517,163413,138948
1630573712211,28521,163408,138961
1630573712221,28517,163427,138960
1630573712231,28521,163425,138958
1630573712241,28522,163404,138955
1630573712251,28521,163448,138943
1630573712261,28531,163435,138938
1630573712271,28527,163431,138939
1630573712281,28530,163458,138923
1630573712291,28530,163472,138939
1630573712301,28538,163457,138952
1630573712311,28538,163467,138944
1630573712321,28538,163487,138942
1630573712331,28535,163466,138939
1630573712341,28545,163464,138922
1630573712351,28546,163477,138943
1630573712361,28550,163501,138922
1630573712371,28543,163481,138929
1630573712381,28543,163508,138939
1630573712391,28546,163509,138945
1630573712401,28557,163483,138934
1630573712411,28556,163524,138929
1630573712421,28561,163515,138925
1630573712431,28563,163509,138926
1630573712441,28566,163532,138951
1630573712451,28559,163523,138930
1630573712461,28564,163550,138925
1630573712471,28564,163528,138919
1630573712481,28570,163553,138924
1630573712491,28565,163533,138941
1630573712501,28579,163534,138941
1630573712511,28578,163521,138945
1630573712521,28576,163565,138924
1630573712531,28577,163554,138923
1630573712541,28582,163566,138933
1630573712551,28572,163537,138922
1630573712561,28571,163557,138923
1630573712571,28573,163546,138914
1630573712581,28569,163532,138918
1630573712591,28568,163531,138928
1630573712601,28566,163550,138931
1630573712611,28561,163510,138923
1630573712621,28557,163484,138930
1630573712631,28560,163530,138945
1630573712641,28554,163506,138940
1630573712651,28550,163496,138902
1630573712661,28535,163477,138925
1630573712671,28547,163474,138937
1630573712681,28545,163449,138923
1630573712691,28548,163477,138928
1630573712701,28549,163468,138925
1630573712711,28541,163449,138933
1630573712721,28537,163442,138938
1630573712731,28533,163437,138912
1630573712741,28527,163422,138943
1630573712751,28525,163440,138927
1630573712761,28532,163433,138932
1630573712771,28525,163426,138936
1630573712781,28528,163402,138930
1630573712791,28527,163428,138945
1630573712801,28526,163406,138920
1630573712811,28524,163404,138931
1630573712821,28517,163423,138943
1630573712831,28523,163378,138931
1630573712841,28529,163392,138926
1630573712851,28520,163425,138937
1630573712861,28524,163390,138918
1630573712871,28524,163424,138938
1630573712881,28519,163373,138912
1630573712891,28518,163398,138943
1630573712901,28519,163402,138926
1630573712911,28519,163430,138926
1630573712921,28515,163391,138921
1630573712931,28516,163403,138938
1630573712941,28525,163409,138921
1630573712951,28513,163407,138934
1630573712961,28522,163414,138925
1630573712971,28525,163393,138927
1630573712981,28522,163407,138914
1630573712991,28523,163400,138926
1630573713001,28531,163398,138928
1630573713011,28513,163389,138916
1630573713021,28536,163386,138936
1630573713031,28521,163394,138925
1630573713041,28522,163406,138922
1630573713051,28530,163412,138929
1630573713061,28532,163404,138921
1630573713071,28529,163383,138917
1630573713081,28530,163424,138927
1630573713091,28531,163394,138915
1630573713101,28528,163411,138915
1630573713111,28532,163431,138910
1630573713121,28534,163413,138913
1630573713131,28527,163439,138904
1630573713141,28534,163406,138919
1630573713151,28532,163426,138895
1630573713161,28539,163416,138911
1630573713171,28548,163431,138900
1630573713181,28546,163424,138903
1630573713191,28540,163436,138905
1630573713201,28537,163445,138911
1630573713211,28538,163429,138894
1630573713221,28549,163418,138893
1630573713231,28548,163418,138894
1630573713241,28545,163448,138884
1630573713251,28543,163460,138891
1630573713261,28553,163445,138883
1630573713271,28546,163454,138888
1630573713281,28551,163446,138888
1630573713291,28552,163455,138892
1630573713301,28556,163476,138900
1630573713311,28571,163495,138879
1630573713321,28560,163488,138893
1630573713331,28555,163458,138880
1630573713341,28562,163493,138883
1630573713351,28552,163477,138875
1630573713361,28560,163473,138892
1630573713371,28563,163494,138883
1630573713381,28568,163508,138873
1630573713391,28567,163491,138885
1630573713401,28572,163504,138859
1630573713411,28574,163507,138875
1630573713421,28572,163496,138873
1630573713431,28570,163506,138871
1630573713441,28575,163537,138869
1630573713451,28575,163516,138869
1630573713461,28582,163539,138875
1630573713471,28583,163527,138858
1630573713481,28595,163517,138889
1630573713491,28584,163532,138854
1630573713501,28590,163548,138883
1630573713511,28597,163572,138857
1630573713521,28590,163543,138863
1630573713531,28587,163570,138868
1630573713541,28587,163539,138867
1630573713551,28582,163537,138858
1630573713561,28576,163532,138870
1630573713571,28581,163515,138846
1630573713581,28574,163502,138877
1630573713591,28567,163505,138854
1630573713601,28568,163478,138870
1630573713611,28558,163499,138857
1630573713621,28559,163465,138847
1630573713631,28543,163463,138842
1630573713641,28555,163468,138864
1630573713651,28552,163464,138864
1630573713661,28535,163449,138843
1630573713671,28541,163444,138863
1630573713681,28538,163439,138860
1630573713691,28534,163413,138851
1630573713701,28527,163418,138850
1630573713711,28529,163391,138865
1630573713721,28521,163383,138856
1630573713731,28523,163398,138854
1630573713741,28518,163389,138844
1630573713751,28511,163349,138874
1630573713761,28511,163362,138872
1630573713771,28511,163362,138870
1630573713781,28510,163352,138861
1630573713791,28507,163357,138880
1630573713801,28498,163339,138855
1630573713811,28494,163339,138863
1630573713821,28499,163371,138861
1630573713831,28512,163336,138854
1630573713841,28501,163350,138865
1630573713851,28496,163321,138857
1630573713861,28494,163331,138863
1630573713871,28494,163315,138859
1630573713881,28495,163303,138856
1630573713891,28488,163338,138856
1630573713901,28493,163322,138867
1630573713911,28491,163335,138866
1630573713921,28493,163301,138872
1630573713931,28489,163304,138863
1630573713941,28491,163328,138874
1630573713951,28501,163313,138868
1630573713961,28494,163323,138857
1630573713971,28489,163316,138854
1630573713981,28500,163323,138862
1630573713991,28486,163298,138871
1630573714001,28491,163308,138878
1630573714011,28490,163335,138855
1630573714021,28487,163311,138853
1630573714031,28488,163297,138861
1630573714041,28490,163324,138867
1630573714051,28493,163330,138872
1630573714061,28496,163304,138852
1630573714071,28495,163340,138874
1630573714081,28495,163306,138848
1630573714091,28498,163327,138867
1630573714101,28490,163323,138875
1630573714111,28493,163339,138890
1630573714121,28503,163342,138873
1630573714131,28491,163330,138865
1630573714141,28486,163357,138871
1630573714151,28494,163337,138871
1630573714161,28496,163333,138860
1630573714171,28499,163358,138866
1630573714181,28499,163353,138856
1630573714191,28501,163353,138867
1630573714201,28501,163366,138884
1630573714211,28501,163349,138863
1630573714221,28507,163356,138871
1630573714231,28511,163362,138863
1630573714241,28504,163368,138861
1630573714251,28512,163369,138874
1630573714261,28509,163387,138889
1630573714271,28507,163384,138867
1630573714281,28517,163358,138850
1630573714291,28507,163378,138850
1630573714301,28517,163407,138859
1630573714311,28528,163380,138859
1630573714321,28527,163387,138865
1630573714331,28514,163413,138853
1630573714341,28522,163417,138865
1630573714351,28518,163431,138872
1630573714361,28518,163426,138849
1630573714371,28520,163416,138858
1630573714381,28523,163403,138855
1630573714391,28532,163441,138857
1630573714401,28530,163423,138861
1630573714411,28532,163411,138878
1630573714421,28530,163439,138864
1630573714431,28532,163450,138846
1630573714441,28536,163445,138863
1630573714451,28536,163465,138856
1630573714461,28540,163462,138846
1630573714471,28549,163459,138859
1630573714481,28527,163437,138860
1630573714491,28536,163464,138850
1630573714501,28543,163478,138854
1630573714511,28548,163455,138863
1630573714521,28549,163494,138838
1630573714531,28549,163464,138872
1630573714541,28548,163466,138872
1630573714551,28552,163509,138857
1630573714561,28550,163509,138860
1630573714571,28547,163481,138863
1630573714581,28540,163476,138865
1630573714591,28536,163468,138863
1630573714601,28533,163454,138872
1630573714611,28535,163441,138860
1630573714621,28527,163432,138877
1630573714631,28523,163424,138870
1630573714641,28512,163421,138843
1630573714651,28520,163416,138867
1630573714661,28504,163403,138868
1630573714671,28501,163354,138878
1630573714681,28507,163351,138848
1630573714691,28501,163383,138846
1630573714701,28491,163361,138876
1630573714711,28493,163343,138864
1630573714721,28493,163358,138860
1630573714731,28482,163330,138861
1630573714741,28481,163325,138869
1630573714751,28479,163279,138882
1630573714761,28467,163284,138862
1630573714771,28458,163279,138880
1630573714781,28464,163250,138877
1630573714791,28464,163249,138877
1630573714801,28466,163246,138888
1630573714811,28448,163251,138884
1630573714821,28459,163261,138872
1630573714831,28456,163238,138867
1630573714841,28456,163251,138880
1630573714851,28455,163245,138873
1630573714861,28457,163218,138890
1630573714871,28451,163255,138884
1630573714881,28450,163226,138889
1630573714891,28448,163236,138890
1630573714901,28445,163224,138886
1630573714911,28447,163218,138885
1630573714921,28443,163229,138891
1630573714931,28445,163218,138903
1630573714941,28451,163207,138894
1630573714951,28443,163246,138899
1630573714961,28430,163209,138902
1630573714971,28441,163222,138901
1630573714981,28435,163211,138900
1630573714991,28440,163204,138903
1630573715001,28438,163219,138897
1630573715011,28441,163218,138883
1630573715021,28442,163211,138884
1630573715031,28434,163208,138894
1630573715041,28445,163220,138896
1630573715051,28448,163214,138918
1630573715061,28448,163222,138901
1630573715071,28442,163215,138892
1630573715081,28438,163225,138899
1630573715091,28456,163223,138914
1630573715101,28452,163202,138901
1630573715111,28455,163224,138908
1630573715121,28447,163221,138898
1630573715131,28443,163207,138884
1630573715141,28445,163229,138899
1630573715151,28447,163214,138897
1630573715161,28448,163231,138899
1630573715171,28448,163240,138902
1630573715181,28448,163211,138906
1630573715191,28452,163218,138905
1630573715201,28451,163241,138906
1630573715211,28453,163244,138892
1630573715221,28450,163241,138906
1630573715231,28457,163245,138910
1630573715241,28453,163234,138880
1630573715251,28449,163258,138883
1630573715261,28461,163228,138923
1630573715271,28456,163252,138910
1630573715281,28448,163256,138902
1630573715291,28460,163251,138902
1630573715301,28467,163246,138896
1630573715311,28468,163274,138889
1630573715321,28466,163268,138895
1630573715331,28470,163267,138905
1630573715341,28464,163296,138896
1630573715351,28473,163274,138904
1630573715361,28472,163277,138874
1630573715371,28470,163289,138899
1630573715381,28473,163283,138905
1630573715391,28479,163327,138905
1630573715401,28477,163309,138908
1630573715411,28482,163294,138886
1630573715421,28481,163312,138899
1630573715431,28482,163305,138892
1630573715441,28485,163305,138894
1630573715451,28483,163290,138880
1630573715461,28470,163312,138889
1630573715471,28486,163321,138871
1630573715481,28490,163325,138905
1630573715491,28489,163346,138881
1630573715501,28491,163356,138896
1630573715511,28490,163340,138894
1630573715521,28497,163351,138878
1630573715531,28501,163334,138887
1630573715541,28502,163351,138885
1630573715551,28501,163364,138889
1630573715561,28504,163373,138884
1630573715571,28509,163357,138889
1630573715581,28514,163375,138879
1630573715591,28515,163360,138897
1630573715601,28516,163382,138906
1630573715611,28500,163387,138901
1630573715621,28501,163358,138873
1630573715631,28500,163356,138892
1630573715641,28491,163325,138882
1630573715651,28483,163319,138892
1630573715661,28485,163308,138895
1630573715671,28479,163321,138900
1630573715681,28476,163296,138880
1630573715691,28470,163290,138887
1630573715701,28469,163282,138870
1630573715711,28467,163276,138896
1630573715721,28460,163260,138899
1630573715731,28456,163240,138894
1630573715741,28462,163249,138892
1630573715751,28461,163254,138886
1630573715761,28458,163238,138900
1630573715771,28461,163228,138889
1630573715781,28430,163199,138895
1630573715791,28442,163200,138880
1630573715801,28438,163207,138898
1630573715811,28432,163188,138878
1630573715821,28432,163195,138919
1630573715831,28429,163194,138899
1630573715841,28431,163187,138910
1630573715851,28431,163155,138909
1630573715861,28429,163169,138885
1630573715871,28426,163181,138914
1630573715881,28429,163181,138927
1630573715891,28424,163186,138910
1630573715901,28433,163161,138905
1630573715911,28431,163165,138914
1630573715921,28433,163162,138908
1630573715931,28417,163188,138911
1630573715941,28428,163158,138932
1630573715951,28423,163175,138923
1630573715961,28423,163156,138907
1630573715971,28423,163171,138926
1630573715981,28423,163159,138906
1630573715991,28418,163172,138911
1630573716001,28426,163159,138927
1630573716011,28425,163152,138937
1630573716021,28425,163161,138924
1630573716031,28421,163175,138928
1630573716041,28428,163162,138934
1630573716051,28429,163143,138932
1630573716061,28423,163182,138930
1630573716071,28432,163159,138926
1630573716081,28436,163194,138928
1630573716091,28433,163168,138933
1630573716101,28434,163158,138932
1630573716111,28425,163165,138937
1630573716121,28430,163155,138928
1630573716131,28429,163178,138932
1630573716141,28429,163167,138941
1630573716151,28432,163200,138941
1630573716161,28430,163192,138940
1630573716171,28434,163211,138950
1630573716181,28440,163214,138927
1630573716191,28444,163208,138931
1630573716201,28440,163224,138949
1630573716211,28441,163174,138947
1630573716221,28449,163192,138962
1630573716231,28450,163217,138947
1630573716241,28450,163234,138945
1630573716251,28445,163214,138928
1630573716261,28449,163201,138943
1630573716271,28444,163218,138934
1630573716281,28460,163220,138935
1630573716291,28449,163204,138960
1630573716301,28455,163239,138946
1630573716311,28449,163224,138928
1630573716321,28450,163248,138946
1630573716331,28457,163245,138932
1630573716341,28452,163238,138934
1630573716351,28457,163267,138934
1630573716361,28471,163281,138938
1630573716371,28460,163275,138946
1630573716381,28463,163268,138950
1630573716391,28464,163257,138943
1630573716401,28466,163279,138942
1630573716411,28470,163270,138920
1630573716421,28466,163250,138969
1630573716431,28469,163283,138939
1630573716441,28476,163303,138932
1630573716451,28473,163300,138921
1630573716461,28478,163299,138946
1630573716471,28480,163305,138937
1630573716481,28477,163307,138949
1630573716491,28481,163319,138950
1630573716501,28489,163320,138951
1630573716511,28490,163324,138932
1630573716521,28496,163329,138946
1630573716531,28492,163333,138942
1630573716541,28491,163351,138942
1630573716551,28502,163358,138940
1630573716561,28502,163340,138939
1630573716571,28503,163355,138929
1630573716581,28502,163335,138934
1630573716591,28496,163363,138927
1630573716601,28491,163336,138925
1630573716611,28483,163325,138926
1630573716621,28480,163333,138937
1630573716631,28480,163284,138943
1630573716641,28472,163286,138935
1630573716651,28486,163291,138946
1630573716661,28464,163271,138954
1630573716671,28461,163253,138941
1630573716681,28460,163244,138931
1630573716691,28462,163235,138936
1630573716701,28456,163243,138955
1630573716711,28444,163243,138950
1630573716721,28447,163224,138942
1630573716731,28450,163230,138951
1630573716741,28445,163220,138946
1630573716751,28446,163216,138956
1630573716761,28445,163209,138947
1630573716771,28439,163200,138975
1630573716781,28437,163205,138968
1630573716791,28436,163182,138981
1630573716801,28434,163170,138969
1630573716811,28432,163166,138952
1630573716821,28428,163157,138958
1630573716831,28431,163158,138977
1630573716841,28428,163163,138960
1630573716851,28430,163166,138969
1630573716861,28431,163161,138961
1630573716871,28414,163161,138982
1630573716881,28431,163139,138984
1630573716891,28434,163163,138967
1630573716901,28424,163180,138975
1630573716911,28426,163157,138967
1630573716921,28422,163154,138987
1630573716931,28421,163148,138976
1630573716941,28426,163160,138997
1630573716951,28424,163153,138989
1630573716961,28427,163165,139000
1630573716971,28426,163150,138984
1630573716981,28434,163168,138996
1630573716991,28425,163131,138990
1630573717001,28424,163162,138997
1630573717011,28429,163147,138990
1630573717021,28426,163164,138982
1630573717031,28430,163151,139013
1630573717041,28433,163171,138992
1630573717051,28437,163175,139001
1630573717061,28424,163187,138992
1630573717071,28425,163160,138976
1630573717081,28435,163165,138975
1630573717091,28427,163168,139000
1630573717101,28431,163173,138977
1630573717111,28436,163172,138995
1630573717121,28444,163181,138988
1630573717131,28439,163187,139001
1630573717141,28440,163175,138991
1630573717151,28441,163185,138988
1630573717161,28443,163186,138997
1630573717171,28444,163187,138997
1630573717181,28443,163223,138999
1630573717191,28440,163199,138979
1630573717201,28445,163182,138979
1630573717211,28447,163197,138984
1630573717221,28456,163225,138985
1630573717231,28445,163218,139005
1630573717241,28453,163216,138998
1630573717251,28459,163206,138987
1630573717261,28453,163226,138981
1630573717271,28457,163242,138999
1630573717281,28462,163201,138978
1630573717291,28458,163241,138985
1630573717301,28465,163242,138996
1630573717311,28465,163261,138997
1630573717321,28466,163248,138994
1630573717331,28469,163262,138989
1630573717341,28468,163253,138982
1630573717351,28467,163271,138995
1630573717361,28470,163290,138969
1630573717371,28472,163281,138983
1630573717381,28481,163249,138990
1630573717391,28479,163274,138987
1630573717401,28479,163285,138970
1630573717411,28479,163291,138979
1630573717421,28481,163297,138991
1630573717431,28489,163297,138999
1630573717441,28490,163312,139007
1630573717451,28498,163321,138998
1630573717461,28494,163316,139000
1630573717471,28500,163315,138984
1630573717481,28499,163322,138984
1630573717491,28503,163307,138976
1630573717501,28501,163348,138986
1630573717511,28502,163347,139003
1630573717521,28497,163333,138973
1630573717531,28512,163327,138991
1630573717541,28515,163372,139012
1630573717551,28516,163380,138996
1630573717561,28499,163371,138999
1630573717571,28508,163360,138996
1630573717581,28506,163346,139014
1630573717591,28505,163346,138995
1630573717601,28498,163314,138991
1630573717611,28496,163334,138997
1630573717621,28498,163337,138990
1630573717631,28491,163317,138998
1630573717641,28494,163301,138975
1630573717651,28491,163299,139002
1630573717661,28486,163275,138980
1630573717671,28482,163280,138986
1630573717681,28473,163285,138986
1630573717691,28493,163256,138999
1630573717701,28472,163266,138996
1630573717711,28472,163259,138974
1630573717721,28466,163250,139006
1630573717731,28465,163231,138994
1630573717741,28467,163225,139014
1630573717751,28454,163222,139012
1630573717761,28455,163220,139002
1630573717771,28447,163199,139022
1630573717781,28452,163205,139030
1630573717791,28446,163210,139001
1630573717801,28449,163227,139014
1630573717811,28449,163209,139027
1630573717821,28448,163200,139018
1630573717831,28448,163186,139018
1630573717841,28450,163206,139038
1630573717851,28441,163184,139008
1630573717861,28438,163207,139026
1630573717871,28460,163209,139048
1630573717881,28447,163196,139041
1630573717891,28440,163174,139033
1630573717901,28444,163152,139026
1630573717911,28445,163161,139026
1630573717921,28443,163190,139019
1630573717931,28440,163183,139027
1630573717941,28440,163195,139037
1630573717951,28438,163177,139051
1630573717961,28440,163189,139024
1630573717971,28443,163182,139047
1630573717981,28444,163206,139027
1630573717991,28437,163195,139041
1630573718001,28434,163184,139025
1630573718011,28449,163180,139048
1630573718021,28443,163173,139037
1630573718031,28441,163225,139029
1630573718041,28438,163212,139051
1630573718051,28438,163199,139046
1630573718061,28443,163201,139058
1630573718071,28448,163203,139032
1630573718081,28450,163222,139044
1630573718091,28449,163188,139034
1630573718101,28455,163196,139037
1630573718111,28457,163217,139018
1630573718121,28449,163226,139068
1630573718131,28455,163225,139037
1630573718141,28455,163229,139042
1630573718151,28453,163211,139042
1630573718161,28456,163233,139029
1630573718171,28451,163253,139044
1630573718181,28455,163223,139040
1630573718191,28468,163232,139037
1630573718201,28460,163220,139032
1630573718211,28470,163241,139040
1630573718221,28468,163254,139049
1630573718231,28470,163259,139045
1630573718241,28473,163254,139040
1630573718251,28469,163262,139054
1630573718261,28475,163265,139037
1630573718271,28476,163265,139030
1630573718281,28475,163273,139027
1630573718291,28479,163253,139030
1630573718301,28479,163268,139045
1630573718311,28487,163288,139037
1630573718321,28479,163264,139027
1630573718331,28477,163301,139053
1630573718341,28486,163305,139044
1630573718351,28494,163294,139041
1630573718361,28494,163320,139025
1630573718371,28485,163343,139034
1630573718381,28490,163326,139040
1630573718391,28491,163327,139035
1630573718401,28495,163313,139041
1630573718411,28497,163318,139042
1630573718421,28504,163368,139039
1630573718431,28498,163341,139033
1630573718441,28504,163325,139028
1630573718451,28506,163336,139047
1630573718461,28507,163376,139041
1630573718471,28508,163353,139032
1630573718481,28512,163375,139031
1630573718491,28506,163374,139036
1630573718501,28513,163369,139038
1630573718511,28513,163392,139042
1630573718521,28525,163386,139035
1630573718531,28524,163376,139017
1630573718541,28518,163416,139020
1630573718551,28521,163390,139058
1630573718561,28525,163419,139022
1630573718571,28525,163434,139037
1630573718581,28530,163419,139050
1630573718591,28526,163440,139039
1630573718601,28529,163401,139027
1630573718611,28525,163410,139039
1630573718621,28517,163410,139041
1630573718631,28515,163391,139032
1630573718641,28511,163366,139049
1630573718651,28509,163383,139043
1630573718661,28508,163357,139018
1630573718671,28505,163343,139044
1630573718681,28511,163336,139030
1630573718691,28498,163329,139052
1630573718701,28499,163328,139041
1630573718711,28498,163308,139049
1630573718721,28483,163336,139036
1630573718731,28483,163314,139042
1630573718741,28479,163306,139037
1630573718751,28479,163323,139054
1630573718761,28483,163298,139051
1630573718771,28478,163271,139063
1630573718781,28468,163288,139064
1630573718791,28467,163266,139058
1630573718801,28461,163265,139053
1630573718811,28460,163254,139051
1630573718821,28450,163270,139056
1630573718831,28452,163237,139043
1630573718841,28449,163200,139045
1630573718851,28456,163212,139050
1630573718861,28458,163237,139068
1630573718871,28458,163233,139056
1630573718881,28459,163217,139040
1630573718891,28453,163245,139066
1630573718901,28451,163237,139075
1630573718911,28452,163199,139058
1630573718921,28453,163238,139061
1630573718931,28457,163258,139069
1630573718941,28451,163240,139075
1630573718951,28450,163256,139064
1630573718961,28450,163197,139047
1630573718971,28450,163225,139063
1630573718981,28445,163229,139073
1630573718991,28449,163213,139064
1630573719001,28445,163219,139073
1630573719011,28456,163212,139048
1630573719021,28451,163233,139037
1630573719031,28440,163239,139055
1630573719041,28448,163220,139061
1630573719051,28439,163237,139070
1630573719061,28454,163218,139078
1630573719071,28449,163234,139058
1630573719081,28450,163208,139076
1630573719091,28453,163251,139071
1630573719101,28450,163256,139055
1630573719111,28455,163250,139072
1630573719121,28452,163256,139065
1630573719131,28453,163264,139039
1630573719141,28453,163274,139057
1630573719151,28456,163243,139056
1630573719161,28459,163234,139058
1630573719171,28463,163247,139062
1630573719181,28464,163263,139068
1630573719191,28451,163255,139061
1630573719201,28460,163250,139050
1630573719211,28463,163259,139069
1630573719221,28458,163271,139052
1630573719231,28458,163294,139048
1630573719241,28465,163290,139053
1630573719251,28468,163269,139060
1630573719261,28465,163285,139049
1630573719271,28470,163287,139040
1630573719281,28467,163279,139049
1630573719291,28470,163269,139051
1630573719301,28476,163288,139051
1630573719311,28473,163301,139054
1630573719321,28479,163306,139070
1630573719331,28481,163319,139033
1630573719341,28482,163301,139033
1630573719351,28481,163319,139065
1630573719361,28477,163313,139048
1630573719371,28485,163341,139056
1630573719381,28487,163330,139070
1630573719391,28482,163341,139053
1630573719401,28490,163337,139066
1630573719411,28490,163338,139046
1630573719421,28500,163356,139037
1630573719431,28499,163334,139058
1630573719441,28494,163336,139042
1630573719451,28499,163358,139039
1630573719461,28495,163364,139063
1630573719471,28504,163384,139043
1630573719481,28505,163408,139052
1630573719491,28508,163378,139037
1630573719501,28500,163399,139035
1630573719511,28510,163366,139050
1630573719521,28506,163396,139050
1630573719531,28510,163399,139049
1630573719541,28518,163413,139047
1630573719551,28514,163408,139057
1630573719561,28518,163452,139024
1630573719571,28520,163420,139049
1630573719581,28516,163404,139050
1630573719591,28516,163425,139038
1630573719601,28515,163399,139040
1630573719611,28506,163397,139043
1630573719621,28500,163392,139046
1630573719631,28487,163363,139035
1630573719641,28488,163375,139045
1630573719651,28497,163360,139044
1630573719661,28484,163382,139039
1630573719671,28487,163333,139048
1630573719681,28481,163337,139067
1630573719691,28478,163344,139044
1630573719701,28471,163344,139042
1630573719711,28473,163324,139054
1630573719721,28466,163294,139052
1630573719731,28465,163311,139058
1630573719741,28463,163335,139049
1630573719751,28460,163305,139052
1630573719761,28454,163315,139064
1630573719771,28451,163275,139052
1630573719781,28451,163299,139053
1630573719791,28443,163291,139076
1630573719801,28437,163269,139069
1630573719811,28437,163268,139060
1630573719821,28457,163273,139049
1630573719831,28446,163247,139053
1630573719841,28441,163256,139060
1630573719851,28440,163251,139061
1630573719861,28443,163264,139059
1630573719871,28437,163263,139074
1630573719881,28441,163238,139057
1630573719891,28431,163247,139057
1630573719901,28430,163245,139068
1630573719911,28432,163264,139065
1630573719921,28434,163263,139049
1630573719931,28426,163252,139053
1630573719941,28428,163246,139073
1630573719951,28432,163259,139052
1630573719961,28435,163250,139042
1630573719971,28421,163225,139067
1630573719981,28436,163255,139080
1630573719991,28437,163261,139077
1630573720001,28433,163286,139070
1630573720011,28431,163255,139083
1630573720021,28429,163259,139080
1630573720031,28436,163276,139070
1630573720041,28431,163244,139087
1630573720051,28433,163243,139073
1630573720061,28431,163251,139067
1630573720071,28431,163274,139075
1630573720081,28433,163251,139077
1630573720091,28433,163270,139061
1630573720101,28437,163274,139069
1630573720111,28434,163271,139072
1630573720121,28441,163251,139065
1630573720131,28442,163293,139067
1630573720141,28440,163268,139070
1630573720151,28438,163307,139057
1630573720161,28429,163281,139075
1630573720171,28440,163285,139086
1630573720181,28439,163267,139081
1630573720191,28442,163269,139082
1630573720201,28444,163274,139069
1630573720211,28438,163301,139058
1630573720221,28448,163308,139083
1630573720231,28445,163320,139071
1630573720241,28450,163312,139070
1630573720251,28447,163309,139080
1630573720261,28454,163286,139071
1630573720271,28450,163314,139076
1630573720281,28463,163313,139083
1630573720291,28458,163329,139061
1630573720301,28462,163319,139070
1630573720311,28460,163333,139056
1630573720321,28456,163338,139055
1630573720331,28455,163354,139074
1630573720341,28459,163349,139062
1630573720351,28459,163341,139063
1630573720361,28461,163355,139065
1630573720371,28465,163354,139073
1630573720381,28466,163333,139050
1630573720391,28464,163365,139071
1630573720401,28464,163377,139061
1630573720411,28468,163358,139067
1630573720421,28467,163361,139060
1630573720431,28476,163395,139069
1630573720441,28465,163387,139057
1630573720451,28478,163385,139082
1630573720461,28482,163398,139047
1630573720471,28483,163400,139061
1630573720481,28494,163397,139069
1630573720491,28485,163412,139068
1630573720501,28483,163411,139069
1630573720511,28484,163408,139058
1630573720521,28482,163420,139074
1630573720531,28484,163416,139081
1630573720541,28482,163412,139080
1630573720551,28478,163421,139064
1630573720561,28475,163391,139048
1630573720571,28476,163369,139078
1630573720581,28465,163369,139064
1630573720591,28463,163344,139052
1630573720601,28456,163323,139068
1630573720611,28455,163359,139062
1630573720621,28461,163342,139070
1630573720631,28446,163347,139074
1630573720641,28437,163332,139055
1630573720651,28444,163303,139061
1630573720661,28430,163326,139067
1630573720671,28435,163313,139059
1630573720681,28432,163311,139060
1630573720691,28432,163269,139071
1630573720701,28423,163285,139054
1630573720711,28423,163278,139064
1630573720721,28416,163257,139064
1630573720731,28414,163237,139062
1630573720741,28409,163275,139076
1630573720751,28407,163235,139079
1630573720761,28402,163237,139083
1630573720771,28399,163217,139070
1630573720781,28409,163250,139091
1630573720791,28395,163231,139078
1630573720801,28403,163212,139074
1630573720811,28401,163220,139069
1630573720821,28403,163216,139075
1630573720831,28402,163216,139086
1630573720841,28403,163208,139080
1630573720851,28401,163208,139082
1630573720861,28400,163229,139074
1630573720871,28398,163223,139076
1630573720881,28397,163211,139096
1630573720891,28400,163214,139074
1630573720901,28394,163224,139096
1630573720911,28402,163217,139086
1630573720921,28395,163208,139086
1630573720931,28396,163198,139084
1630573720941,28390,163206,139078
1630573720951,28400,163206,139093
1630573720961,28390,163205,139078
1630573720971,28396,163208,139083
1630573720981,28397,163216,139095
1630573720991,28399,163208,139107
1630573721001,28405,163232,139091
1630573721011,28396,163228,139084
1630573721021,28398,163216,139079
1630573721031,28406,163213,139089
1630573721041,28404,163220,139083
1630573721051,28400,163210,139094
1630573721061,28405,163233,139091
1630573721071,28407,163226,139084
1630573721081,28404,163228,139084
1630573721091,28417,163228,139081
1630573721101,28407,163226,139070
1630573721111,28409,163233,139098
1630573721121,28413,163221,139087
1630573721131,28413,163233,139074
1630573721141,28410,163231,139083
1630573721151,28412,163251,139086
1630573721161,28414,163252,139086
1630573721171,28415,163249,139082
1630573721181,28414,163249,139082
1630573721191,28423,163277,139092
1630573721201,28419,163250,139077
1630573721211,28425,163260,139076
1630573721221,28425,163255,139082
1630573721231,28422,163262,139081
1630573721241,28426,163270,139088
1630573721251,28436,163275,139090
1630573721261,28414,163300,139076
1630573721271,28435,163288,139076
1630573721281,28434,163291,139091
1630573721291,28428,163293,139068
1630573721301,28433,163282,139082
1630573721311,28437,163316,139064
1630573721321,28436,163306,139072
1630573721331,28437,163290,139080
1630573721341,28439,163301,139075
1630573721351,28445,163308,139079
1630573721361,28449,163338,139084
1630573721371,28448,163332,139089
1630573721381,28454,163333,139088
1630573721391,28452,163349,139078
1630573721401,28454,163339,139083
1630573721411,28448,163326,139087
1630573721421,28458,163360,139078
1630573721431,28463,163366,139078
1630573721441,28447,163359,139081
1630573721451,28456,163370,139071
1630573721461,28451,163389,139067
1630573721471,28465,163392,139052
1630573721481,28462,163377,139093
1630573721491,28473,163378,139089
1630573721501,28473,163392,139071
1630573721511,28471,163393,139074
1630573721521,28466,163388,139077
1630573721531,28464,163412,139070
1630573721541,28464,163367,139081
1630573721551,28463,163345,139059
1630573721561,28451,163330,139065
1630573721571,28453,163315,139095
1630573721581,28455,163359,139070
1630573721591,28451,163336,139087
1630573721601,28438,163325,139079
1630573721611,28439,163315,139098
1630573721621,28430,163315,139073
1630573721631,28431,163302,139089
1630573721641,28428,163303,139084
1630573721651,28424,163277,139074
1630573721661,28423,163263,139073
1630573721671,28416,163275,139084
1630573721681,28418,163252,139083
1630573721691,28419,163268,139078
1630573721701,28412,163224,139091
1630573721711,28415,163237,139084
1630573721721,28404,163224,139088
1630573721731,28400,163202,139102
1630573721741,28407,163229,139074
1630573721751,28399,163231,139111
1630573721761,28404,163217,139089
1630573721771,28400,163207,139093
1630573721781,28402,163214,139077
1630573721791,28394,163207,139099
1630573721801,28397,163222,139089
1630573721811,28394,163211,139089
1630573721821,28395,163186,139082
1630573721831,28388,163218,139100
1630573721841,28391,163219,139096
1630573721851,28400,163201,139102
1630573721861,28392,163197,139090
1630573721871,28393,163194,139112
1630573721881,28397,163185,139088
1630573721891,28395,163185,139103
1630573721901,28389,163206,139084
1630573721911,28393,163196,139092
1630573721921,28400,163225,139121
1630573721931,28387,163188,139097
1630573721941,28396,163174,139104
1630573721951,28393,163206,139115
1630573721961,28393,163183,139084
1630573721971,28393,163215,139119
1630573721981,28395,163209,139103
1630573721991,28402,163197,139102
1630573722001,28399,163193,139112
1630573722011,28399,163194,139097
1630573722021,28406,163196,139117
1630573722031,28408,163220,139107
1630573722041,28409,163216,139091
1630573722051,28405,163207,139100
1630573722061,28395,163218,139123
1630573722071,28404,163235,139115
1630573722081,28400,163235,139102
1630573722091,28417,163225,139111
1630573722101,28414,163234,139104
1630573722111,28411,163240,139093
1630573722121,28417,163232,139103
1630573722131,28418,163228,139088
1630573722141,28422,163247,139100
1630573722151,28416,163248,139116
1630573722161,28417,163235,139097
1630573722171,28424,163259,139105
1630573722181,28424,163259,139102
1630573722191,28429,163269,139097
1630573722201,28421,163260,139103
1630573722211,28433,163290,139109
1630573722221,28430,163290,139105
1630573722231,28434,163263,139113
1630573722241,28439,163264,139116
1630573722251,28438,163278,139111
1630573722261,28432,163292,139116
1630573722271,28429,163279,139104
1630573722281,28444,163304,139103
1630573722291,28443,163318,139102
1630573722301,28443,163309,139113
1630573722311,28445,163332,139087
1630573722321,28446,163323,139090
1630573722331,28451,163327,139103
1630573722341,28454,163333,139110
1630573722351,28456,163347,139095
1630573722361,28459,163328,139101
1630573722371,28460,163344,139091
1630573722381,28463,163345,139100
1630573722391,28475,163332,139077
1630573722401,28472,163351,139115
1630573722411,28467,163372,139095
1630573722421,28475,163382,139099
1630573722431,28462,163390,139083
1630573722441,28473,163402,139102
1630573722451,28475,163374,139090
1630573722461,28482,163389,139109
1630573722471,28484,163405,139101
1630573722481,28481,163384,139107
1630573722491,28490,163391,139101
1630573722501,28488,163417,139103
1630573722511,28486,163391,139096
1630573722521,28487,163386,139097
1630573722531,28488,163407,139106
1630573722541,28482,163401,139094
1630573722551,28470,163380,139083
1630573722561,28486,163353,139109
1630573722571,28462,163395,139116
1630573722581,28471,163369,139101
1630573722591,28474,163355,139111
1630573722601,28459,163333,139085
1630573722611,28462,163333,139111
1630573722621,28450,163338,139101
1630573722631,28451,163353,139090
1630573722641,28442,163309,139103
1630573722651,28451,163309,139123
1630573722661,28444,163292,139098
1630573722671,28444,163272,139110
1630573722681,28443,163303,139114
1630573722691,28442,163297,139115
1630573722701,28434,163276,139123
1630573722711,28430,163265,139100
1630573722721,28436,163269,139108
1630573722731,28430,163258,139129
1630573722741,28433,163256,139117
1630573722751,28427,163200,139118
1630573722761,28420,163238,139117
1630573722771,28427,163252,139126
1630573722781,28424,163240,139131
1630573722791,28423,163234,139131
1630573722801,28424,163267,139136
1630573722811,28417,163236,139122
1630573722821,28429,163249,139122
1630573722831,28426,163254,139136
1630573722841,28418,163240,139142
1630573722851,28425,163231,139139
1630573722861,28426,163227,139129
1630573722871,28423,163249,139138
1630573722881,28437,163223,139119
1630573722891,28426,163228,139126
1630573722901,28422,163223,139139
1630573722911,28430,163238,139140
1630573722921,28422,163262,139134
1630573722931,28431,163244,139149
1630573722941,28433,163229,139145
1630573722951,28430,163225,139134
1630573722961,28426,163233,139139
1630573722971,28429,163232,139137
1630573722981,28437,163227,139135
1630573722991,28435,163250,139143
1630573723001,28436,163254,139129
1630573723011,28437,163234,139147
1630573723021,28444,163227,139141
1630573723031,28447,163232,139129
1630573723041,28437,163274,139143
1630573723051,28441,163257,139144
1630573723061,28437,163229,139148
1630573723071,28449,163286,139139
1630573723081,28445,163265,139124
1630573723091,28443,163270,139151
1630573723101,28447,163272,139145
1630573723111,28448,163269,139136
1630573723121,28452,163254,139135
1630573723131,28457,163276,139140
1630573723141,28456,163272,139128
1630573723151,28453,163277,139108
1630573723161,28456,163282,139127
1630573723171,28461,163287,139133
1630573723181,28461,163303,139140
1630573723191,28460,163275,139137
1630573723201,28453,163291,139137
1630573723211,28463,163321,139104
1630573723221,28456,163301,139125
1630573723231,28461,163320,139136
1630573723241,28477,163303,139129
1630573723251,28470,163306,139135
1630573723261,28471,163312,139117
1630573723271,28478,163316,139127
1630573723281,28478,163315,139130
1630573723291,28479,163343,139131
1630573723301,28482,163354,139130
1630573723311,28483,163344,139113
1630573723321,28483,163342,139129
1630573723331,28487,163325,139125
1630573723341,28482,163355,139122
1630573723351,28489,163360,139118
1630573723361,28493,163362,139129
1630573723371,28484,163352,139113
1630573723381,28505,163386,139120
1630573723391,28497,163353,139114
1630573723401,28502,163369,139132
1630573723411,28500,163383,139109
1630573723421,28502,163367,139118
1630573723431,28502,163391,139101
1630573723441,28505,163378,139108
1630573723451,28510,163408,139110
1630573723461,28513,163409,139123
1630573723471,28514,163389,139132
1630573723481,28521,163407,139116
1630573723491,28514,163438,139119
1630573723501,28520,163434,139115
1630573723511,28524,163444,139114
1630573723521,28528,163460,139125
1630573723531,28517,163452,139126
1630573723541,28506,163436,139116
1630573723551,28519,163426,139122
1630573723561,28524,163375,139113
1630573723571,28517,163409,139120
1630573723581,28507,163415,139113
1630573723591,28508,163411,139111
1630573723601,28512,163376,139109
1630573723611,28510,163392,139115
1630573723621,28503,163369,139130
1630573723631,28499,163370,139117
1630573723641,28496,163388,139105
1630573723651,28493,163370,139115
1630573723661,28489,163349,139112
1630573723671,28490,163361,139127
1630573723681,28482,163343,139131
1630573723691,28489,163327,139119
1630573723701,28485,163333,139127
1630573723711,28483,163350,139122
1630573723721,28478,163317,139112
1630573723731,28475,163325,139131
1630573723741,28468,163292,139125
1630573723751,28472,163289,139130
1630573723761,28463,163288,139133
1630573723771,28464,163288,139143
1630573723781,28468,163289,139133
1630573723791,28465,163289,139135
1630573723801,28463,163294,139141
1630573723811,28470,163306,139130
1630573723821,28463,163280,139135
1630573723831,28458,163313,139140
1630573723841,28467,163275,139122
1630573723851,28459,163294,139147
1630573723861,28469,163314,139151
1630573723871,28479,163311,139147
1630573723881,28468,163309,139139
1630573723891,28469,163285,139152
1630573723901,28457,163297,139147
1630573723911,28469,163288,139143
1630573723921,28460,163290,139153
1630573723931,28461,163275,139152
1630573723941,28459,163290,139141
1630573723951,28465,163294,139145
1630573723961,28462,163288,139140
1630573723971,28462,163257,139140
1630573723981,28466,163281,139140
1630573723991,28463,163276,139145
1630573724001,28464,163290,139134
1630573724011,28462,163278,139132
1630573724021,28472,163299,139138
1630573724031,28475,163291,139143
1630573724041,28469,163320,139140
1630573724051,28468,163309,139128
1630573724061,28469,163304,139144
1630573724071,28470,163310,139136
1630573724081,28473,163317,139152
1630573724091,28471,163296,139139
1630573724101,28471,163325,139153
1630573724111,28479,163332,139115
1630573724121,28478,163315,139127
1630573724131,28480,163333,139151
1630573724141,28482,163373,139139
1630573724151,28484,163330,139123
1630573724161,28481,163350,139139
1630573724171,28490,163335,139131
1630573724181,28494,163350,139140
1630573724191,28483,163343,139122
1630573724201,28497,163347,139141
1630573724211,28495,163355,139115
1630573724221,28485,163358,139131
1630573724231,28489,163339,139119
1630573724241,28493,163376,139131
1630573724251,28484,163369,139143
1630573724261,28496,163370,139136
1630573724271,28504,163378,139132
1630573724281,28500,163384,139129
1630573724291,28505,163373,139120
1630573724301,28503,163385,139121
1630573724311,28502,163398,139123
1630573724321,28504,163382,139128
1630573724331,28498,163401,139102
1630573724341,28506,163413,139132
1630573724351,28513,163408,139125
1630573724361,28521,163408,139126
1630573724371,28517,163403,139141
1630573724381,28509,163407,139124
1630573724391,28512,163417,139138
1630573724401,28517,163404,139122
1630573724411,28520,163422,139124
1630573724421,28521,163428,139138
1630573724431,28528,163468,139120
1630573724441,28521,163430,139124
1630573724451,28525,163454,139120
1630573724461,28531,163460,139121
1630573724471,28530,163450,139133
1630573724481,28535,163459,139122
1630573724491,28524,163460,139141
1630573724501,28542,163448,139123
1630573724511,28535,163468,139142
1630573724521,28539,163467,139117
1630573724531,28531,163470,139126
1630573724541,28527,163462,139113
1630573724551,28519,163474,139119
1630573724561,28518,163431,139126
1630573724571,28518,163416,139106
1630573724581,28515,163415,139126
1630573724591,28508,163406,139122
1630573724601,28505,163371,139118
1630573724611,28505,163392,139135
1630573724621,28501,163376,139120
1630573724631,28502,163381,139116
1630573724641,28497,163375,139107
1630573724651,28492,163353,139130
1630573724661,28494,163370,139133
1630573724671,28483,163375,139112
1630573724681,28483,163345,139122
1630573724691,28478,163339,139118
1630573724701,28464,163301,139124
1630573724711,28463,163312,139145
1630573724721,28464,163303,139126
1630573724731,28465,163311,139132
1630573724741,28465,163295,139129
1630573724751,28459,163321,139123
1630573724761,28467,163292,139120
1630573724771,28453,163306,139114
1630573724781,28456,163285,139131
1630573724791,28457,163285,139143
1630573724801,28454,163276,139125
1630573724811,28445,163284,139129
1630573724821,28447,163276,139132
1630573724831,28452,163273,139117
1630573724841,28447,163263,139144
1630573724851,28450,163265,139117
1630573724861,28441,163253,139118
1630573724871,28445,163283,139142
1630573724881,28442,163246,139136
1630573724891,28445,163274,139117
1630573724901,28443,163259,139135
1630573724911,28441,163254,139132
1630573724921,28448,163279,139141
1630573724931,28446,163286,139141
1630573724941,28444,163282,139138
1630573724951,28448,163234,139137
1630573724961,28444,163272,139132
1630573724971,28441,163263,139139
1630573724981,28443,163275,139133
1630573724991,28452,163247,139141
1630573725001,28453,163267,139124
1630573725011,28443,163288,139129
1630573725021,28447,163268,139130
1630573725031,28445,163284,139150
1630573725041,28449,163279,139138
1630573725051,28445,163260,139148
1630573725061,28454,163290,139148
1630573725071,28449,163280,139140
1630573725081,28451,163279,139130
1630573725091,28449,163266,139135
1630573725101,28455,163299,139126
1630573725111,28458,163290,139142
1630573725121,28453,163289,139123
1630573725131,28451,163307,139130
1630573725141,28456,163289,139112
1630573725151,28461,163280,139115
1630573725161,28446,163286,139114
1630573725171,28456,163280,139109
1630573725181,28469,163286,139121
1630573725191,28450,163287,139134
1630573725201,28460,163313,139130
1630573725211,28461,163306,139116
1630573725221,28461,163318,139113
1630573725231,28463,163313,139121
1630573725241,28460,163325,139129
1630573725251,28470,163312,139103
1630573725261,28468,163334,139112
1630573725271,28472,163351,139113
1630573725281,28471,163317,139107
1630573725291,28469,163350,139107
1630573725301,28481,163337,139113
1630573725311,28479,163334,139121
1630573725321,28477,163340,139110
1630573725331,28484,163332,139099
1630573725341,28489,163336,139111
1630573725351,28475,163361,139103
1630573725361,28483,163365,139090
1630573725371,28476,163340,139102
1630573725381,28481,163373,139092
1630573725391,28487,163396,139079
1630573725401,28487,163407,139098
1630573725411,28487,163367,139101
1630573725421,28491,163410,139107
1630573725431,28496,163405,139087
1630573725441,28493,163369,139100
1630573725451,28497,163393,139108
1630573725461,28497,163390,139104
1630573725471,28508,163371,139120
1630573725481,28509,163418,139091
1630573725491,28507,163423,139089
1630573725501,28503,163450,139083
1630573725511,28514,163421,139092
1630573725521,28509,163411,139098
1630573725531,28506,163435,139105
1630573725541,28501,163412,139104
1630573725551,28498,163426,139089
1630573725561,28496,163417,139094
1630573725571,28488,163389,139095
1630573725581,28492,163391,139089
1630573725591,28483,163369,139085
1630573725601,28476,163364,139098
1630573725611,28473,163353,139117
1630573725621,28469,163345,139096
1630573725631,28474,163331,139097
1630573725641,28458,163344,139094
1630573725651,28461,163289,139106
1630573725661,28444,163302,139103
1630573725671,28457,163324,139081
1630573725681,28450,163300,139091
1630573725691,28444,163301,139097
1630573725701,28438,163274,139097
1630573725711,28433,163290,139114
1630573725721,28429,163255,139105
1630573725731,28431,163259,139101
1630573725741,28420,163247,139104
1630573725751,28417,163238,139107
1630573725761,28417,163246,139091
1630573725771,28418,163236,139093
1630573725781,28411,163258,139124
1630573725791,28411,163218,139107
1630573725801,28405,163226,139101
1630573725811,28410,163204,139077
1630573725821,28403,163230,139087
1630573725831,28413,163221,139102
1630573725841,28408,163224,139098
1630573725851,28414,163197,139114
1630573725861,28395,163208,139118
1630573725871,28402,163218,139097
1630573725881,28401,163214,139121
1630573725891,28401,163192,139111
1630573725901,28398,163214,139111
1630573725911,28392,163197,139127
1630573725921,28404,163221,139116
1630573725931,28395,163202,139102
1630573725941,28402,163208,139108
1630573725951,28394,163209,139096
1630573725961,28390,163187,139132
1630573725971,28397,163183,139120
1630573725981,28378,163203,139111
1630573725991,28404,163208,139104
1630573726001,28401,163189,139101
1630573726011,28390,163203,139109
1630573726021,28398,163216,139112
1630573726031,28392,163217,139108
1630573726041,28394,163198,139100
1630573726051,28401,163191,139117
1630573726061,28398,163201,139118
1630573726071,28398,163228,139108
1630573726081,28402,163234,139109
1630573726091,28395,163223,139103
1630573726101,28400,163206,139114
1630573726111,28398,163226,139114
1630573726121,28406,163234,139091
1630573726131,28396,163228,139103
1630573726141,28405,163205,139102
1630573726151,28410,163221,139089
1630573726161,28415,163244,139111
1630573726171,28407,163220,139116
1630573726181,28405,163258,139107
1630573726191,28410,163242,139134
1630573726201,28402,163240,139109
1630573726211,28415,163253,139112
1630573726221,28403,163263,139115
1630573726231,28406,163250,139103
1630573726241,28416,163247,139112
1630573726251,28409,163268,139114
1630573726261,28415,163296,139102
1630573726271,28409,163275,139100
1630573726281,28418,163241,139086
1630573726291,28424,163270,139112
1630573726301,28424,163279,139116
1630573726311,28418,163275,139100
1630573726321,28428,163288,139104
1630573726331,28421,163262,139116
1630573726341,28425,163313,139099
1630573726351,28428,163307,139093
1630573726361,28421,163306,139112
1630573726371,28427,163329,139101
1630573726381,28427,163322,139106
1630573726391,28432,163314,139094
1630573726401,28432,163299,139105
1630573726411,28431,163341,139093
1630573726421,28436,163333,139100
1630573726431,28438,163337,139098
1630573726441,28445,163348,139105
1630573726451,28443,163335,139108
1630573726461,28449,163330,139089
1630573726471,28435,163348,139080
1630573726481,28445,163362,139091
1630573726491,28455,163363,139094
1630573726501,28452,163383,139096
1630573726511,28452,163376,139103
1630573726521,28452,163377,139103
1630573726531,28457,163379,139106
1630573726541,28456,163373,139090
1630573726551,28461,163403,139101
1630573726561,28461,163390,139094
1630573726571,28455,163398,139099
1630573726581,28454,163381,139113
1630573726591,28450,163379,139079
1630573726601,28441,163347,139109
1630573726611,28435,163341,139103
1630573726621,28424,163344,139069
1630573726631,28440,163322,139081
1630573726641,28437,163325,139087
1630573726651,28416,163312,139086
1630573726661,28414,163303,139112
1630573726671,28418,163288,139089
1630573726681,28414,163280,139096
1630573726691,28404,163283,139096
1630573726701,28401,163295,139102
1630573726711,28398,163274,139092
1630573726721,28397,163278,139092
1630573726731,28396,163274,139099
1630573726741,28391,163250,139102
1630573726751,28392,163249,139101
1630573726761,28384,163222,139097
1630573726771,28365,163205,139092
1630573726781,28382,163245,139122
1630573726791,28376,163202,139100
1630573726801,28366,163222,139117
1630573726811,28379,163206,139101
1630573726821,28372,163200,139106
1630573726831,28370,163192,139118
1630573726841,28370,163195,139110
1630573726851,28367,163174,139125
1630573726861,28365,163220,139114
1630573726871,28366,163188,139124
1630573726881,28366,163182,139131
1630573726891,28374,163193,139125
1630573726901,28363,163190,139129
1630573726911,28360,163165,139120
1630573726921,28362,163172,139124
1630573726931,28358,163180,139137
1630573726941,28354,163165,139127
1630573726951,28370,163168,139124
1630573726961,28356,163179,139116
1630573726971,28358,163196,139127
1630573726981,28357,163179,139129
1630573726991,28357,163194,139117
1630573727001,28358,163169,139120
1630573727011,28358,163168,139129
1630573727021,28357,163181,139123
1630573727031,28366,163179,139136
1630573727041,28359,163200,139141
1630573727051,28357,163146,139122
1630573727061,28364,163192,139129
1630573727071,28369,163195,139129
1630573727081,28365,163193,139119
1630573727091,28373,163199,139140
1630573727101,28354,163167,139136
1630573727111,28373,163197,139128
1630573727121,28364,163177,139129
1630573727131,28365,163216,139135
1630573727141,28374,163214,139119
1630573727151,28373,163208,139134
1630573727161,28371,163182,139136
1630573727171,28375,163213,139118
1630573727181,28373,163201,139125
1630573727191,28384,163208,139105
1630573727201,28380,163225,139135
1630573727211,28388,163208,139128
1630573727221,28382,163223,139112
1630573727231,28383,163218,139120
1630573727241,28385,163238,139116
1630573727251,28385,163221,139121
1630573727261,28389,163241,139129
1630573727271,28397,163214,139113
1630573727281,28384,163218,139123
1630573727291,28394,163252,139133
1630573727301,28404,163255,139125
1630573727311,28394,163259,139112
1630573727321,28396,163252,139128
1630573727331,28398,163249,139100
1630573727341,28398,163289,139116
1630573727351,28399,163237,139123
1630573727361,28407,163253,139108
1630573727371,28405,163264,139108
1630573727381,28405,163271,139120
1630573727391,28413,163267,139097
1630573727401,28409,163289,139127
1630573727411,28414,163287,139109
1630573727421,28420,163286,139110
1630573727431,28421,163306,139099
1630573727441,28421,163301,139116
1630573727451,28427,163308,139107
1630573727461,28424,163319,139101
1630573727471,28421,163314,139101
1630573727481,28422,163312,139112
1630573727491,28428,163332,139134
1630573727501,28430,163351,139104
1630573727511,28438,163321,139087
1630573727521,28431,163344,139093
1630573727531,28440,163348,139118
1630573727541,28442,163363,139121
1630573727551,28448,163376,139104
1630573727561,28445,163373,139105
1630573727571,28441,163394,139110
1630573727581,28461,163373,139079
1630573727591,28454,163401,139088
1630573727601,28455,163381,139105
1630573727611,28450,163360,139108
1630573727621,28445,163351,139091
1630573727631,28432,163355,139082
1630573727641,28439,163353,139087
1630573727651,28431,163341,139100
1630573727661,28433,163331,139093
1630573727671,28420,163302,139100
1630573727681,28413,163330,139099
1630573727691,28419,163332,139085
1630573727701,28419,163296,139094
1630573727711,28416,163295,139102
1630573727721,28409,163307,139112
1630573727731,28410,163287,139085
1630573727741,28417,163280,139100
1630573727751,28403,163282,139092
1630573727761,28402,163253,139106
1630573727771,28403,163282,139107
1630573727781,28407,163278,139084
1630573727791,28398,163243,139092
1630573727801,28396,163259,139111
1630573727811,28384,163243,139088
1630573727821,28387,163238,139095
1630573727831,28391,163228,139098
1630573727841,28384,163223,139104
1630573727851,28382,163210,139104
1630573727861,28387,163228,139117
1630573727871,28390,163234,139104
1630573727881,28390,163241,139102
1630573727891,28386,163230,139097
1630573727901,28386,163207,139112
1630573727911,28386,163233,139115
1630573727921,28371,163221,139101
1630573727931,28377,163226,139109
1630573727941,28376,163231,139096
1630573727951,28384,163221,139125
1630573727961,28389,163233,139107
1630573727971,28385,163223,139112
1630573727981,28386,163193,139112
1630573727991,28386,163221,139110
1630573728001,28387,163239,139107
1630573728011,28384,163210,139107
1630573728021,28397,163241,139098
1630573728031,28393,163226,139117
1630573728041,28391,163235,139129
1630573728051,28394,163231,139110
1630573728061,28390,163225,139097
1630573728071,28391,163232,139082
1630573728081,28400,163253,139106
1630573728091,28389,163212,139112
1630573728101,28396,163227,139108
1630573728111,28392,163231,139114
1630573728121,28404,163263,139100
1630573728131,28403,163239,139112
1630573728141,28402,163257,139106
1630573728151,28408,163241,139107
1630573728161,28408,163253,139110
1630573728171,28405,163256,139099
1630573728181,28408,163263,139099
1630573728191,28410,163268,139100
1630573728201,28411,163263,139095
1630573728211,28411,163279,139103
1630573728221,28411,163280,139106
1630573728231,28409,163273,139110
1630573728241,28418,163292,139123
1630573728251,28412,163296,139097
1630573728261,28420,163289,139103
1630573728271,28419,163283,139109
1630573728281,28425,163320,139100
1630573728291,28422,163302,139099
1630573728301,28424,163317,139096
1630573728311,28426,163305,139087
1630573728321,28429,163324,139087
1630573728331,28428,163318,139096
1630573728341,28430,163311,139091
1630573728351,28437,163324,139090
1630573728361,28439,163311,139097
1630573728371,28438,163324,139089
1630573728381,28437,163326,139090
1630573728391,28436,163361,139101
1630573728401,28427,163361,139085
1630573728411,28452,163372,139094
1630573728421,28452,163362,139086
1630573728431,28452,163342,139078
1630573728441,28451,163341,139096
1630573728451,28448,163383,139068
1630573728461,28450,163395,139100
1630573728471,28458,163385,139080
1630573728481,28461,163358,139082
1630573728491,28457,163373,139085
1630573728501,28457,163374,139062
1630573728511,28462,163392,139073
1630573728521,28468,163381,139080
1630573728531,28471,163412,139075
1630573728541,28474,163397,139075
1630573728551,28485,163418,139078
1630573728561,28474,163409,139090
1630573728571,28487,163438,139078
1630573728581,28482,163451,139094
1630573728591,28480,163436,139079
1630573728601,28483,163425,139088
1630573728611,28476,163422,139075
1630573728621,28473,163395,139077
1630573728631,28468,163408,139086
1630573728641,28466,163398,139078
1630573728651,28457,163384,139062
1630573728661,28462,163369,139080
1630573728671,28454,163350,139067
1630573728681,28451,163363,139089
1630573728691,28454,163349,139058
1630573728701,28442,163353,139082
1630573728711,28453,163324,139075
1630573728721,28445,163341,139087
1630573728731,28448,163333,139044
1630573728741,28442,163324,139069
1630573728751,28428,163338,139080
1630573728761,28431,163306,139080
1630573728771,28433,163302,139080
1630573728781,28433,163304,139086
1630573728791,28427,163315,139071
1630573728801,28427,163304,139088
1630573728811,28429,163286,139066
1630573728821,28428,163298,139074
1630573728831,28427,163276,139090
1630573728841,28421,163269,139085
1630573728851,28421,163282,139079
1630573728861,28429,163283,139084
1630573728871,28418,163267,139085
1630573728881,28438,163268,139103
1630573728891,28428,163262,139086
1630573728901,28433,163251,139064
1630573728911,28422,163250,139111
1630573728921,28428,163278,139070
1630573728931,28427,163272,139076
1630573728941,28424,163266,139070
1630573728951,28425,163252,139084
1630573728961,28424,163256,139078
1630573728971,28426,163283,139075
1630573728981,28428,163259,139077
1630573728991,28424,163285,139084
1630573729001,28429,163247,139080
1630573729011,28430,163264,139091
1630573729021,28430,163269,139070
1630573729031,28427,163240,139083
1630573729041,28425,163270,139076
1630573729051,28424,163275,139078
1630573729061,28435,163282,139075
1630573729071,28442,163274,139077
1630573729081,28427,163270,139076
1630573729091,28432,163278,139075
1630573729101,28440,163273,139074
1630573729111,28445,163295,139085
1630573729121,28442,163292,139082
1630573729131,28446,163285,139076
1630573729141,28439,163304,139076
1630573729151,28452,163296,139070
1630573729161,28444,163322,139064
1630573729171,28449,163314,139067
1630573729181,28455,163282,139061
1630573729191,28448,163315,139057
1630573729201,28464,163302,139061
1630573729211,28453,163309,139060
1630573729221,28461,163313,139058
1630573729231,28451,163328,139066
1630573729241,28474,163354,139045
1630573729251,28460,163333,139057
1630573729261,28465,163341,139051
1630573729271,28462,163327,139072
1630573729281,28464,163342,139074
1630573729291,28471,163346,139057
1630573729301,28466,163365,139049
1630573729311,28473,163348,139064
1630573729321,28475,163382,139042
1630573729331,28474,163364,139061
1630573729341,28479,163366,139063
1630573729351,28475,163349,139053
1630573729361,28484,163384,139033
1630573729371,28488,163375,139052
1630573729381,28500,163390,139071
1630573729391,28485,163389,139063
1630573729401,28488,163383,139051
1630573729411,28485,163389,139037
1630573729421,28491,163401,139044
1630573729431,28499,163414,139055
1630573729441,28491,163427,139053
1630573729451,28495,163395,139048
1630573729461,28502,163408,139044
1630573729471,28503,163422,139051
1630573729481,28507,163422,139042
1630573729491,28506,163448,139050
1630573729501,28510,163428,139048
1630573729511,28510,163435,139052
1630573729521,28523,163455,139045
1630573729531,28514,163442,139044
1630573729541,28517,163464,139031
1630573729551,28517,163469,139032
1630573729561,28525,163474,139053
1630573729571,28526,163474,139047
1630573729581,28526,163480,139024
1630573729591,28522,163475,139050
1630573729601,28529,163481,139048
1630573729611,28529,163492,139053
1630573729621,28529,163450,139042
1630573729631,28522,163466,139045
1630573729641,28514,163448,139038
1630573729651,28515,163445,139035
1630573729661,28513,163427,139039
1630573729671,28514,163425,139025
1630573729681,28509,163422,139062
1630573729691,28506,163420,139026
1630573729701,28498,163415,139029
1630573729711,28507,163392,139023
1630573729721,28497,163408,139037
1630573729731,28498,163390,139039
1630573729741,28491,163388,139037
1630573729751,28493,163388,139041
1630573729761,28487,163364,139021
1630573729771,28491,163356,139045
1630573729781,28489,163364,139046
1630573729791,28481,163329,139037
1630573729801,28478,163351,139057
1630573729811,28479,163340,139054
1630573729821,28475,163351,139026
1630573729831,28470,163333,139039
1630573729841,28470,163323,139038
1630573729851,28471,163314,139054
1630573729861,28472,163317,139039
1630573729871,28477,163304,139047
1630573729881,28479,163305,139040
1630573729891,28468,163318,139051
1630573729901,28461,163318,139034
1630573729911,28470,163324,139041
1630573729921,28469,163320,139056
1630573729931,28463,163316,139042
1630573729941,28472,163304,139026
1630573729951,28476,163313,139041
1630573729961,28467,163311,139059
1630573729971,28469,163292,139036
1630573729981,28471,163292,139036
1630573729991,28467,163300,139033
1630573730001,28467,163314,139052
1630573730011,28462,163312,139052
1630573730021,28471,163316,139015
1630573730031,28466,163311,139042
1630573730041,28473,163300,139057
1630573730051,28482,163319,139041
1630573730061,28468,163305,139036
1630573730071,28468,163303,139041
1630573730081,28472,163308,139035
1630573730091,28473,163313,139046
1630573730101,28471,163286,139045
1630573730111,28473,163307,139044
1630573730121,28475,163294,139038
1630573730131,28477,163325,139042
1630573730141,28476,163316,139045
1630573730151,28478,163317,139054
1630573730161,28477,163320,139041
1630573730171,28473,163317,139049
1630573730181,28480,163341,139043
1630573730191,28476,163345,139049
1630573730201,28487,163336,139063
1630573730211,28479,163316,139029
1630573730221,28483,163331,139048
1630573730231,28489,163361,139046
1630573730241,28488,163364,139024
1630573730251,28493,163330,139046
1630573730261,28494,163361,139027
1630573730271,28495,163355,139031
1630573730281,28499,163347,139035
1630573730291,28495,163354,139026
1630573730301,28498,163361,139025
1630573730311,28497,163372,139024
1630573730321,28495,163383,139032
1630573730331,28511,163378,139029
1630573730341,28502,163381,139029
1630573730351,28502,163359,139021
1630573730361,28501,163355,139055
1630573730371,28496,163391,139021
1630573730381,28510,163384,139020
1630573730391,28507,163394,139030
1630573730401,28509,163381,139024
1630573730411,28514,163414,139008
1630573730421,28513,163414,139019
1630573730431,28522,163407,139015
1630573730441,28514,163439,139010
1630573730451,28515,163432,139026
1630573730461,28525,163428,139024
1630573730471,28524,163437,139033
1630573730481,28527,163450,139031
1630573730491,28528,163437,139058
1630573730501,28527,163433,139014
1630573730511,28533,163423,139027
1630573730521,28539,163458,139013
1630573730531,28548,163470,139021
1630573730541,28527,163453,139034
1630573730551,28537,163498,139013
1630573730561,28536,163483,139022
1630573730571,28543,163471,139039
1630573730581,28540,163505,139015
1630573730591,28548,163490,139006
1630573730601,28546,163499,139028
1630573730611,28552,163495,139012
1630573730621,28553,163502,139030
1630573730631,28553,163502,139025
1630573730641,28557,163504,139020
1630573730651,28547,163477,139001
1630573730661,28557,163511,139024
1630573730671,28538,163479,139027
1630573730681,28554,163481,139033
1630573730691,28547,163460,139027
1630573730701,28538,163441,139034
1630573730711,28525,163444,139010
1630573730721,28527,163459,139018
1630573730731,28520,163426,139014
1630573730741,28519,163445,139018
1630573730751,28523,163411,138996
1630573730761,28514,163422,139014
1630573730771,28514,163426,139007
1630573730781,28509,163400,139016
1630573730791,28507,163403,139024
1630573730801,28505,163391,139028
1630573730811,28503,163364,139033
1630573730821,28494,163358,139043
1630573730831,28493,163339,138999
1630573730841,28495,163350,139025
1630573730851,28482,163340,139024
1630573730861,28485,163359,139022
1630573730871,28490,163331,139035
1630573730881,28477,163314,139008
1630573730891,28479,163315,139016
1630573730901,28474,163319,139025
1630573730911,28483,163334,139038
1630573730921,28468,163327,139032
1630573730931,28474,163322,139032
1630573730941,28479,163320,139020
1630573730951,28472,163316,139025
1630573730961,28473,163287,139034
1630573730971,28464,163293,139039
1630573730981,28468,163304,139020
1630573730991,28465,163298,139030
1630573731001,28472,163282,139030
1630573731011,28485,163296,139045
1630573731021,28471,163323,139025
1630573731031,28459,163306,139045
1630573731041,28465,163292,139036
1630573731051,28466,163326,139028
1630573731061,28465,163283,139025
1630573731071,28462,163297,139013
1630573731081,28464,163302,139019
1630573731091,28465,163287,139029
1630573731101,28462,163313,139025
1630573731111,28459,163279,139029
1630573731121,28465,163297,139030
1630573731131,28463,163294,139031
1630573731141,28452,163303,139049
1630573731151,28466,163301,139025
1630573731161,28454,163319,139020
1630573731171,28461,163295,139034
1630573731181,28465,163276,139026
1630573731191,28465,163285,139037
1630573731201,28460,163336,139034
1630573731211,28463,163290,139035
1630573731221,28464,163296,139029
1630573731231,28468,163326,139022
1630573731241,28471,163308,139028
1630573731251,28463,163321,139023
1630573731261,28472,163304,139025
1630573731271,28463,163324,139032
1630573731281,28474,163313,139027
1630573731291,28473,163332,139035
1630573731301,28467,163336,139011
1630573731311,28463,163352,139038
1630573731321,28478,163337,139039
1630573731331,28476,163341,139024
1630573731341,28473,163343,139029
1630573731351,28471,163340,139021
1630573731361,28479,163350,139033
1630573731371,28480,163357,139017
1630573731381,28479,163373,139014
1630573731391,28479,163366,139030
1630573731401,28487,163357,139011
1630573731411,28490,163353,139018
1630573731421,28479,163373,139020
1630573731431,28485,163398,139011
1630573731441,28480,163378,139007
1630573731451,28488,163363,139029
1630573731461,28484,163400,139011
1630573731471,28495,163376,139010
1630573731481,28491,163364,139009
1630573731491,28487,163371,139008
1630573731501,28496,163416,139024
1630573731511,28487,163397,138993
1630573731521,28500,163435,139015
1630573731531,28499,163409,139021
1630573731541,28498,163430,139017
1630573731551,28500,163412,139021
1630573731561,28501,163434,139013
1630573731571,28505,163443,139015
1630573731581,28506,163417,139006
1630573731591,28506,163450,138997
1630573731601,28508,163452,139018
1630573731611,28504,163417,139002
1630573731621,28514,163458,139011
1630573731631,28513,163470,138998
1630573731641,28513,163472,138993
1630573731651,28518,163461,139013
1630573731661,28515,163467,138983
1630573731671,28512,163454,139025
1630573731681,28516,163474,139004
1630573731691,28509,163461,139004
1630573731701,28501,163454,138992
1630573731711,28500,163445,138998
1630573731721,28497,163418,139025
1630573731731,28495,163413,139008
1630573731741,28494,163416,139010
1630573731751,28486,163399,139018
1630573731761,28477,163385,139019
1630573731771,28480,163386,139004
1630573731781,28475,163397,139004
1630573731791,28469,163356,138988
1630573731801,28471,163344,139003
1630573731811,28475,163363,138991
1630573731821,28469,163342,138998
1630573731831,28463,163354,139015
1630573731841,28452,163348,139011
1630573731851,28448,163310,138988
1630573731861,28441,163353,138995
1630573731871,28443,163307,139013
1630573731881,28441,163302,139009
1630573731891,28444,163303,139017
1630573731901,28433,163307,139015
1630573731911,28431,163300,139023
1630573731921,28436,163274,139007
1630573731931,28433,163285,139030
1630573731941,28430,163290,139015
1630573731951,28427,163312,139018
1630573731961,28418,163264,139027
1630573731971,28426,163294,139016
1630573731981,28425,163281,139027
1630573731991,28419,163291,139009
1630573732001,28414,163275,139027
1630573732011,28419,163255,139000
1630573732021,28410,163269,139025
1630573732031,28407,163258,139033
1630573732041,28414,163267,139028
1630573732051,28408,163253,139036
1630573732061,28414,163253,139030
1630573732071,28413,163276,139033
1630573732081,28412,163254,139031
1630573732091,28412,163267,139023
1630573732101,28414,163262,139015
1630573732111,28411,163246,139012
1630573732121,28410,163269,139033
1630573732131,28416,163277,139025
1630573732141,28411,163274,139011
1630573732151,28420,163255,139030
1630573732161,28410,163277,139018
1630573732171,28409,163271,139034
1630573732181,28408,163256,139033
1630573732191,28407,163269,139046
1630573732201,28414,163259,139025
1630573732211,28409,163279,139056
1630573732221,28413,163284,139040
1630573732231,28413,163267,139023
1630573732241,28417,163277,139022
1630573732251,28407,163293,139047
1630573732261,28411,163266,139041
1630573732271,28411,163258,139030
1630573732281,28416,163297,139030
1630573732291,28421,163272,139053
1630573732301,28405,163276,139033
1630573732311,28421,163288,139024
1630573732321,28410,163320,139029
1630573732331,28416,163289,139020
1630573732341,28416,163316,139040
1630573732351,28414,163307,139019
1630573732361,28421,163293,139038
1630573732371,28424,163301,139018
1630573732381,28420,163307,139012
1630573732391,28420,163320,139019
1630573732401,28419,163313,139020
1630573732411,28423,163303,139021
1630573732421,28429,163328,139024
1630573732431,28425,163316,139016
1630573732441,28417,163327,139040
1630573732451,28437,163329,139026
1630573732461,28435,163338,139016
1630573732471,28441,163322,139025
1630573732481,28443,163337,138998
1630573732491,28428,163340,139015
1630573732501,28436,163351,139019
1630573732511,28437,163331,139004
1630573732521,28432,163366,139023
1630573732531,28439,163385,139027
1630573732541,28440,163361,139004
1630573732551,28441,163364,139006
1630573732561,28444,163371,139012
1630573732571,28445,163368,139016
1630573732581,28449,163375,139026
1630573732591,28444,163363,139008
1630573732601,28453,163384,139004
1630573732611,28452,163386,139004
1630573732621,28457,163391,139015
1630573732631,28462,163417,139016
1630573732641,28458,163404,139027
1630573732651,28455,163387,139024
1630573732661,28444,163386,139024
1630573732671,28452,163390,139014
1630573732681,28448,163373,139009
1630573732691,28441,163384,139006
1630573732701,28437,163344,139015
1630573732711,28426,163348,139004
1630573732721,28428,163303,139013
1630573732731,28424,163333,139005
1630573732741,28419,163322,139006
1630573732751,28414,163311,139025
1630573732761,28408,163313,139026
1630573732771,28405,163302,139006
1630573732781,28406,163260,139019
1630573732791,28396,163264,139014
1630573732801,28402,163271,139025
1630573732811,28394,163259,139028
1630573732821,28390,163248,139028
1630573732831,28390,163263,139034
1630573732841,28382,163219,139006
1630573732851,28378,163234,139028
1630573732861,28380,163206,139034
1630573732871,28379,163213,139028
1630573732881,28374,163193,139028
1630573732891,28370,163193,139040
1630573732901,28372,163220,139043
1630573732911,28374,163195,139026
1630573732921,28365,163176,139037
1630573732931,28369,163200,139039
1630573732941,28358,163212,139041
1630573732951,28367,163176,139052
1630573732961,28361,163207,139053
1630573732971,28358,163183,139053
1630573732981,28355,163188,139040
1630573732991,28357,163184,139043
1630573733001,28355,163169,139041
1630573733011,28357,163168,139065
1630573733021,28358,163191,139026
1630573733031,28359,163193,139045
1630573733041,28360,163174,139053
1630573733051,28361,163176,139043
1630573733061,28352,163180,139050
1630573733071,28356,163175,139050
1630573733081,28356,163178,139048
1630573733091,28345,163167,139073
1630573733101,28360,163175,139054
1630573733111,28357,163186,139045
1630573733121,28367,163163,139049
1630573733131,28357,163186,139057
1630573733141,28352,163185,139056
1630573733151,28360,163196,139050
1630573733161,28355,163180,139056
1630573733171,28360,163167,139058
1630573733181,28363,163194,139062
1630573733191,28362,163167,139055
1630573733201,28362,163174,139052
1630573733211,28365,163199,139065
1630573733221,28362,163202,139055
1630573733231,28367,163191,139052
1630573733241,28361,163197,139076
1630573733251,28368,163198,139062
1630573733261,28359,163191,139040
1630573733271,28380,163195,139039
1630573733281,28373,163197,139067
1630573733291,28377,163211,139068
1630573733301,28370,163221,139065
1630573733311,28372,163206,139059
1630573733321,28372,163235,139058
1630573733331,28373,163236,139058
1630573733341,28376,163199,139059
1630573733351,28380,163226,139060
1630573733361,28378,163249,139054
1630573733371,28382,163208,139063
1630573733381,28381,163226,139069
1630573733391,28392,163232,139055
1630573733401,28382,163248,139071
1630573733411,28377,163220,139056
1630573733421,28390,163257,139063
1630573733431,28393,163252,139067
1630573733441,28389,163247,139044
1630573733451,28401,163246,139040
1630573733461,28390,163282,139059
1630573733471,28397,163267,139044
1630573733481,28397,163275,139042
1630573733491,28400,163260,139042
1630573733501,28399,163292,139059
1630573733511,28403,163284,139056
1630573733521,28407,163279,139052
1630573733531,28403,163283,139054
1630573733541,28411,163295,139047
1630573733551,28412,163305,139054
1630573733561,28411,163309,139056
1630573733571,28424,163313,139058
1630573733581,28410,163321,139044
1630573733591,28414,163337,139055
1630573733601,28432,163328,139045
1630573733611,28419,163346,139057
1630573733621,28427,163328,139054
1630573733631,28421,163348,139052
1630573733641,28430,163365,139054
1630573733651,28432,163358,139060
1630573733661,28429,163359,139063
1630573733671,28430,163350,139053
1630573733681,28431,163362,139053
1630573733691,28424,163347,139045
1630573733701,28416,163328,139068
1630573733711,28414,163328,139064
1630573733721,28408,163323,139058
1630573733731,28405,163298,139051
1630573733741,28412,163296,139074
1630573733751,28399,163300,139055
1630573733761,28402,163277,139063
1630573733771,28399,163274,139081
1630573733781,28388,163269,139064
1630573733791,28388,163260,139056
1630573733801,28389,163274,139055
1630573733811,28382,163255,139059
1630573733821,28380,163231,139077
1630573733831,28373,163210,139077
1630573733841,28373,163214,139077
1630573733851,28366,163202,139071
1630573733861,28367,163198,139079
1630573733871,28365,163195,139064
1630573733881,28363,163182,139064
1630573733891,28353,163201,139082
1630573733901,28369,163170,139084
1630573733911,28350,163147,139087
1630573733921,28349,163168,139065
1630573733931,28361,163150,139075
1630573733941,28350,163170,139084
1630573733951,28355,163170,139093
1630573733961,28348,163163,139101
1630573733971,28355,163176,139110
1630573733981,28351,163184,139118
1630573733991,28354,163167,139084
1630573734001,28352,163178,139087
1630573734011,28351,163159,139083
1630573734021,28355,163150,139109
1630573734031,28353,163152,139111
1630573734041,28352,163134,139105
1630573734051,28353,163172,139094
1630573734061,28343,163174,139108
1630573734071,28349,163170,139099
1630573734081,28365,163162,139101
1630573734091,28356,163137,139103
1630573734101,28348,163174,139101
1630573734111,28357,163170,139119
1630573734121,28359,163172,139100
1630573734131,28360,163183,139111
1630573734141,28359,163175,139120
1630573734151,28359,163149,139117
1630573734161,28364,163194,139119
