timestamp,ecg_waveform
1629724800001,2050
1629724800005,2050
1629724800009,2050
1629724800013,2051
1629724800017,2052
1629724800021,2053
1629724800025,2054
1629724800029,2054
1629724800033,2054
1629724800037,2055
1629724800041,2055
1629724800045,2055
1629724800049,2056
1629724800053,2056
1629724800057,2057
1629724800061,2058
1629724800065,2059
1629724800069,2060
1629724800073,2060
1629724800077,2060
1629724800081,2060
1629724800085,2061
1629724800089,2062
1629724800093,2063
1629724800097,2065
1629724800101,2066
1629724800105,2068
1629724800109,2069
1629724800113,2070
1629724800117,2070
1629724800121,2071
1629724800125,2072
1629724800129,2074
1629724800133,2076
1629724800137,2078
1629724800141,2081
1629724800145,2083
1629724800149,2085
1629724800153,2087
1629724800157,2089
1629724800161,2091
1629724800165,2093
1629724800169,2096
1629724800173,2099
1629724800177,2102
1629724800181,2105
1629724800185,2107
1629724800189,2109
1629724800193,2111
1629724800197,2112
1629724800201,2112
1629724800205,2113
1629724800209,2112
1629724800213,2110
1629724800217,2108
1629724800221,2104
1629724800225,2101
1629724800229,2096
1629724800233,2091
1629724800237,2085
1629724800241,2078
1629724800245,2071
1629724800249,2066
1629724800253,2061
1629724800257,2057
1629724800261,2054
1629724800265,2051
1629724800269,2049
1629724800273,2048
1629724800277,2047
1629724800281,2045
1629724800285,2043
1629724800289,2041
1629724800293,2040
1629724800297,2040
1629724800301,2040
1629724800305,2040
1629724800309,2039
1629724800313,2039
1629724800317,2039
1629724800321,2038
1629724800325,2038
1629724800329,2039
1629724800333,2040
1629724800337,2040
1629724800341,2041
1629724800345,2041
1629724800349,2041
1629724800353,2041
1629724800357,2041
1629724800361,2041
1629724800365,2041
1629724800369,2042
1629724800373,2042
1629724800377,2042
1629724800381,2042
1629724800385,2043
1629724800389,2043
1629724800393,2043
1629724800397,2042
1629724800401,2042
1629724800405,2041
1629724800409,2042
1629724800413,2042
1629724800417,2043
1629724800421,2044
1629724800425,2044
1629724800429,2044
1629724800433,2044
1629724800437,2043
1629724800441,2043
1629724800445,2043
1629724800449,2043
1629724800453,2043
1629724800457,2043
1629724800461,2043
1629724800465,2043
1629724800469,2043
1629724800473,2043
1629724800477,2043
1629724800481,2042
1629724800485,2042
1629724800489,2042
1629724800493,2042
1629724800497,2043
1629724800501,2044
1629724800505,2043
1629724800509,2043
1629724800513,2042
1629724800517,2043
1629724800521,2043
1629724800525,2044
1629724800529,2044
1629724800533,2044
1629724800537,2044
1629724800541,2044
1629724800545,2044
1629724800549,2044
1629724800553,2044
1629724800557,2044
1629724800561,2043
1629724800565,2043
1629724800569,2044
1629724800573,2044
1629724800577,2044
1629724800581,2045
1629724800585,2045
1629724800589,2045
1629724800593,2045
1629724800597,2045
1629724800601,2045
1629724800605,2045
1629724800609,2045
1629724800613,2046
1629724800617,2047
1629724800621,2047
1629724800625,2047
1629724800629,2047
1629724800633,2046
1629724800637,2046
1629724800641,2046
1629724800645,2046
1629724800649,2045
1629724800653,2046
1629724800657,2048
1629724800661,2050
1629724800665,2053
1629724800669,2056
1629724800673,2057
1629724800677,2056
1629724800681,2054
1629724800685,2052
1629724800689,2052
1629724800693,2051
1629724800697,2052
1629724800701,2052
1629724800705,2051
1629724800709,2049
1629724800713,2048
1629724800717,2046
1629724800721,2045
1629724800725,2045
1629724800729,2045
1629724800733,2046
1629724800737,2046
1629724800741,2047
1629724800745,2047
1629724800749,2047
1629724800753,2047
1629724800757,2046
1629724800761,2046
1629724800765,2046
1629724800769,2047
1629724800773,2048
1629724800777,2048
1629724800781,2048
1629724800785,2048
1629724800789,2046
1629724800793,2045
1629724800797,2047
1629724800801,2055
1629724800805,2070
1629724800809,2087
1629724800813,2107
1629724800817,2133
1629724800821,2159
1629724800825,2174
1629724800829,2170
1629724800833,2140
1629724800837,2091
1629724800841,2043
1629724800845,2011
1629724800849,2004
1629724800853,2017
1629724800857,2038
1629724800861,2053
1629724800865,2058
1629724800869,2056
1629724800873,2055
1629724800877,2055
1629724800881,2054
1629724800885,2053
1629724800889,2054
1629724800893,2054
1629724800897,2055
1629724800901,2056
1629724800905,2056
1629724800909,2057
1629724800913,2058
1629724800917,2058
1629724800921,2059
1629724800925,2059
1629724800929,2059
1629724800933,2059
1629724800937,2060
1629724800941,2061
1629724800945,2061
1629724800949,2062
1629724800953,2062
1629724800957,2063
1629724800961,2063
1629724800965,2064
1629724800969,2065
1629724800973,2066
1629724800977,2067
1629724800981,2068
1629724800985,2070
1629724800989,2071
1629724800993,2072
1629724800997,2072
1629724801001,2073
1629724801005,2074
1629724801009,2077
1629724801013,2079
1629724801017,2082
1629724801021,2084
1629724801025,2087
1629724801029,2089
1629724801033,2092
1629724801037,2094
1629724801041,2097
1629724801045,2099
1629724801049,2102
1629724801053,2104
1629724801057,2106
1629724801061,2108
1629724801065,2110
1629724801069,2113
1629724801073,2114
1629724801077,2116
1629724801081,2116
1629724801085,2115
1629724801089,2114
1629724801093,2111
1629724801097,2108
1629724801101,2104
1629724801105,2098
1629724801109,2092
1629724801113,2084
1629724801117,2076
1629724801121,2069
1629724801125,2064
1629724801129,2059
1629724801133,2055
1629724801137,2052
1629724801141,2049
1629724801145,2047
1629724801149,2044
1629724801153,2042
1629724801157,2040
1629724801161,2039
1629724801165,2038
1629724801169,2037
1629724801173,2037
1629724801177,2036
1629724801181,2036
1629724801185,2036
1629724801189,2035
1629724801193,2035
1629724801197,2035
1629724801201,2035
1629724801205,2035
1629724801209,2036
1629724801213,2036
1629724801217,2037
1629724801221,2037
1629724801225,2036
1629724801229,2036
1629724801233,2036
1629724801237,2036
1629724801241,2036
1629724801245,2037
1629724801249,2037
1629724801253,2038
1629724801257,2038
1629724801261,2038
1629724801265,2038
1629724801269,2038
1629724801273,2039
1629724801277,2039
1629724801281,2038
1629724801285,2038
1629724801289,2038
1629724801293,2038
1629724801297,2039
1629724801301,2039
1629724801305,2040
1629724801309,2040
1629724801313,2040
1629724801317,2039
1629724801321,2039
1629724801325,2038
1629724801329,2038
1629724801333,2039
1629724801337,2039
1629724801341,2039
1629724801345,2040
1629724801349,2040
1629724801353,2040
1629724801357,2039
1629724801361,2039
1629724801365,2039
1629724801369,2039
1629724801373,2039
1629724801377,2040
1629724801381,2040
1629724801385,2040
1629724801389,2040
1629724801393,2039
1629724801397,2039
1629724801401,2039
1629724801405,2039
1629724801409,2039
1629724801413,2040
1629724801417,2041
1629724801421,2041
1629724801425,2041
1629724801429,2041
1629724801433,2041
1629724801437,2041
1629724801441,2040
1629724801445,2040
1629724801449,2041
1629724801453,2041
1629724801457,2041
1629724801461,2041
1629724801465,2041
1629724801469,2041
1629724801473,2042
1629724801477,2042
1629724801481,2042
1629724801485,2042
1629724801489,2041
1629724801493,2041
1629724801497,2042
1629724801501,2042
1629724801505,2043
1629724801509,2043
1629724801513,2043
1629724801517,2043
1629724801521,2042
1629724801525,2042
1629724801529,2042
1629724801533,2042
1629724801537,2042
1629724801541,2043
1629724801545,2045
1629724801549,2048
1629724801553,2050
1629724801557,2052
1629724801561,2052
1629724801565,2051
1629724801569,2050
1629724801573,2048
1629724801577,2048
1629724801581,2048
1629724801585,2048
1629724801589,2048
1629724801593,2047
1629724801597,2046
1629724801601,2044
1629724801605,2043
1629724801609,2042
1629724801613,2042
1629724801617,2042
1629724801621,2042
1629724801625,2042
1629724801629,2042
1629724801633,2042
1629724801637,2042
1629724801641,2042
1629724801645,2042
1629724801649,2042
1629724801653,2043
1629724801657,2044
1629724801661,2044
1629724801665,2045
1629724801669,2045
1629724801673,2044
1629724801677,2042
1629724801681,2041
1629724801685,2044
1629724801689,2052
1629724801693,2066
1629724801697,2081
1629724801701,2099
1629724801705,2123
1629724801709,2147
1629724801713,2163
1629724801717,2161
1629724801721,2134
1629724801725,2087
1629724801729,2040
1629724801733,2009
1629724801737,2003
1629724801741,2017
1629724801745,2038
1629724801749,2052
1629724801753,2055
1629724801757,2051
1629724801761,2049
1629724801765,2048
1629724801769,2048
1629724801773,2048
1629724801777,2049
1629724801781,2050
1629724801785,2051
1629724801789,2051
1629724801793,2052
1629724801797,2052
1629724801801,2052
1629724801805,2052
1629724801809,2052
1629724801813,2053
1629724801817,2054
1629724801821,2054
1629724801825,2055
1629724801829,2055
1629724801833,2056
1629724801837,2056
1629724801841,2057
1629724801845,2057
1629724801849,2058
1629724801853,2059
1629724801857,2060
1629724801861,2061
1629724801865,2063
1629724801869,2064
1629724801873,2064
1629724801877,2065
1629724801881,2066
1629724801885,2067
1629724801889,2068
1629724801893,2070
1629724801897,2073
1629724801901,2075
1629724801905,2078
1629724801909,2080
1629724801913,2082
1629724801917,2084
1629724801921,2086
1629724801925,2089
1629724801929,2092
1629724801933,2095
1629724801937,2098
1629724801941,2101
1629724801945,2104
1629724801949,2106
1629724801953,2109
1629724801957,2110
1629724801961,2111
1629724801965,2112
1629724801969,2113
1629724801973,2112
1629724801977,2111
1629724801981,2109
1629724801985,2105
1629724801989,2100
1629724801993,2094
1629724801997,2087
1629724802001,2080
1629724802005,2073
1629724802009,2067
1629724802013,2062
1629724802017,2057
1629724802021,2053
1629724802025,2049
1629724802029,2046
1629724802033,2043
1629724802037,2040
1629724802041,2038
1629724802045,2036
1629724802049,2035
1629724802053,2034
1629724802057,2034
1629724802061,2034
1629724802065,2034
1629724802069,2033
1629724802073,2033
1629724802077,2033
1629724802081,2033
1629724802085,2032
1629724802089,2032
1629724802093,2032
1629724802097,2033
1629724802101,2033
1629724802105,2033
1629724802109,2033
1629724802113,2033
1629724802117,2033
1629724802121,2032
1629724802125,2033
1629724802129,2033
1629724802133,2034
1629724802137,2035
1629724802141,2035
1629724802145,2035
1629724802149,2035
1629724802153,2035
1629724802157,2035
1629724802161,2035
1629724802165,2035
1629724802169,2035
1629724802173,2035
1629724802177,2036
1629724802181,2036
1629724802185,2036
1629724802189,2036
1629724802193,2036
1629724802197,2036
1629724802201,2036
1629724802205,2036
1629724802209,2035
1629724802213,2035
1629724802217,2036
1629724802221,2036
1629724802225,2037
1629724802229,2037
1629724802233,2037
1629724802237,2037
1629724802241,2036
1629724802245,2036
1629724802249,2036
1629724802253,2036
1629724802257,2037
1629724802261,2037
1629724802265,2038
1629724802269,2038
1629724802273,2038
1629724802277,2037
1629724802281,2037
1629724802285,2036
1629724802289,2037
1629724802293,2037
1629724802297,2038
1629724802301,2038
1629724802305,2038
1629724802309,2038
1629724802313,2038
1629724802317,2038
1629724802321,2038
1629724802325,2038
1629724802329,2038
1629724802333,2038
1629724802337,2038
1629724802341,2039
1629724802345,2040
1629724802349,2040
1629724802353,2040
1629724802357,2039
1629724802361,2038
1629724802365,2039
1629724802369,2039
1629724802373,2040
1629724802377,2040
1629724802381,2041
1629724802385,2041
1629724802389,2041
1629724802393,2041
1629724802397,2040
1629724802401,2040
1629724802405,2040
1629724802409,2040
1629724802413,2040
1629724802417,2041
1629724802421,2042
1629724802425,2042
1629724802429,2042
1629724802433,2042
1629724802437,2041
1629724802441,2041
1629724802445,2041
1629724802449,2041
1629724802453,2042
1629724802457,2042
1629724802461,2042
1629724802465,2043
1629724802469,2042
1629724802473,2042
1629724802477,2042
1629724802481,2042
1629724802485,2042
1629724802489,2044
1629724802493,2047
1629724802497,2050
1629724802501,2052
1629724802505,2053
1629724802509,2052
1629724802513,2050
1629724802517,2048
1629724802521,2048
1629724802525,2047
1629724802529,2048
1629724802533,2048
1629724802537,2047
1629724802541,2046
1629724802545,2044
1629724802549,2043
1629724802553,2043
1629724802557,2042
1629724802561,2042
1629724802565,2042
1629724802569,2042
1629724802573,2042
1629724802577,2042
1629724802581,2042
1629724802585,2042
1629724802589,2043
1629724802593,2043
1629724802597,2043
1629724802601,2043
1629724802605,2043
1629724802609,2044
1629724802613,2044
1629724802617,2044
1629724802621,2042
1629724802625,2041
1629724802629,2044
1629724802633,2051
1629724802637,2063
1629724802641,2076
1629724802645,2091
1629724802649,2112
1629724802653,2135
1629724802657,2152
1629724802661,2154
1629724802665,2132
1629724802669,2091
1629724802673,2046
1629724802677,2014
1629724802681,2005
1629724802685,2017
1629724802689,2037
1629724802693,2051
1629724802697,2056
1629724802701,2052
1629724802705,2050
1629724802709,2049
1629724802713,2049
1629724802717,2049
1629724802721,2049
1629724802725,2049
1629724802729,2050
1629724802733,2050
1629724802737,2051
1629724802741,2052
1629724802745,2053
1629724802749,2053
1629724802753,2053
1629724802757,2054
1629724802761,2054
1629724802765,2054
1629724802769,2055
1629724802773,2056
1629724802777,2056
1629724802781,2057
1629724802785,2058
1629724802789,2059
1629724802793,2059
1629724802797,2060
1629724802801,2060
1629724802805,2061
1629724802809,2062
1629724802813,2063
1629724802817,2065
1629724802821,2066
1629724802825,2068
1629724802829,2069
1629724802833,2071
1629724802837,2072
1629724802841,2074
1629724802845,2075
1629724802849,2077
1629724802853,2079
1629724802857,2082
1629724802861,2085
1629724802865,2088
1629724802869,2091
1629724802873,2093
1629724802877,2096
1629724802881,2098
1629724802885,2101
1629724802889,2103
1629724802893,2106
1629724802897,2108
1629724802901,2110
1629724802905,2111
1629724802909,2113
1629724802913,2114
1629724802917,2114
1629724802921,2112
1629724802925,2110
1629724802929,2107
1629724802933,2102
1629724802937,2097
1629724802941,2091
1629724802945,2085
1629724802949,2079
1629724802953,2072
1629724802957,2067
1629724802961,2061
1629724802965,2057
1629724802969,2053
1629724802973,2049
1629724802977,2047
1629724802981,2045
1629724802985,2043
1629724802989,2042
1629724802993,2040
1629724802997,2039
1629724803001,2038
1629724803005,2037
1629724803009,2037
1629724803013,2037
1629724803017,2037
1629724803021,2037
1629724803025,2037
1629724803029,2037
1629724803033,2037
1629724803037,2037
1629724803041,2037
1629724803045,2036
1629724803049,2036
1629724803053,2037
1629724803057,2037
1629724803061,2037
1629724803065,2038
1629724803069,2038
1629724803073,2038
1629724803077,2038
1629724803081,2038
1629724803085,2037
1629724803089,2037
1629724803093,2038
1629724803097,2039
1629724803101,2039
1629724803105,2040
1629724803109,2039
1629724803113,2039
1629724803117,2038
1629724803121,2038
1629724803125,2038
1629724803129,2038
1629724803133,2039
1629724803137,2039
1629724803141,2040
1629724803145,2040
1629724803149,2040
1629724803153,2040
1629724803157,2040
1629724803161,2040
1629724803165,2039
1629724803169,2039
1629724803173,2040
1629724803177,2040
1629724803181,2041
1629724803185,2041
1629724803189,2041
1629724803193,2041
1629724803197,2041
1629724803201,2040
1629724803205,2040
1629724803209,2040
1629724803213,2040
1629724803217,2041
1629724803221,2041
1629724803225,2041
1629724803229,2042
1629724803233,2042
1629724803237,2042
1629724803241,2041
1629724803245,2041
1629724803249,2040
1629724803253,2041
1629724803257,2041
1629724803261,2041
1629724803265,2042
1629724803269,2042
1629724803273,2042
1629724803277,2042
1629724803281,2042
1629724803285,2042
1629724803289,2042
1629724803293,2042
1629724803297,2043
1629724803301,2043
1629724803305,2043
1629724803309,2043
1629724803313,2043
1629724803317,2043
1629724803321,2043
1629724803325,2043
1629724803329,2043
1629724803333,2043
1629724803337,2043
1629724803341,2043
1629724803345,2044
1629724803349,2044
1629724803353,2044
1629724803357,2044
1629724803361,2043
1629724803365,2043
1629724803369,2043
1629724803373,2044
1629724803377,2044
1629724803381,2045
1629724803385,2045
1629724803389,2045
1629724803393,2045
1629724803397,2045
1629724803401,2045
1629724803405,2045
1629724803409,2045
1629724803413,2044
1629724803417,2044
1629724803421,2045
1629724803425,2045
1629724803429,2045
1629724803433,2045
1629724803437,2045
1629724803441,2044
1629724803445,2044
1629724803449,2046
1629724803453,2048
1629724803457,2051
1629724803461,2054
1629724803465,2055
1629724803469,2055
1629724803473,2053
1629724803477,2052
1629724803481,2051
1629724803485,2050
1629724803489,2049
1629724803493,2048
1629724803497,2048
1629724803501,2048
1629724803505,2047
1629724803509,2046
1629724803513,2045
1629724803517,2044
1629724803521,2043
1629724803525,2043
1629724803529,2043
1629724803533,2043
1629724803537,2043
1629724803541,2043
1629724803545,2044
1629724803549,2044
1629724803553,2044
1629724803557,2043
1629724803561,2043
1629724803565,2044
1629724803569,2045
1629724803573,2046
1629724803577,2046
1629724803581,2045
1629724803585,2043
1629724803589,2042
1629724803593,2045
1629724803597,2054
1629724803601,2067
1629724803605,2081
1629724803609,2100
1629724803613,2123
1629724803617,2146
1629724803621,2159
1629724803625,2152
1629724803629,2120
1629724803633,2074
1629724803637,2031
1629724803641,2006
1629724803645,2007
1629724803649,2023
1629724803653,2043
1629724803657,2055
1629724803661,2056
1629724803665,2053
1629724803669,2051
1629724803673,2049
1629724803677,2049
1629724803681,2049
1629724803685,2049
1629724803689,2050
1629724803693,2050
1629724803697,2051
1629724803701,2052
1629724803705,2053
1629724803709,2054
1629724803713,2054
1629724803717,2055
1629724803721,2055
1629724803725,2055
1629724803729,2056
1629724803733,2056
1629724803737,2057
1629724803741,2058
1629724803745,2059
1629724803749,2059
1629724803753,2060
1629724803757,2061
1629724803761,2061
1629724803765,2062
1629724803769,2063
1629724803773,2064
1629724803777,2065
1629724803781,2066
1629724803785,2068
1629724803789,2069
1629724803793,2071
1629724803797,2072
1629724803801,2073
1629724803805,2074
1629724803809,2076
1629724803813,2079
1629724803817,2082
1629724803821,2084
1629724803825,2087
1629724803829,2089
1629724803833,2092
1629724803837,2094
1629724803841,2096
1629724803845,2099
1629724803849,2102
1629724803853,2105
1629724803857,2108
1629724803861,2110
1629724803865,2112
1629724803869,2114
1629724803873,2115
1629724803877,2115
1629724803881,2115
1629724803885,2113
1629724803889,2111
1629724803893,2108
1629724803897,2105
1629724803901,2100
1629724803905,2094
1629724803909,2088
1629724803913,2081
1629724803917,2074
1629724803921,2068
1629724803925,2063
1629724803929,2058
1629724803933,2054
1629724803937,2052
1629724803941,2049
1629724803945,2048
1629724803949,2046
1629724803953,2044
1629724803957,2042
1629724803961,2041
1629724803965,2041
1629724803969,2040
1629724803973,2040
1629724803977,2039
1629724803981,2039
1629724803985,2039
1629724803989,2039
1629724803993,2039
1629724803997,2039
1629724804001,2039
1629724804005,2039
1629724804009,2039
1629724804013,2039
1629724804017,2040
1629724804021,2040
1629724804025,2040
1629724804029,2040
1629724804033,2040
1629724804037,2040
1629724804041,2040
1629724804045,2041
1629724804049,2041
1629724804053,2042
1629724804057,2042
1629724804061,2043
1629724804065,2043
1629724804069,2043
1629724804073,2043
1629724804077,2043
1629724804081,2042
1629724804085,2042
1629724804089,2042
1629724804093,2042
1629724804097,2043
1629724804101,2044
1629724804105,2045
1629724804109,2044
1629724804113,2044
1629724804117,2043
1629724804121,2042
1629724804125,2042
1629724804129,2043
1629724804133,2043
1629724804137,2044
1629724804141,2044
1629724804145,2044
1629724804149,2044
1629724804153,2044
1629724804157,2044
1629724804161,2044
1629724804165,2044
1629724804169,2043
1629724804173,2043
1629724804177,2043
1629724804181,2043
1629724804185,2043
1629724804189,2044
1629724804193,2044
1629724804197,2045
1629724804201,2045
1629724804205,2045
1629724804209,2044
1629724804213,2044
1629724804217,2045
1629724804221,2045
1629724804225,2046
1629724804229,2046
1629724804233,2047
1629724804237,2047
1629724804241,2046
1629724804245,2046
1629724804249,2045
1629724804253,2045
1629724804257,2046
1629724804261,2046
1629724804265,2047
1629724804269,2047
1629724804273,2048
1629724804277,2047
1629724804281,2047
1629724804285,2047
1629724804289,2047
1629724804293,2047
1629724804297,2048
1629724804301,2048
1629724804305,2048
1629724804309,2048
1629724804313,2048
1629724804317,2048
1629724804321,2048
1629724804325,2048
1629724804329,2048
1629724804333,2048
1629724804337,2049
1629724804341,2049
1629724804345,2050
1629724804349,2050
1629724804353,2050
1629724804357,2049
1629724804361,2048
1629724804365,2048
1629724804369,2048
1629724804373,2050
1629724804377,2054
1629724804381,2058
1629724804385,2060
1629724804389,2060
1629724804393,2058
1629724804397,2057
1629724804401,2055
1629724804405,2055
1629724804409,2055
1629724804413,2055
1629724804417,2054
1629724804421,2053
1629724804425,2052
1629724804429,2051
1629724804433,2049
1629724804437,2049
1629724804441,2048
1629724804445,2048
1629724804449,2048
1629724804453,2049
1629724804457,2049
1629724804461,2048
1629724804465,2048
1629724804469,2048
1629724804473,2048
1629724804477,2048
1629724804481,2048
1629724804485,2048
1629724804489,2048
1629724804493,2048
1629724804497,2050
1629724804501,2051
1629724804505,2050
1629724804509,2048
1629724804513,2048
1629724804517,2053
1629724804521,2065
1629724804525,2081
1629724804529,2099
1629724804533,2124
1629724804537,2151
1629724804541,2173
1629724804545,2178
1629724804549,2159
1629724804553,2116
1629724804557,2064
1629724804561,2023
1629724804565,2006
1629724804569,2012
1629724804573,2031
1629724804577,2048
1629724804581,2058
1629724804585,2058
1629724804589,2056
1629724804593,2056
1629724804597,2056
1629724804601,2055
1629724804605,2055
1629724804609,2055
1629724804613,2055
1629724804617,2055
1629724804621,2056
1629724804625,2057
1629724804629,2057
1629724804633,2058
1629724804637,2058
1629724804641,2059
1629724804645,2059
1629724804649,2059
1629724804653,2060
1629724804657,2061
1629724804661,2062
1629724804665,2064
1629724804669,2065
1629724804673,2066
1629724804677,2065
1629724804681,2064
1629724804685,2064
1629724804689,2064
1629724804693,2065
1629724804697,2067
1629724804701,2069
1629724804705,2070
1629724804709,2071
1629724804713,2072
1629724804717,2074
1629724804721,2076
1629724804725,2079
1629724804729,2081
1629724804733,2083
1629724804737,2085
1629724804741,2087
1629724804745,2089
1629724804749,2092
1629724804753,2095
1629724804757,2098
1629724804761,2100
1629724804765,2103
1629724804769,2106
1629724804773,2108
1629724804777,2110
1629724804781,2113
1629724804785,2115
1629724804789,2117
1629724804793,2119
1629724804797,2120
1629724804801,2120
1629724804805,2118
1629724804809,2117
1629724804813,2114
1629724804817,2110
1629724804821,2105
1629724804825,2098
1629724804829,2091
1629724804833,2084
1629724804837,2076
1629724804841,2070
1629724804845,2064
1629724804849,2059
1629724804853,2055
1629724804857,2052
1629724804861,2048
1629724804865,2046
1629724804869,2043
1629724804873,2041
1629724804877,2039
1629724804881,2038
1629724804885,2037
1629724804889,2037
1629724804893,2037
1629724804897,2037
1629724804901,2037
1629724804905,2037
1629724804909,2036
1629724804913,2036
1629724804917,2036
1629724804921,2036
1629724804925,2035
1629724804929,2035
1629724804933,2035
1629724804937,2035
1629724804941,2036
1629724804945,2036
1629724804949,2038
1629724804953,2038
1629724804957,2039
1629724804961,2038
1629724804965,2038
1629724804969,2038
1629724804973,2038
1629724804977,2038
1629724804981,2039
1629724804985,2040
1629724804989,2041
1629724804993,2041
1629724804997,2040
1629724805001,2040
1629724805005,2040
1629724805009,2040
1629724805013,2041
1629724805017,2041
1629724805021,2042
1629724805025,2042
1629724805029,2042
1629724805033,2042
1629724805037,2042
1629724805041,2042
1629724805045,2042
1629724805049,2042
1629724805053,2042
1629724805057,2042
1629724805061,2042
1629724805065,2042
1629724805069,2042
1629724805073,2041
1629724805077,2041
1629724805081,2041
1629724805085,2041
1629724805089,2042
1629724805093,2042
1629724805097,2042
1629724805101,2043
1629724805105,2043
1629724805109,2043
1629724805113,2042
1629724805117,2042
1629724805121,2041
1629724805125,2040
1629724805129,2041
1629724805133,2041
1629724805137,2043
1629724805141,2043
1629724805145,2043
1629724805149,2042
1629724805153,2042
1629724805157,2042
1629724805161,2041
1629724805165,2041
1629724805169,2041
1629724805173,2041
1629724805177,2042
1629724805181,2043
1629724805185,2044
1629724805189,2044
1629724805193,2044
1629724805197,2044
1629724805201,2044
1629724805205,2043
1629724805209,2042
1629724805213,2042
1629724805217,2043
1629724805221,2046
1629724805225,2049
1629724805229,2053
1629724805233,2054
1629724805237,2053
1629724805241,2051
1629724805245,2050
1629724805249,2050
1629724805253,2050
1629724805257,2051
1629724805261,2050
1629724805265,2049
1629724805269,2048
1629724805273,2048
1629724805277,2046
1629724805281,2044
1629724805285,2043
1629724805289,2044
1629724805293,2044
1629724805297,2045
1629724805301,2046
1629724805305,2046
1629724805309,2046
1629724805313,2046
1629724805317,2046
1629724805321,2045
1629724805325,2045
1629724805329,2045
1629724805333,2046
1629724805337,2047
1629724805341,2048
1629724805345,2049
1629724805349,2048
1629724805353,2045
1629724805357,2043
1629724805361,2047
1629724805365,2058
1629724805369,2076
1629724805373,2095
1629724805377,2118
1629724805381,2146
1629724805385,2172
1629724805389,2185
1629724805393,2175
1629724805397,2139
1629724805401,2085
1629724805405,2036
1629724805409,2007
1629724805413,2006
1629724805417,2023
1629724805421,2044
1629724805425,2057
1629724805429,2059
1629724805433,2056
1629724805437,2054
1629724805441,2052
1629724805445,2052
1629724805449,2053
1629724805453,2055
1629724805457,2056
1629724805461,2057
1629724805465,2056
1629724805469,2055
1629724805473,2056
1629724805477,2058
1629724805481,2059
1629724805485,2060
1629724805489,2060
1629724805493,2060
1629724805497,2060
1629724805501,2061
1629724805505,2062
1629724805509,2063
1629724805513,2063
1629724805517,2064
1629724805521,2065
1629724805525,2065
1629724805529,2065
1629724805533,2066
1629724805537,2068
1629724805541,2070
1629724805545,2072
1629724805549,2073
1629724805553,2074
1629724805557,2075
1629724805561,2075
1629724805565,2077
1629724805569,2080
1629724805573,2082
1629724805577,2085
1629724805581,2087
1629724805585,2090
1629724805589,2092
1629724805593,2095
1629724805597,2098
1629724805601,2101
1629724805605,2105
1629724805609,2110
1629724805613,2113
1629724805617,2116
1629724805621,2119
1629724805625,2121
1629724805629,2123
1629724805633,2124
1629724805637,2126
1629724805641,2127
1629724805645,2128
1629724805649,2127
1629724805653,2125
1629724805657,2121
1629724805661,2115
1629724805665,2108
1629724805669,2101
1629724805673,2093
1629724805677,2085
1629724805681,2078
1629724805685,2071
1629724805689,2064
1629724805693,2058
1629724805697,2054
1629724805701,2051
1629724805705,2049
1629724805709,2048
1629724805713,2045
1629724805717,2041
1629724805721,2038
1629724805725,2036
1629724805729,2036
1629724805733,2036
1629724805737,2036
1629724805741,2037
1629724805745,2037
1629724805749,2036
1629724805753,2035
1629724805757,2035
1629724805761,2034
1629724805765,2034
1629724805769,2034
1629724805773,2035
1629724805777,2035
1629724805781,2036
1629724805785,2036
1629724805789,2036
1629724805793,2036
1629724805797,2036
1629724805801,2036
1629724805805,2037
1629724805809,2037
1629724805813,2038
1629724805817,2039
1629724805821,2040
1629724805825,2040
1629724805829,2040
1629724805833,2040
1629724805837,2040
1629724805841,2040
1629724805845,2041
1629724805849,2041
1629724805853,2041
1629724805857,2041
1629724805861,2042
1629724805865,2042
1629724805869,2043
1629724805873,2042
1629724805877,2042
1629724805881,2042
1629724805885,2042
1629724805889,2042
1629724805893,2041
1629724805897,2041
1629724805901,2041
1629724805905,2042
1629724805909,2043
1629724805913,2044
1629724805917,2045
1629724805921,2044
1629724805925,2043
1629724805929,2043
1629724805933,2042
1629724805937,2042
1629724805941,2042
1629724805945,2043
1629724805949,2044
1629724805953,2044
1629724805957,2044
1629724805961,2043
1629724805965,2043
1629724805969,2043
1629724805973,2043
1629724805977,2044
1629724805981,2044
1629724805985,2045
1629724805989,2046
1629724805993,2046
1629724805997,2045
1629724806001,2044
1629724806005,2044
1629724806009,2044
1629724806013,2045
1629724806017,2045
1629724806021,2045
1629724806025,2045
1629724806029,2045
1629724806033,2045
1629724806037,2045
1629724806041,2045
1629724806045,2045
1629724806049,2046
1629724806053,2047
1629724806057,2048
1629724806061,2050
1629724806065,2052
1629724806069,2052
1629724806073,2052
1629724806077,2051
1629724806081,2050
1629724806085,2050
1629724806089,2050
1629724806093,2050
1629724806097,2049
1629724806101,2048
1629724806105,2047
1629724806109,2045
1629724806113,2044
1629724806117,2044
1629724806121,2043
1629724806125,2043
1629724806129,2043
1629724806133,2044
1629724806137,2044
1629724806141,2045
1629724806145,2046
1629724806149,2046
1629724806153,2046
1629724806157,2046
1629724806161,2046
1629724806165,2046
1629724806169,2047
1629724806173,2048
1629724806177,2048
1629724806181,2046
1629724806185,2044
1629724806189,2044
1629724806193,2050
1629724806197,2064
1629724806201,2081
1629724806205,2100
1629724806209,2125
1629724806213,2155
1629724806217,2180
1629724806221,2189
1629724806225,2173
1629724806229,2129
1629724806233,2073
1629724806237,2027
1629724806241,2004
1629724806245,2009
1629724806249,2028
1629724806253,2048
1629724806257,2058
1629724806261,2057
1629724806265,2055
1629724806269,2053
1629724806273,2052
1629724806277,2052
1629724806281,2052
1629724806285,2053
1629724806289,2053
1629724806293,2054
1629724806297,2054
1629724806301,2054
1629724806305,2055
1629724806309,2056
1629724806313,2057
1629724806317,2058
1629724806321,2059
1629724806325,2059
1629724806329,2059
1629724806333,2059
1629724806337,2059
1629724806341,2060
1629724806345,2061
1629724806349,2062
1629724806353,2063
1629724806357,2064
1629724806361,2064
1629724806365,2065
1629724806369,2066
1629724806373,2067
1629724806377,2068
1629724806381,2070
1629724806385,2071
1629724806389,2073
1629724806393,2075
1629724806397,2076
1629724806401,2078
1629724806405,2080
1629724806409,2082
1629724806413,2085
1629724806417,2088
1629724806421,2091
1629724806425,2094
1629724806429,2098
1629724806433,2101
1629724806437,2105
1629724806441,2109
1629724806445,2112
1629724806449,2115
1629724806453,2118
1629724806457,2121
1629724806461,2124
1629724806465,2126
1629724806469,2127
1629724806473,2128
1629724806477,2127
1629724806481,2125
1629724806485,2122
1629724806489,2116
1629724806493,2109
1629724806497,2102
1629724806501,2095
1629724806505,2088
1629724806509,2080
1629724806513,2072
1629724806517,2065
1629724806521,2058
1629724806525,2053
1629724806529,2049
1629724806533,2047
1629724806537,2044
1629724806541,2043
1629724806545,2041
1629724806549,2039
1629724806553,2037
1629724806557,2036
1629724806561,2034
1629724806565,2034
1629724806569,2035
1629724806573,2035
1629724806577,2035
1629724806581,2034
1629724806585,2034
1629724806589,2034
1629724806593,2034
1629724806597,2034
1629724806601,2034
1629724806605,2035
1629724806609,2035
1629724806613,2035
1629724806617,2036
1629724806621,2036
1629724806625,2036
1629724806629,2036
1629724806633,2036
1629724806637,2036
1629724806641,2036
1629724806645,2037
1629724806649,2037
1629724806653,2037
1629724806657,2038
1629724806661,2039
1629724806665,2039
1629724806669,2040
1629724806673,2040
1629724806677,2040
1629724806681,2039
1629724806685,2038
1629724806689,2038
1629724806693,2038
1629724806697,2039
1629724806701,2041
1629724806705,2041
1629724806709,2042
1629724806713,2042
1629724806717,2041
1629724806721,2041
1629724806725,2041
1629724806729,2041
1629724806733,2041
1629724806737,2042
1629724806741,2042
1629724806745,2042
1629724806749,2042
1629724806753,2042
1629724806757,2041
1629724806761,2041
1629724806765,2040
1629724806769,2040
1629724806773,2040
1629724806777,2041
1629724806781,2042
1629724806785,2043
1629724806789,2043
1629724806793,2043
1629724806797,2042
1629724806801,2042
1629724806805,2041
1629724806809,2041
1629724806813,2041
1629724806817,2042
1629724806821,2042
1629724806825,2043
1629724806829,2044
1629724806833,2044
1629724806837,2043
1629724806841,2043
1629724806845,2042
1629724806849,2042
1629724806853,2042
1629724806857,2042
1629724806861,2043
1629724806865,2043
1629724806869,2042
1629724806873,2042
1629724806877,2043
1629724806881,2043
1629724806885,2044
1629724806889,2044
1629724806893,2044
1629724806897,2044
1629724806901,2044
1629724806905,2044
1629724806909,2045
1629724806913,2044
1629724806917,2043
1629724806921,2043
1629724806925,2043
1629724806929,2045
1629724806933,2048
1629724806937,2049
1629724806941,2051
1629724806945,2051
1629724806949,2051
1629724806953,2050
1629724806957,2049
1629724806961,2048
1629724806965,2048
1629724806969,2048
1629724806973,2047
1629724806977,2045
1629724806981,2044
1629724806985,2043
1629724806989,2043
1629724806993,2043
1629724806997,2043
1629724807001,2043
1629724807005,2043
1629724807009,2043
1629724807013,2043
1629724807017,2043
1629724807021,2044
1629724807025,2044
1629724807029,2045
1629724807033,2044
1629724807037,2044
1629724807041,2044
1629724807045,2045
1629724807049,2045
1629724807053,2044
1629724807057,2042
1629724807061,2042
1629724807065,2047
1629724807069,2057
1629724807073,2071
1629724807077,2087
1629724807081,2107
1629724807085,2134
1629724807089,2163
1629724807093,2181
1629724807097,2178
1629724807101,2146
1629724807105,2094
1629724807109,2042
1629724807113,2010
1629724807117,2005
1629724807121,2019
1629724807125,2040
1629724807129,2053
1629724807133,2056
1629724807137,2053
1629724807141,2051
1629724807145,2050
1629724807149,2049
1629724807153,2049
1629724807157,2050
1629724807161,2051
1629724807165,2051
1629724807169,2052
1629724807173,2052
1629724807177,2052
1629724807181,2053
1629724807185,2054
1629724807189,2054
1629724807193,2054
1629724807197,2054
1629724807201,2054
1629724807205,2054
1629724807209,2055
1629724807213,2056
1629724807217,2058
1629724807221,2059
1629724807225,2060
1629724807229,2061
1629724807233,2061
1629724807237,2061
1629724807241,2061
1629724807245,2063
1629724807249,2064
1629724807253,2067
1629724807257,2069
1629724807261,2070
1629724807265,2071
1629724807269,2072
1629724807273,2073
1629724807277,2075
1629724807281,2077
1629724807285,2080
1629724807289,2082
1629724807293,2086
1629724807297,2089
1629724807301,2092
1629724807305,2096
1629724807309,2100
1629724807313,2103
1629724807317,2106
1629724807321,2108
1629724807325,2111
1629724807329,2113
1629724807333,2116
1629724807337,2119
1629724807341,2120
1629724807345,2122
1629724807349,2122
1629724807353,2121
1629724807357,2118
1629724807361,2114
1629724807365,2108
1629724807369,2101
1629724807373,2093
1629724807377,2086
1629724807381,2079
1629724807385,2072
1629724807389,2066
1629724807393,2060
1629724807397,2055
1629724807401,2050
1629724807405,2046
1629724807409,2042
1629724807413,2040
1629724807417,2038
1629724807421,2037
1629724807425,2037
1629724807429,2035
1629724807433,2034
1629724807437,2033
1629724807441,2032
1629724807445,2032
1629724807449,2032
1629724807453,2032
1629724807457,2032
1629724807461,2032
1629724807465,2032
1629724807469,2032
1629724807473,2033
1629724807477,2033
1629724807481,2034
1629724807485,2033
1629724807489,2033
1629724807493,2032
1629724807497,2032
1629724807501,2033
1629724807505,2034
1629724807509,2035
1629724807513,2035
1629724807517,2035
1629724807521,2035
1629724807525,2035
1629724807529,2035
1629724807533,2035
1629724807537,2035
1629724807541,2035
1629724807545,2036
1629724807549,2037
1629724807553,2037
1629724807557,2037
1629724807561,2037
1629724807565,2037
1629724807569,2036
1629724807573,2036
1629724807577,2037
1629724807581,2037
1629724807585,2037
1629724807589,2038
1629724807593,2038
1629724807597,2039
1629724807601,2038
1629724807605,2038
1629724807609,2038
1629724807613,2038
1629724807617,2038
1629724807621,2038
1629724807625,2039
1629724807629,2039
1629724807633,2039
1629724807637,2038
1629724807641,2038
1629724807645,2039
1629724807649,2039
1629724807653,2039
1629724807657,2039
1629724807661,2039
1629724807665,2039
1629724807669,2039
1629724807673,2039
1629724807677,2040
1629724807681,2040
1629724807685,2039
1629724807689,2039
1629724807693,2039
1629724807697,2040
1629724807701,2041
1629724807705,2042
1629724807709,2042
1629724807713,2041
1629724807717,2041
1629724807721,2041
1629724807725,2041
1629724807729,2041
1629724807733,2041
1629724807737,2041
1629724807741,2041
1629724807745,2041
1629724807749,2042
1629724807753,2042
1629724807757,2041
1629724807761,2041
1629724807765,2042
1629724807769,2042
1629724807773,2043
1629724807777,2043
1629724807781,2043
1629724807785,2043
1629724807789,2043
1629724807793,2043
1629724807797,2043
1629724807801,2043
1629724807805,2043
1629724807809,2043
1629724807813,2043
1629724807817,2044
1629724807821,2045
1629724807825,2045
1629724807829,2045
1629724807833,2045
1629724807837,2045
1629724807841,2045
1629724807845,2045
1629724807849,2044
1629724807853,2044
1629724807857,2044
1629724807861,2045
1629724807865,2047
1629724807869,2050
1629724807873,2053
1629724807877,2054
1629724807881,2054
1629724807885,2052
1629724807889,2050
1629724807893,2049
1629724807897,2049
1629724807901,2050
1629724807905,2051
1629724807909,2050
1629724807913,2049
1629724807917,2048
1629724807921,2046
1629724807925,2045
1629724807929,2044
1629724807933,2044
1629724807937,2044
1629724807941,2045
1629724807945,2045
1629724807949,2045
1629724807953,2045
1629724807957,2045
1629724807961,2045
1629724807965,2045
1629724807969,2045
1629724807973,2045
1629724807977,2046
1629724807981,2046
1629724807985,2047
1629724807989,2048
1629724807993,2047
1629724807997,2045
1629724808001,2043
1629724808005,2044
1629724808009,2049
1629724808013,2061
1629724808017,2075
1629724808021,2090
1629724808025,2111
1629724808029,2137
1629724808033,2162
1629724808037,2174
1629724808041,2162
1629724808045,2125
1629724808049,2073
1629724808053,2030
1629724808057,2008
1629724808061,2012
1629724808065,2031
1629724808069,2049
1629724808073,2059
1629724808077,2057
1629724808081,2053
1629724808085,2051
1629724808089,2050
1629724808093,2050
1629724808097,2051
1629724808101,2052
1629724808105,2053
1629724808109,2054
1629724808113,2054
1629724808117,2053
1629724808121,2053
1629724808125,2053
1629724808129,2054
1629724808133,2054
1629724808137,2055
1629724808141,2056
1629724808145,2057
1629724808149,2057
1629724808153,2058
1629724808157,2058
1629724808161,2058
1629724808165,2058
1629724808169,2059
1629724808173,2060
1629724808177,2061
1629724808181,2062
1629724808185,2063
1629724808189,2064
1629724808193,2065
1629724808197,2066
1629724808201,2068
1629724808205,2069
1629724808209,2070
1629724808213,2072
1629724808217,2074
1629724808221,2076
1629724808225,2079
1629724808229,2081
1629724808233,2084
1629724808237,2087
1629724808241,2089
1629724808245,2092
1629724808249,2095
1629724808253,2098
1629724808257,2102
1629724808261,2105
1629724808265,2109
1629724808269,2111
1629724808273,2113
1629724808277,2115
1629724808281,2117
1629724808285,2119
1629724808289,2120
1629724808293,2120
1629724808297,2119
1629724808301,2117
1629724808305,2113
1629724808309,2107
1629724808313,2100
1629724808317,2093
1629724808321,2085
1629724808325,2077
1629724808329,2071
1629724808333,2065
1629724808337,2060
1629724808341,2055
1629724808345,2051
1629724808349,2048
1629724808353,2045
1629724808357,2042
1629724808361,2039
1629724808365,2037
1629724808369,2036
1629724808373,2036
1629724808377,2035
1629724808381,2035
1629724808385,2034
1629724808389,2034
1629724808393,2034
1629724808397,2033
1629724808401,2033
1629724808405,2033
1629724808409,2033
1629724808413,2033
1629724808417,2033
1629724808421,2034
1629724808425,2034
1629724808429,2034
1629724808433,2033
1629724808437,2033
1629724808441,2033
1629724808445,2033
1629724808449,2033
1629724808453,2033
1629724808457,2033
1629724808461,2034
1629724808465,2034
1629724808469,2034
1629724808473,2034
1629724808477,2034
1629724808481,2034
1629724808485,2034
1629724808489,2033
1629724808493,2033
1629724808497,2034
1629724808501,2035
1629724808505,2036
1629724808509,2036
1629724808513,2035
1629724808517,2035
1629724808521,2035
1629724808525,2034
1629724808529,2035
1629724808533,2035
1629724808537,2035
1629724808541,2036
1629724808545,2036
1629724808549,2036
1629724808553,2036
1629724808557,2035
1629724808561,2035
1629724808565,2035
1629724808569,2035
1629724808573,2035
1629724808577,2035
1629724808581,2036
1629724808585,2036
1629724808589,2036
1629724808593,2036
1629724808597,2036
1629724808601,2036
1629724808605,2035
1629724808609,2035
1629724808613,2035
1629724808617,2036
1629724808621,2036
1629724808625,2037
1629724808629,2037
1629724808633,2037
1629724808637,2037
1629724808641,2036
1629724808645,2036
1629724808649,2036
1629724808653,2036
1629724808657,2037
1629724808661,2038
1629724808665,2038
1629724808669,2038
1629724808673,2038
1629724808677,2037
1629724808681,2037
1629724808685,2037
1629724808689,2038
1629724808693,2038
1629724808697,2038
1629724808701,2038
1629724808705,2038
1629724808709,2038
1629724808713,2039
1629724808717,2039
1629724808721,2038
1629724808725,2038
1629724808729,2039
1629724808733,2039
1629724808737,2040
1629724808741,2040
1629724808745,2040
1629724808749,2040
1629724808753,2040
1629724808757,2040
1629724808761,2040
1629724808765,2040
1629724808769,2040
1629724808773,2040
1629724808777,2041
1629724808781,2041
1629724808785,2041
1629724808789,2041
1629724808793,2041
1629724808797,2041
1629724808801,2041
1629724808805,2041
1629724808809,2041
1629724808813,2041
1629724808817,2042
1629724808821,2042
1629724808825,2042
1629724808829,2041
1629724808833,2041
1629724808837,2041
1629724808841,2042
1629724808845,2044
1629724808849,2048
1629724808853,2050
1629724808857,2051
1629724808861,2051
1629724808865,2050
1629724808869,2049
1629724808873,2048
1629724808877,2048
1629724808881,2048
1629724808885,2047
1629724808889,2047
1629724808893,2046
1629724808897,2045
1629724808901,2044
1629724808905,2043
1629724808909,2042
1629724808913,2041
1629724808917,2041
1629724808921,2041
1629724808925,2041
1629724808929,2041
1629724808933,2041
1629724808937,2042
1629724808941,2042
1629724808945,2043
1629724808949,2042
1629724808953,2042
1629724808957,2042
1629724808961,2042
1629724808965,2043
1629724808969,2043
1629724808973,2043
1629724808977,2042
1629724808981,2041
1629724808985,2042
1629724808989,2048
1629724808993,2058
1629724808997,2071
1629724809001,2083
1629724809005,2102
1629724809009,2125
1629724809013,2148
1629724809017,2159
1629724809021,2148
1629724809025,2113
1629724809029,2065
1629724809033,2025
1629724809037,2007
1629724809041,2011
1629724809045,2029
1629724809049,2047
1629724809053,2055
1629724809057,2053
1629724809061,2049
1629724809065,2048
1629724809069,2048
1629724809073,2048
1629724809077,2048
1629724809081,2048
1629724809085,2049
1629724809089,2049
1629724809093,2050
1629724809097,2051
1629724809101,2052
1629724809105,2053
1629724809109,2053
1629724809113,2053
1629724809117,2052
1629724809121,2052
1629724809125,2053
1629724809129,2054
1629724809133,2055
1629724809137,2056
1629724809141,2057
1629724809145,2057
1629724809149,2058
1629724809153,2059
1629724809157,2059
1629724809161,2060
1629724809165,2060
1629724809169,2062
1629724809173,2063
1629724809177,2065
1629724809181,2066
1629724809185,2068
1629724809189,2070
1629724809193,2071
1629724809197,2073
1629724809201,2074
1629724809205,2076
1629724809209,2078
1629724809213,2080
1629724809217,2083
1629724809221,2086
1629724809225,2090
1629724809229,2093
1629724809233,2096
1629724809237,2099
1629724809241,2101
1629724809245,2104
1629724809249,2106
1629724809253,2109
1629724809257,2112
1629724809261,2114
1629724809265,2116
1629724809269,2117
1629724809273,2117
1629724809277,2116
1629724809281,2114
1629724809285,2110
1629724809289,2105
1629724809293,2100
1629724809297,2093
1629724809301,2087
1629724809305,2080
1629724809309,2073
1629724809313,2067
1629724809317,2061
1629724809321,2056
1629724809325,2051
1629724809329,2048
1629724809333,2045
1629724809337,2043
1629724809341,2041
1629724809345,2039
1629724809349,2038
1629724809353,2037
1629724809357,2035
1629724809361,2034
1629724809365,2033
1629724809369,2033
1629724809373,2034
1629724809377,2034
1629724809381,2034
1629724809385,2034
1629724809389,2034
1629724809393,2034
1629724809397,2034
1629724809401,2034
1629724809405,2033
1629724809409,2033
1629724809413,2034
1629724809417,2034
1629724809421,2035
1629724809425,2035
1629724809429,2035
1629724809433,2035
1629724809437,2035
1629724809441,2034
1629724809445,2034
1629724809449,2034
1629724809453,2035
1629724809457,2035
1629724809461,2036
1629724809465,2036
1629724809469,2036
1629724809473,2036
1629724809477,2036
1629724809481,2036
1629724809485,2036
1629724809489,2035
1629724809493,2035
1629724809497,2035
1629724809501,2036
1629724809505,2037
1629724809509,2037
1629724809513,2037
1629724809517,2037
1629724809521,2037
1629724809525,2037
1629724809529,2037
1629724809533,2037
1629724809537,2037
1629724809541,2038
1629724809545,2038
1629724809549,2038
1629724809553,2038
1629724809557,2038
1629724809561,2037
1629724809565,2037
1629724809569,2037
1629724809573,2037
1629724809577,2038
1629724809581,2038
1629724809585,2038
1629724809589,2039
1629724809593,2039
1629724809597,2039
1629724809601,2038
1629724809605,2038
1629724809609,2038
1629724809613,2038
1629724809617,2038
1629724809621,2039
1629724809625,2039
1629724809629,2040
1629724809633,2040
1629724809637,2040
1629724809641,2039
1629724809645,2039
1629724809649,2039
1629724809653,2039
1629724809657,2039
1629724809661,2040
1629724809665,2040
1629724809669,2040
1629724809673,2041
1629724809677,2041
1629724809681,2040
1629724809685,2040
1629724809689,2041
1629724809693,2041
1629724809697,2041
1629724809701,2041
1629724809705,2042
1629724809709,2042
1629724809713,2042
1629724809717,2042
1629724809721,2042
1629724809725,2042
1629724809729,2042
1629724809733,2042
1629724809737,2043
1629724809741,2043
1629724809745,2043
1629724809749,2043
1629724809753,2043
1629724809757,2043
1629724809761,2043
1629724809765,2043
1629724809769,2043
1629724809773,2043
1629724809777,2044
1629724809781,2044
1629724809785,2044
1629724809789,2044
1629724809793,2044
1629724809797,2044
1629724809801,2043
1629724809805,2043
1629724809809,2044
1629724809813,2044
1629724809817,2045
1629724809821,2045
1629724809825,2045
1629724809829,2045
1629724809833,2044
1629724809837,2044
1629724809841,2046
1629724809845,2048
1629724809849,2051
1629724809853,2053
1629724809857,2054
1629724809861,2054
1629724809865,2053
1629724809869,2051
1629724809873,2050
1629724809877,2050
1629724809881,2049
1629724809885,2049
1629724809889,2048
1629724809893,2048
1629724809897,2047
1629724809901,2046
1629724809905,2045
1629724809909,2045
1629724809913,2044
1629724809917,2044
1629724809921,2044
1629724809925,2044
1629724809929,2044
1629724809933,2044
1629724809937,2044
1629724809941,2044
1629724809945,2045
1629724809949,2045
1629724809953,2046
1629724809957,2046
1629724809961,2046
1629724809965,2046
1629724809969,2046
1629724809973,2045
1629724809977,2044
1629724809981,2043
1629724809985,2046
1629724809989,2053
1629724809993,2065
1629724809997,2078
1629724810001,2092
1629724810005,2113
1629724810009,2136
1629724810013,2154
1629724810017,2156
1629724810021,2135
1629724810025,2094
1629724810029,2048
1629724810033,2016
1629724810037,2008
1629724810041,2019
1629724810045,2038
1629724810049,2052
1629724810053,2057
1629724810057,2053
1629724810061,2051
1629724810065,2051
1629724810069,2051
1629724810073,2051
1629724810077,2051
1629724810081,2051
1629724810085,2051
1629724810089,2051
1629724810093,2052
1629724810097,2053
1629724810101,2054
1629724810105,2055
1629724810109,2055
1629724810113,2055
1629724810117,2055
1629724810121,2055
1629724810125,2056
1629724810129,2057
1629724810133,2058
1629724810137,2059
1629724810141,2059
1629724810145,2060
1629724810149,2061
1629724810153,2061
1629724810157,2062
1629724810161,2063
1629724810165,2063
1629724810169,2064
1629724810173,2065
1629724810177,2066
1629724810181,2068
1629724810185,2070
1629724810189,2072
1629724810193,2073
1629724810197,2075
1629724810201,2076
1629724810205,2078
1629724810209,2080
1629724810213,2082
1629724810217,2085
1629724810221,2089
1629724810225,2092
1629724810229,2096
1629724810233,2098
1629724810237,2101
1629724810241,2103
1629724810245,2106
1629724810249,2108
1629724810253,2110
1629724810257,2113
1629724810261,2115
1629724810265,2117
1629724810269,2118
1629724810273,2119
1629724810277,2118
1629724810281,2115
1629724810285,2112
1629724810289,2106
1629724810293,2101
1629724810297,2094
1629724810301,2088
1629724810305,2082
1629724810309,2075
1629724810313,2070
1629724810317,2064
1629724810321,2059
1629724810325,2055
1629724810329,2051
1629724810333,2049
1629724810337,2047
1629724810341,2046
1629724810345,2044
1629724810349,2042
1629724810353,2041
1629724810357,2040
1629724810361,2040
1629724810365,2039
1629724810369,2039
1629724810373,2039
1629724810377,2039
1629724810381,2039
1629724810385,2039
1629724810389,2039
1629724810393,2038
1629724810397,2038
1629724810401,2038
1629724810405,2038
1629724810409,2039
1629724810413,2039
1629724810417,2039
1629724810421,2040
1629724810425,2040
1629724810429,2040
1629724810433,2040
1629724810437,2041
1629724810441,2041
1629724810445,2041
1629724810449,2041
1629724810453,2041
1629724810457,2041
1629724810461,2042
1629724810465,2042
1629724810469,2042
1629724810473,2043
1629724810477,2043
1629724810481,2043
1629724810485,2042
1629724810489,2042
1629724810493,2043
1629724810497,2044
1629724810501,2044
1629724810505,2045
1629724810509,2044
1629724810513,2043
1629724810517,2043
1629724810521,2043
1629724810525,2043
1629724810529,2044
1629724810533,2044
1629724810537,2044
1629724810541,2044
1629724810545,2044
1629724810549,2044
1629724810553,2044
1629724810557,2044
1629724810561,2044
1629724810565,2044
1629724810569,2044
1629724810573,2044
1629724810577,2044
1629724810581,2045
1629724810585,2045
1629724810589,2045
1629724810593,2046
1629724810597,2046
1629724810601,2046
1629724810605,2045
1629724810609,2045
1629724810613,2045
1629724810617,2046
1629724810621,2046
1629724810625,2046
1629724810629,2046
1629724810633,2046
1629724810637,2047
1629724810641,2047
1629724810645,2046
1629724810649,2046
1629724810653,2046
1629724810657,2046
1629724810661,2047
1629724810665,2047
1629724810669,2048
1629724810673,2048
1629724810677,2048
1629724810681,2048
1629724810685,2048
1629724810689,2048
1629724810693,2048
1629724810697,2048
1629724810701,2048
1629724810705,2049
1629724810709,2049
1629724810713,2049
1629724810717,2049
1629724810721,2048
1629724810725,2048
1629724810729,2048
1629724810733,2048
1629724810737,2048
1629724810741,2048
1629724810745,2049
1629724810749,2049
1629724810753,2050
1629724810757,2050
1629724810761,2050
1629724810765,2050
1629724810769,2050
1629724810773,2050
1629724810777,2051
1629724810781,2051
1629724810785,2051
1629724810789,2052
1629724810793,2052
1629724810797,2052
1629724810801,2052
1629724810805,2052
1629724810809,2051
1629724810813,2051
1629724810817,2051
1629724810821,2051
1629724810825,2054
1629724810829,2057
1629724810833,2060
1629724810837,2063
1629724810841,2063
1629724810845,2062
1629724810849,2060
1629724810853,2058
1629724810857,2057
1629724810861,2057
1629724810865,2058
1629724810869,2058
1629724810873,2057
1629724810877,2056
1629724810881,2053
1629724810885,2051
1629724810889,2050
1629724810893,2051
1629724810897,2052
1629724810901,2053
1629724810905,2054
1629724810909,2053
1629724810913,2052
1629724810917,2051
1629724810921,2051
1629724810925,2051
1629724810929,2051
1629724810933,2052
1629724810937,2053
1629724810941,2054
1629724810945,2054
1629724810949,2055
1629724810953,2054
1629724810957,2053
1629724810961,2052
1629724810965,2052
1629724810969,2056
1629724810973,2066
1629724810977,2082
1629724810981,2098
1629724810985,2120
1629724810989,2146
1629724810993,2170
1629724810997,2182
1629724811001,2172
1629724811005,2136
1629724811009,2086
1629724811013,2041
1629724811017,2016
1629724811021,2015
1629724811025,2032
1629724811029,2050
1629724811033,2063
1629724811037,2063
1629724811041,2061
1629724811045,2059
1629724811049,2058
1629724811053,2058
1629724811057,2059
1629724811061,2060
1629724811065,2061
1629724811069,2062
1629724811073,2062
1629724811077,2062
1629724811081,2063
1629724811085,2063
1629724811089,2063
1629724811093,2064
1629724811097,2065
1629724811101,2066
1629724811105,2067
1629724811109,2067
1629724811113,2067
1629724811117,2066
1629724811121,2067
1629724811125,2067
1629724811129,2068
1629724811133,2069
1629724811137,2071
1629724811141,2072
1629724811145,2073
1629724811149,2074
1629724811153,2075
1629724811157,2076
1629724811161,2076
1629724811165,2077
1629724811169,2078
1629724811173,2080
1629724811177,2082
1629724811181,2085
1629724811185,2087
1629724811189,2089
1629724811193,2091
1629724811197,2094
1629724811201,2096
1629724811205,2098
1629724811209,2101
1629724811213,2104
1629724811217,2108
1629724811221,2111
1629724811225,2115
1629724811229,2117
1629724811233,2119
1629724811237,2121
1629724811241,2123
1629724811245,2125
1629724811249,2127
1629724811253,2128
1629724811257,2128
1629724811261,2127
1629724811265,2123
1629724811269,2119
1629724811273,2114
1629724811277,2108
1629724811281,2101
1629724811285,2094
1629724811289,2088
1629724811293,2081
1629724811297,2076
1629724811301,2070
1629724811305,2066
1629724811309,2062
1629724811313,2058
1629724811317,2055
1629724811321,2052
1629724811325,2050
1629724811329,2048
1629724811333,2047
1629724811337,2045
1629724811341,2045
1629724811345,2045
1629724811349,2045
1629724811353,2045
1629724811357,2044
1629724811361,2044
1629724811365,2043
1629724811369,2043
1629724811373,2043
1629724811377,2043
1629724811381,2043
1629724811385,2043
1629724811389,2043
1629724811393,2044
1629724811397,2044
1629724811401,2044
1629724811405,2044
1629724811409,2044
1629724811413,2044
1629724811417,2045
1629724811421,2046
1629724811425,2046
1629724811429,2046
1629724811433,2046
1629724811437,2046
1629724811441,2046
1629724811445,2046
1629724811449,2046
1629724811453,2047
1629724811457,2047
1629724811461,2048
1629724811465,2048
1629724811469,2048
1629724811473,2048
1629724811477,2048
1629724811481,2048
1629724811485,2048
1629724811489,2047
1629724811493,2047
1629724811497,2048
1629724811501,2048
1629724811505,2048
1629724811509,2048
1629724811513,2048
1629724811517,2048
1629724811521,2047
1629724811525,2046
1629724811529,2046
1629724811533,2046
1629724811537,2047
1629724811541,2048
1629724811545,2048
1629724811549,2048
1629724811553,2048
1629724811557,2047
1629724811561,2046
1629724811565,2046
1629724811569,2046
1629724811573,2047
1629724811577,2048
1629724811581,2048
1629724811585,2048
1629724811589,2048
1629724811593,2048
1629724811597,2048
1629724811601,2048
1629724811605,2047
1629724811609,2047
1629724811613,2047
1629724811617,2047
1629724811621,2048
1629724811625,2048
1629724811629,2048
1629724811633,2048
1629724811637,2048
1629724811641,2048
1629724811645,2048
1629724811649,2048
1629724811653,2049
1629724811657,2049
1629724811661,2049
1629724811665,2048
1629724811669,2048
1629724811673,2048
1629724811677,2048
1629724811681,2048
1629724811685,2048
1629724811689,2049
1629724811693,2049
1629724811697,2050
1629724811701,2050
1629724811705,2050
1629724811709,2050
1629724811713,2049
1629724811717,2049
1629724811721,2049
1629724811725,2051
1629724811729,2054
1629724811733,2057
1629724811737,2059
1629724811741,2060
1629724811745,2059
1629724811749,2057
1629724811753,2056
1629724811757,2055
1629724811761,2055
1629724811765,2055
1629724811769,2054
1629724811773,2054
1629724811777,2053
1629724811781,2051
1629724811785,2050
1629724811789,2050
1629724811793,2049
1629724811797,2048
1629724811801,2048
1629724811805,2048
1629724811809,2048
1629724811813,2048
1629724811817,2049
1629724811821,2049
1629724811825,2049
1629724811829,2049
1629724811833,2049
1629724811837,2049
1629724811841,2049
1629724811845,2050
1629724811849,2050
1629724811853,2051
1629724811857,2050
1629724811861,2048
1629724811865,2048
1629724811869,2052
1629724811873,2063
1629724811877,2079
1629724811881,2097
1629724811885,2119
1629724811889,2147
1629724811893,2173
1629724811897,2187
1629724811901,2178
1629724811905,2142
1629724811909,2089
1629724811913,2041
1629724811917,2012
1629724811921,2010
1629724811925,2026
1629724811929,2046
1629724811933,2058
1629724811937,2059
1629724811941,2057
1629724811945,2056
1629724811949,2056
1629724811953,2056
1629724811957,2056
1629724811961,2056
1629724811965,2057
1629724811969,2058
1629724811973,2059
1629724811977,2060
1629724811981,2060
1629724811985,2060
1629724811989,2060
1629724811993,2061
1629724811997,2062
1629724812001,2062
1629724812005,2063
1629724812009,2063
1629724812013,2063
1629724812017,2063
1629724812021,2063
1629724812025,2064
1629724812029,2065
1629724812033,2066
1629724812037,2068
1629724812041,2069
1629724812045,2070
1629724812049,2071
1629724812053,2072
1629724812057,2072
1629724812061,2073
1629724812065,2075
1629724812069,2077
1629724812073,2078
1629724812077,2080
1629724812081,2081
1629724812085,2083
1629724812089,2085
1629724812093,2088
1629724812097,2092
1629724812101,2096
1629724812105,2099
1629724812109,2101
1629724812113,2104
1629724812117,2107
1629724812121,2110
1629724812125,2114
1629724812129,2117
1629724812133,2120
1629724812137,2122
1629724812141,2124
1629724812145,2126
1629724812149,2127
1629724812153,2128
1629724812157,2128
1629724812161,2126
1629724812165,2122
1629724812169,2116
1629724812173,2110
1629724812177,2104
1629724812181,2098
1629724812185,2091
1629724812189,2084
1629724812193,2076
1629724812197,2069
1629724812201,2062
1629724812205,2056
1629724812209,2053
1629724812213,2051
1629724812217,2049
1629724812221,2048
1629724812225,2046
1629724812229,2043
1629724812233,2041
1629724812237,2039
1629724812241,2038
1629724812245,2038
1629724812249,2038
1629724812253,2038
1629724812257,2038
1629724812261,2037
1629724812265,2037
1629724812269,2037
1629724812273,2037
1629724812277,2038
1629724812281,2037
1629724812285,2037
1629724812289,2037
1629724812293,2037
1629724812297,2038
1629724812301,2038
1629724812305,2039
1629724812309,2039
1629724812313,2039
1629724812317,2039
1629724812321,2039
1629724812325,2040
1629724812329,2040
1629724812333,2040
1629724812337,2041
1629724812341,2041
1629724812345,2041
1629724812349,2041
1629724812353,2042
1629724812357,2041
1629724812361,2041
1629724812365,2041
1629724812369,2042
1629724812373,2043
1629724812377,2043
1629724812381,2044
1629724812385,2043
1629724812389,2043
1629724812393,2042
1629724812397,2042
1629724812401,2042
1629724812405,2042
1629724812409,2042
1629724812413,2042
1629724812417,2042
1629724812421,2042
1629724812425,2043
1629724812429,2043
1629724812433,2043
1629724812437,2043
1629724812441,2042
1629724812445,2042
1629724812449,2041
1629724812453,2041
1629724812457,2041
1629724812461,2041
1629724812465,2042
1629724812469,2043
1629724812473,2043
1629724812477,2044
1629724812481,2044
1629724812485,2043
1629724812489,2042
1629724812493,2042
1629724812497,2042
1629724812501,2042
1629724812505,2043
1629724812509,2044
1629724812513,2043
1629724812517,2043
1629724812521,2042
1629724812525,2042
1629724812529,2042
1629724812533,2043
1629724812537,2044
1629724812541,2045
1629724812545,2044
1629724812549,2044
1629724812553,2044
1629724812557,2043
1629724812561,2043
1629724812565,2043
1629724812569,2044
1629724812573,2044
1629724812577,2045
1629724812581,2045
1629724812585,2045
1629724812589,2046
1629724812593,2046
1629724812597,2045
1629724812601,2044
1629724812605,2044
1629724812609,2045
1629724812613,2047
1629724812617,2050
1629724812621,2053
1629724812625,2054
1629724812629,2054
1629724812633,2052
1629724812637,2051
1629724812641,2050
1629724812645,2050
1629724812649,2049
1629724812653,2048
1629724812657,2048
1629724812661,2047
1629724812665,2046
1629724812669,2045
1629724812673,2044
1629724812677,2044
1629724812681,2043
1629724812685,2043
1629724812689,2043
1629724812693,2043
1629724812697,2044
1629724812701,2044
1629724812705,2045
1629724812709,2045
1629724812713,2044
1629724812717,2044
1629724812721,2044
1629724812725,2045
1629724812729,2045
1629724812733,2046
1629724812737,2046
1629724812741,2045
1629724812745,2043
1629724812749,2043
1629724812753,2047
1629724812757,2058
1629724812761,2074
1629724812765,2091
1629724812769,2113
1629724812773,2141
1629724812777,2169
1629724812781,2184
1629724812785,2177
1629724812789,2141
1629724812793,2088
1629724812797,2037
1629724812801,2008
1629724812805,2005
1629724812809,2021
1629724812813,2042
1629724812817,2054
1629724812821,2055
1629724812825,2052
1629724812829,2051
1629724812833,2050
1629724812837,2050
1629724812841,2050
1629724812845,2050
1629724812849,2051
1629724812853,2051
1629724812857,2052
1629724812861,2053
1629724812865,2054
1629724812869,2054
1629724812873,2054
1629724812877,2054
1629724812881,2054
1629724812885,2055
1629724812889,2056
1629724812893,2057
1629724812897,2058
1629724812901,2059
1629724812905,2059
1629724812909,2060
1629724812913,2061
1629724812917,2061
1629724812921,2061
1629724812925,2062
1629724812929,2062
1629724812933,2062
1629724812937,2064
1629724812941,2065
1629724812945,2067
1629724812949,2069
1629724812953,2071
1629724812957,2072
1629724812961,2072
1629724812965,2074
1629724812969,2076
1629724812973,2079
1629724812977,2082
1629724812981,2086
1629724812985,2089
1629724812989,2092
1629724812993,2095
1629724812997,2098
1629724813001,2101
1629724813005,2105
1629724813009,2108
1629724813013,2111
1629724813017,2114
1629724813021,2116
1629724813025,2118
1629724813029,2119
1629724813033,2121
1629724813037,2121
1629724813041,2121
1629724813045,2119
1629724813049,2115
1629724813053,2110
1629724813057,2104
1629724813061,2096
1629724813065,2089
1629724813069,2081
1629724813073,2074
1629724813077,2067
1629724813081,2061
1629724813085,2055
1629724813089,2050
1629724813093,2048
1629724813097,2045
1629724813101,2043
1629724813105,2041
1629724813109,2039
1629724813113,2036
1629724813117,2034
1629724813121,2032
1629724813125,2032
1629724813129,2031
1629724813133,2031
1629724813137,2032
1629724813141,2031
1629724813145,2031
1629724813149,2031
1629724813153,2031
1629724813157,2031
1629724813161,2031
1629724813165,2031
1629724813169,2031
1629724813173,2032
1629724813177,2032
1629724813181,2033
1629724813185,2033
1629724813189,2033
1629724813193,2033
1629724813197,2033
1629724813201,2033
1629724813205,2033
1629724813209,2033
1629724813213,2034
1629724813217,2035
1629724813221,2035
1629724813225,2036
1629724813229,2037
1629724813233,2036
1629724813237,2036
1629724813241,2035
1629724813245,2035
1629724813249,2034
1629724813253,2034
1629724813257,2035
1629724813261,2035
1629724813265,2036
1629724813269,2037
1629724813273,2037
1629724813277,2037
1629724813281,2037
1629724813285,2036
1629724813289,2036
1629724813293,2036
1629724813297,2037
1629724813301,2037
1629724813305,2037
1629724813309,2037
1629724813313,2037
1629724813317,2036
1629724813321,2036
1629724813325,2036
1629724813329,2036
1629724813333,2037
1629724813337,2037
1629724813341,2038
1629724813345,2038
1629724813349,2038
1629724813353,2038
1629724813357,2038
1629724813361,2038
1629724813365,2038
1629724813369,2038
1629724813373,2037
1629724813377,2037
1629724813381,2037
1629724813385,2038
1629724813389,2038
1629724813393,2038
1629724813397,2039
1629724813401,2038
1629724813405,2038
1629724813409,2038
1629724813413,2038
1629724813417,2039
1629724813421,2040
1629724813425,2040
1629724813429,2040
1629724813433,2040
1629724813437,2040
1629724813441,2040
1629724813445,2039
1629724813449,2040
1629724813453,2040
1629724813457,2040
1629724813461,2040
1629724813465,2040
1629724813469,2040
1629724813473,2041
1629724813477,2041
1629724813481,2041
1629724813485,2041
1629724813489,2040
1629724813493,2040
1629724813497,2040
1629724813501,2041
1629724813505,2042
1629724813509,2042
1629724813513,2042
1629724813517,2042
1629724813521,2041
1629724813525,2041
1629724813529,2041
1629724813533,2042
1629724813537,2042
1629724813541,2042
1629724813545,2042
1629724813549,2042
1629724813553,2042
1629724813557,2043
1629724813561,2046
1629724813565,2048
1629724813569,2050
1629724813573,2050
1629724813577,2049
1629724813581,2048
1629724813585,2048
1629724813589,2048
1629724813593,2048
1629724813597,2048
1629724813601,2047
1629724813605,2046
1629724813609,2044
1629724813613,2043
1629724813617,2042
1629724813621,2042
1629724813625,2042
1629724813629,2041
1629724813633,2041
1629724813637,2041
1629724813641,2040
1629724813645,2040
1629724813649,2041
1629724813653,2041
1629724813657,2041
1629724813661,2041
1629724813665,2041
1629724813669,2042
1629724813673,2042
1629724813677,2043
1629724813681,2043
1629724813685,2043
1629724813689,2041
1629724813693,2039
1629724813697,2040
1629724813701,2046
1629724813705,2058
1629724813709,2073
1629724813713,2089
1629724813717,2111
1629724813721,2137
1629724813725,2162
1629724813729,2175
1629724813733,2163
1629724813737,2126
1629724813741,2073
1629724813745,2028
1629724813749,2004
1629724813753,2006
1629724813757,2024
1629724813761,2044
1629724813765,2053
1629724813769,2052
1629724813773,2049
1629724813777,2048
1629724813781,2047
1629724813785,2048
1629724813789,2048
1629724813793,2048
1629724813797,2049
1629724813801,2049
1629724813805,2049
1629724813809,2049
1629724813813,2050
1629724813817,2051
1629724813821,2051
1629724813825,2052
1629724813829,2053
1629724813833,2053
1629724813837,2054
1629724813841,2054
1629724813845,2054
1629724813849,2055
1629724813853,2055
1629724813857,2056
1629724813861,2057
1629724813865,2057
1629724813869,2058
1629724813873,2059
1629724813877,2060
1629724813881,2061
1629724813885,2062
1629724813889,2063
1629724813893,2064
1629724813897,2066
1629724813901,2068
1629724813905,2070
1629724813909,2071
1629724813913,2073
1629724813917,2075
1629724813921,2077
1629724813925,2079
1629724813929,2082
1629724813933,2085
1629724813937,2088
1629724813941,2092
1629724813945,2096
1629724813949,2099
1629724813953,2102
1629724813957,2104
1629724813961,2106
1629724813965,2109
1629724813969,2111
1629724813973,2114
1629724813977,2117
1629724813981,2119
1629724813985,2120
1629724813989,2119
1629724813993,2116
1629724813997,2112
1629724814001,2106
1629724814005,2100
1629724814009,2093
1629724814013,2085
1629724814017,2078
1629724814021,2072
1629724814025,2066
1629724814029,2060
1629724814033,2055
1629724814037,2050
1629724814041,2046
1629724814045,2043
1629724814049,2040
1629724814053,2038
1629724814057,2036
1629724814061,2035
1629724814065,2034
1629724814069,2033
1629724814073,2032
1629724814077,2032
1629724814081,2031
1629724814085,2031
1629724814089,2030
1629724814093,2030
1629724814097,2030
1629724814101,2031
1629724814105,2031
1629724814109,2031
1629724814113,2031
1629724814117,2030
1629724814121,2030
1629724814125,2030
1629724814129,2031
1629724814133,2031
1629724814137,2032
1629724814141,2032
1629724814145,2032
1629724814149,2032
1629724814153,2032
1629724814157,2032
1629724814161,2032
1629724814165,2032
1629724814169,2033
1629724814173,2033
1629724814177,2033
1629724814181,2033
1629724814185,2033
1629724814189,2034
1629724814193,2034
1629724814197,2034
1629724814201,2034
1629724814205,2034
1629724814209,2034
1629724814213,2034
1629724814217,2035
1629724814221,2035
1629724814225,2035
1629724814229,2035
1629724814233,2035
1629724814237,2035
1629724814241,2035
1629724814245,2035
1629724814249,2035
1629724814253,2035
1629724814257,2035
1629724814261,2035
1629724814265,2036
1629724814269,2035
1629724814273,2035
1629724814277,2035
1629724814281,2035
1629724814285,2035
1629724814289,2035
1629724814293,2035
1629724814297,2036
1629724814301,2036
1629724814305,2036
1629724814309,2036
1629724814313,2036
1629724814317,2037
1629724814321,2036
1629724814325,2036
1629724814329,2036
1629724814333,2036
1629724814337,2036
1629724814341,2037
1629724814345,2037
1629724814349,2038
1629724814353,2038
1629724814357,2038
1629724814361,2037
1629724814365,2037
1629724814369,2037
1629724814373,2038
1629724814377,2038
1629724814381,2039
1629724814385,2039
1629724814389,2039
1629724814393,2039
1629724814397,2039
1629724814401,2038
1629724814405,2038
1629724814409,2038
1629724814413,2038
1629724814417,2039
1629724814421,2039
1629724814425,2040
1629724814429,2040
1629724814433,2040
1629724814437,2040
1629724814441,2040
1629724814445,2040
1629724814449,2040
1629724814453,2040
1629724814457,2041
1629724814461,2041
1629724814465,2041
1629724814469,2041
1629724814473,2041
1629724814477,2041
1629724814481,2041
1629724814485,2041
1629724814489,2040
1629724814493,2040
1629724814497,2040
1629724814501,2041
1629724814505,2042
1629724814509,2042
1629724814513,2041
1629724814517,2041
1629724814521,2041
1629724814525,2041
1629724814529,2042
1629724814533,2042
1629724814537,2042
1629724814541,2042
1629724814545,2043
1629724814549,2045
1629724814553,2048
1629724814557,2050
1629724814561,2051
1629724814565,2051
1629724814569,2049
1629724814573,2048
1629724814577,2048
1629724814581,2048
1629724814585,2048
1629724814589,2048
1629724814593,2047
1629724814597,2046
1629724814601,2044
1629724814605,2043
1629724814609,2042
1629724814613,2041
1629724814617,2041
1629724814621,2041
1629724814625,2041
1629724814629,2041
1629724814633,2041
1629724814637,2041
1629724814641,2041
1629724814645,2041
1629724814649,2041
1629724814653,2041
1629724814657,2041
1629724814661,2042
1629724814665,2043
1629724814669,2044
1629724814673,2044
1629724814677,2043
1629724814681,2041
1629724814685,2039
1629724814689,2039
1629724814693,2045
1629724814697,2055
1629724814701,2069
1629724814705,2083
1629724814709,2102
1629724814713,2127
1629724814717,2152
1629724814721,2165
1629724814725,2157
1629724814729,2123
1629724814733,2074
1629724814737,2030
1629724814741,2006
1629724814745,2007
1629724814749,2025
1629724814753,2044
1629724814757,2053
1629724814761,2052
1629724814765,2048
1629724814769,2047
1629724814773,2047
1629724814777,2047
1629724814781,2048
1629724814785,2048
1629724814789,2048
1629724814793,2049
1629724814797,2049
1629724814801,2049
1629724814805,2049
1629724814809,2049
1629724814813,2049
1629724814817,2050
1629724814821,2051
1629724814825,2052
1629724814829,2053
1629724814833,2053
1629724814837,2053
1629724814841,2053
1629724814845,2054
1629724814849,2054
1629724814853,2055
1629724814857,2056
1629724814861,2057
1629724814865,2058
1629724814869,2059
1629724814873,2060
1629724814877,2061
1629724814881,2061
1629724814885,2062
1629724814889,2064
1629724814893,2066
1629724814897,2068
1629724814901,2070
1629724814905,2072
1629724814909,2074
1629724814913,2076
1629724814917,2078
1629724814921,2080
1629724814925,2083
1629724814929,2086
1629724814933,2089
1629724814937,2093
1629724814941,2096
1629724814945,2099
1629724814949,2102
1629724814953,2105
1629724814957,2107
1629724814961,2109
1629724814965,2111
1629724814969,2113
1629724814973,2114
1629724814977,2115
1629724814981,2115
1629724814985,2113
1629724814989,2110
1629724814993,2106
1629724814997,2100
1629724815001,2093
1629724815005,2085
1629724815009,2078
1629724815013,2071
1629724815017,2065
1629724815021,2060
1629724815025,2055
1629724815029,2050
1629724815033,2047
1629724815037,2043
1629724815041,2040
1629724815045,2038
1629724815049,2036
1629724815053,2035
1629724815057,2034
1629724815061,2033
1629724815065,2032
1629724815069,2032
1629724815073,2031
1629724815077,2031
1629724815081,2030
1629724815085,2030
1629724815089,2029
1629724815093,2030
1629724815097,2030
1629724815101,2031
1629724815105,2032
1629724815109,2031
1629724815113,2030
1629724815117,2030
1629724815121,2029
1629724815125,2029
1629724815129,2030
1629724815133,2031
1629724815137,2031
1629724815141,2032
1629724815145,2032
1629724815149,2032
1629724815153,2033
1629724815157,2033
1629724815161,2032
1629724815165,2032
1629724815169,2032
1629724815173,2032
1629724815177,2033
1629724815181,2033
1629724815185,2033
1629724815189,2033
1629724815193,2033
1629724815197,2033
1629724815201,2033
1629724815205,2033
1629724815209,2033
1629724815213,2033
1629724815217,2034
1629724815221,2034
1629724815225,2035
1629724815229,2035
1629724815233,2035
1629724815237,2035
1629724815241,2034
1629724815245,2034
1629724815249,2034
1629724815253,2034
1629724815257,2034
1629724815261,2035
1629724815265,2035
1629724815269,2035
1629724815273,2035
1629724815277,2035
1629724815281,2035
1629724815285,2035
1629724815289,2035
1629724815293,2036
1629724815297,2036
1629724815301,2036
1629724815305,2036
1629724815309,2036
1629724815313,2036
1629724815317,2036
1629724815321,2036
1629724815325,2036
1629724815329,2036
1629724815333,2037
1629724815337,2037
1629724815341,2037
1629724815345,2038
1629724815349,2038
1629724815353,2038
1629724815357,2038
1629724815361,2037
1629724815365,2038
1629724815369,2038
1629724815373,2038
1629724815377,2039
1629724815381,2039
1629724815385,2039
1629724815389,2039
1629724815393,2039
1629724815397,2039
1629724815401,2039
1629724815405,2039
1629724815409,2039
1629724815413,2039
1629724815417,2039
1629724815421,2040
1629724815425,2040
1629724815429,2040
1629724815433,2040
1629724815437,2040
1629724815441,2040
1629724815445,2040
1629724815449,2040
1629724815453,2040
1629724815457,2041
1629724815461,2041
1629724815465,2041
1629724815469,2041
1629724815473,2042
1629724815477,2042
1629724815481,2042
1629724815485,2041
1629724815489,2041
1629724815493,2041
1629724815497,2041
1629724815501,2042
1629724815505,2042
1629724815509,2043
1629724815513,2043
1629724815517,2043
1629724815521,2042
1629724815525,2042
1629724815529,2042
1629724815533,2042
1629724815537,2043
1629724815541,2043
1629724815545,2044
1629724815549,2044
1629724815553,2043
1629724815557,2043
1629724815561,2042
1629724815565,2043
1629724815569,2045
1629724815573,2048
1629724815577,2051
1629724815581,2053
1629724815585,2053
1629724815589,2052
1629724815593,2050
1629724815597,2049
1629724815601,2048
1629724815605,2048
1629724815609,2048
1629724815613,2048
1629724815617,2048
1629724815621,2047
1629724815625,2046
1629724815629,2044
1629724815633,2043
1629724815637,2042
1629724815641,2042
1629724815645,2042
1629724815649,2042
1629724815653,2042
1629724815657,2043
1629724815661,2043
1629724815665,2043
1629724815669,2043
1629724815673,2043
1629724815677,2043
1629724815681,2043
1629724815685,2043
1629724815689,2044
1629724815693,2044
1629724815697,2044
1629724815701,2043
1629724815705,2042
1629724815709,2042
1629724815713,2046
1629724815717,2055
1629724815721,2068
1629724815725,2080
1629724815729,2097
1629724815733,2120
1629724815737,2144
1629724815741,2159
1629724815745,2155
1629724815749,2125
1629724815753,2078
1629724815757,2034
1629724815761,2008
1629724815765,2007
1629724815769,2023
1629724815773,2043
1629724815777,2054
1629724815781,2055
1629724815785,2051
1629724815789,2049
1629724815793,2049
1629724815797,2049
1629724815801,2049
1629724815805,2049
1629724815809,2049
1629724815813,2049
1629724815817,2050
1629724815821,2051
1629724815825,2052
1629724815829,2052
1629724815833,2052
1629724815837,2053
1629724815841,2053
1629724815845,2053
1629724815849,2054
1629724815853,2054
1629724815857,2055
1629724815861,2056
1629724815865,2056
1629724815869,2057
1629724815873,2057
1629724815877,2058
1629724815881,2059
1629724815885,2060
1629724815889,2060
1629724815893,2061
1629724815897,2063
1629724815901,2064
1629724815905,2066
1629724815909,2067
1629724815913,2069
1629724815917,2070
1629724815921,2071
1629724815925,2072
1629724815929,2074
1629724815933,2076
1629724815937,2079
1629724815941,2082
1629724815945,2085
1629724815949,2088
1629724815953,2090
1629724815957,2093
1629724815961,2095
1629724815965,2098
1629724815969,2101
1629724815973,2104
1629724815977,2107
1629724815981,2110
1629724815985,2112
1629724815989,2114
1629724815993,2116
1629724815997,2116
1629724816001,2116
1629724816005,2114
1629724816009,2112
1629724816013,2108
1629724816017,2103
1629724816021,2098
1629724816025,2092
1629724816029,2085
1629724816033,2077
1629724816037,2071
1629724816041,2064
1629724816045,2059
1629724816049,2055
1629724816053,2051
1629724816057,2048
1629724816061,2045
1629724816065,2043
1629724816069,2041
1629724816073,2039
1629724816077,2038
1629724816081,2036
1629724816085,2035
1629724816089,2035
1629724816093,2035
1629724816097,2035
1629724816101,2035
1629724816105,2035
1629724816109,2035
1629724816113,2034
1629724816117,2034
1629724816121,2033
1629724816125,2034
1629724816129,2034
1629724816133,2034
1629724816137,2035
1629724816141,2035
1629724816145,2035
1629724816149,2035
1629724816153,2035
1629724816157,2035
1629724816161,2035
1629724816165,2035
1629724816169,2035
1629724816173,2035
1629724816177,2036
1629724816181,2036
1629724816185,2037
1629724816189,2038
1629724816193,2038
1629724816197,2037
1629724816201,2036
1629724816205,2036
1629724816209,2036
1629724816213,2036
1629724816217,2037
1629724816221,2037
1629724816225,2038
1629724816229,2038
1629724816233,2039
1629724816237,2039
1629724816241,2038
1629724816245,2038
1629724816249,2038
1629724816253,2037
1629724816257,2038
1629724816261,2038
1629724816265,2039
1629724816269,2039
1629724816273,2039
1629724816277,2039
1629724816281,2039
1629724816285,2039
1629724816289,2039
1629724816293,2039
1629724816297,2040
1629724816301,2040
1629724816305,2040
1629724816309,2041
1629724816313,2041
1629724816317,2041
1629724816321,2040
1629724816325,2040
1629724816329,2040
1629724816333,2040
1629724816337,2041
1629724816341,2041
1629724816345,2042
1629724816349,2042
1629724816353,2042
1629724816357,2041
1629724816361,2041
1629724816365,2041
1629724816369,2042
1629724816373,2042
1629724816377,2043
1629724816381,2043
1629724816385,2043
1629724816389,2043
1629724816393,2043
1629724816397,2043
1629724816401,2043
1629724816405,2043
1629724816409,2044
1629724816413,2044
1629724816417,2045
1629724816421,2045
1629724816425,2045
1629724816429,2045
1629724816433,2045
1629724816437,2045
1629724816441,2045
1629724816445,2044
1629724816449,2044
1629724816453,2045
1629724816457,2046
1629724816461,2047
1629724816465,2047
1629724816469,2047
1629724816473,2046
1629724816477,2046
1629724816481,2046
1629724816485,2047
1629724816489,2047
1629724816493,2047
1629724816497,2047
1629724816501,2047
1629724816505,2048
1629724816509,2048
1629724816513,2048
1629724816517,2048
1629724816521,2047
1629724816525,2048
1629724816529,2048
1629724816533,2048
1629724816537,2048
1629724816541,2048
1629724816545,2049
1629724816549,2049
1629724816553,2049
1629724816557,2048
1629724816561,2048
1629724816565,2048
1629724816569,2048
1629724816573,2048
1629724816577,2048
1629724816581,2048
1629724816585,2050
1629724816589,2054
1629724816593,2057
1629724816597,2059
1629724816601,2060
1629724816605,2059
1629724816609,2057
1629724816613,2056
1629724816617,2056
1629724816621,2056
1629724816625,2056
1629724816629,2055
1629724816633,2055
1629724816637,2053
1629724816641,2051
1629724816645,2050
1629724816649,2049
1629724816653,2049
1629724816657,2049
1629724816661,2050
1629724816665,2050
1629724816669,2050
1629724816673,2049
1629724816677,2049
1629724816681,2049
1629724816685,2049
1629724816689,2049
1629724816693,2049
1629724816697,2049
1629724816701,2050
1629724816705,2052
1629724816709,2053
1629724816713,2052
1629724816717,2051
1629724816721,2049
1629724816725,2048
1629724816729,2051
1629724816733,2062
1629724816737,2077
1629724816741,2092
1629724816745,2112
1629724816749,2138
1629724816753,2163
1629724816757,2177
1629724816761,2170
1629724816765,2137
1629724816769,2088
1629724816773,2042
1629724816777,2014
1629724816781,2012
1629724816785,2028
1629724816789,2047
1629724816793,2060
1629724816797,2061
1629724816801,2059
1629724816805,2057
1629724816809,2057
1629724816813,2057
1629724816817,2057
1629724816821,2057
1629724816825,2058
1629724816829,2058
1629724816833,2059
1629724816837,2059
1629724816841,2060
1629724816845,2060
1629724816849,2060
1629724816853,2061
1629724816857,2061
1629724816861,2062
1629724816865,2063
1629724816869,2063
1629724816873,2064
1629724816877,2064
1629724816881,2065
1629724816885,2065
1629724816889,2066
1629724816893,2067
1629724816897,2068
1629724816901,2069
1629724816905,2070
1629724816909,2071
1629724816913,2072
1629724816917,2072
1629724816921,2073
1629724816925,2074
1629724816929,2076
1629724816933,2077
1629724816937,2079
1629724816941,2081
1629724816945,2083
1629724816949,2085
1629724816953,2087
1629724816957,2090
1629724816961,2093
1629724816965,2096
1629724816969,2098
1629724816973,2101
1629724816977,2105
1629724816981,2108
1629724816985,2112
1629724816989,2115
1629724816993,2117
1629724816997,2119
1629724817001,2121
1629724817005,2122
1629724817009,2124
1629724817013,2125
1629724817017,2126
1629724817021,2126
1629724817025,2124
1629724817029,2120
1629724817033,2115
1629724817037,2108
1629724817041,2102
1629724817045,2095
1629724817049,2088
1629724817053,2082
1629724817057,2076
1629724817061,2070
1629724817065,2065
1629724817069,2061
1629724817073,2057
1629724817077,2054
1629724817081,2051
1629724817085,2049
1629724817089,2048
1629724817093,2046
1629724817097,2045
1629724817101,2044
1629724817105,2044
1629724817109,2043
1629724817113,2042
1629724817117,2041
1629724817121,2040
1629724817125,2040
1629724817129,2041
1629724817133,2041
1629724817137,2042
1629724817141,2043
1629724817145,2043
1629724817149,2043
1629724817153,2043
1629724817157,2043
1629724817161,2042
1629724817165,2042
1629724817169,2042
1629724817173,2043
1629724817177,2044
1629724817181,2045
1629724817185,2045
1629724817189,2046
1629724817193,2045
1629724817197,2045
1629724817201,2044
1629724817205,2044
1629724817209,2044
1629724817213,2044
1629724817217,2045
1629724817221,2046
1629724817225,2047
1629724817229,2047
1629724817233,2047
1629724817237,2047
1629724817241,2046
1629724817245,2046
1629724817249,2046
1629724817253,2046
1629724817257,2047
1629724817261,2047
1629724817265,2047
1629724817269,2046
1629724817273,2046
1629724817277,2046
1629724817281,2046
1629724817285,2046
1629724817289,2046
1629724817293,2046
1629724817297,2047
1629724817301,2046
1629724817305,2047
1629724817309,2046
1629724817313,2047
1629724817317,2046
1629724817321,2046
1629724817325,2047
1629724817329,2047
1629724817333,2048
1629724817337,2048
1629724817341,2048
1629724817345,2047
1629724817349,2047
1629724817353,2047
1629724817357,2047
1629724817361,2046
1629724817365,2046
1629724817369,2046
1629724817373,2047
1629724817377,2047
1629724817381,2048
1629724817385,2048
1629724817389,2048
1629724817393,2048
1629724817397,2048
1629724817401,2048
1629724817405,2048
1629724817409,2048
1629724817413,2048
1629724817417,2048
1629724817421,2048
1629724817425,2048
1629724817429,2048
1629724817433,2048
1629724817437,2048
1629724817441,2048
1629724817445,2048
1629724817449,2048
1629724817453,2048
1629724817457,2048
1629724817461,2048
1629724817465,2048
1629724817469,2049
1629724817473,2049
1629724817477,2050
1629724817481,2050
1629724817485,2049
1629724817489,2049
1629724817493,2048
1629724817497,2048
1629724817501,2049
1629724817505,2050
1629724817509,2051
1629724817513,2051
1629724817517,2051
1629724817521,2050
1629724817525,2050
1629724817529,2050
1629724817533,2051
1629724817537,2052
1629724817541,2055
1629724817545,2057
1629724817549,2059
1629724817553,2060
1629724817557,2060
1629724817561,2058
1629724817565,2057
1629724817569,2057
1629724817573,2057
1629724817577,2057
1629724817581,2056
1629724817585,2055
1629724817589,2054
1629724817593,2052
1629724817597,2051
1629724817601,2050
1629724817605,2049
1629724817609,2049
1629724817613,2049
1629724817617,2050
1629724817621,2050
1629724817625,2051
1629724817629,2051
1629724817633,2051
1629724817637,2051
1629724817641,2050
1629724817645,2050
1629724817649,2050
1629724817653,2050
1629724817657,2052
1629724817661,2053
1629724817665,2054
1629724817669,2053
1629724817673,2051
1629724817677,2049
1629724817681,2051
1629724817685,2061
1629724817689,2077
1629724817693,2095
1629724817697,2117
1629724817701,2145
1629724817705,2171
1629724817709,2187
1629724817713,2181
1629724817717,2148
1629724817721,2096
1629724817725,2045
1629724817729,2013
1629724817733,2008
1629724817737,2024
1629724817741,2045
1629724817745,2059
1629724817749,2062
1629724817753,2059
1629724817757,2057
1629724817761,2056
1629724817765,2056
1629724817769,2056
1629724817773,2057
1629724817777,2058
1629724817781,2058
1629724817785,2059
1629724817789,2059
1629724817793,2060
1629724817797,2061
1629724817801,2061
1629724817805,2061
1629724817809,2060
1629724817813,2061
1629724817817,2061
1629724817821,2062
1629724817825,2064
1629724817829,2065
1629724817833,2065
1629724817837,2065
1629724817841,2065
1629724817845,2066
1629724817849,2066
1629724817853,2067
1629724817857,2068
1629724817861,2069
1629724817865,2071
1629724817869,2073
1629724817873,2074
1629724817877,2076
1629724817881,2077
1629724817885,2078
1629724817889,2079
1629724817893,2081
1629724817897,2083
1629724817901,2086
1629724817905,2088
1629724817909,2091
1629724817913,2094
1629724817917,2096
1629724817921,2099
1629724817925,2102
1629724817929,2106
1629724817933,2109
1629724817937,2113
1629724817941,2116
1629724817945,2118
1629724817949,2120
1629724817953,2122
1629724817957,2124
1629724817961,2126
1629724817965,2127
1629724817969,2127
1629724817973,2126
1629724817977,2124
1629724817981,2121
1629724817985,2116
1629724817989,2109
1629724817993,2102
1629724817997,2093
1629724818001,2085
1629724818005,2078
1629724818009,2072
1629724818013,2066
1629724818017,2061
1629724818021,2057
1629724818025,2053
1629724818029,2050
1629724818033,2048
1629724818037,2046
1629724818041,2044
1629724818045,2042
1629724818049,2040
1629724818053,2039
1629724818057,2039
1629724818061,2038
1629724818065,2038
1629724818069,2038
1629724818073,2038
1629724818077,2037
1629724818081,2037
1629724818085,2037
1629724818089,2036
1629724818093,2036
1629724818097,2037
1629724818101,2038
1629724818105,2039
1629724818109,2039
1629724818113,2039
1629724818117,2038
1629724818121,2037
1629724818125,2038
1629724818129,2038
1629724818133,2039
1629724818137,2040
1629724818141,2041
1629724818145,2040
1629724818149,2040
1629724818153,2039
1629724818157,2040
1629724818161,2040
1629724818165,2041
1629724818169,2041
1629724818173,2041
1629724818177,2042
1629724818181,2042
1629724818185,2042
1629724818189,2043
1629724818193,2042
1629724818197,2042
1629724818201,2041
1629724818205,2040
1629724818209,2040
1629724818213,2041
1629724818217,2042
1629724818221,2042
1629724818225,2042
1629724818229,2041
1629724818233,2040
1629724818237,2040
1629724818241,2040
1629724818245,2041
1629724818249,2042
1629724818253,2042
1629724818257,2043
1629724818261,2043
1629724818265,2042
1629724818269,2041
1629724818273,2041
1629724818277,2041
1629724818281,2041
1629724818285,2041
1629724818289,2041
1629724818293,2041
1629724818297,2040
1629724818301,2041
1629724818305,2041
1629724818309,2042
1629724818313,2043
1629724818317,2043
1629724818321,2042
1629724818325,2042
1629724818329,2042
1629724818333,2042
1629724818337,2043
1629724818341,2044
1629724818345,2044
1629724818349,2043
1629724818353,2043
1629724818357,2042
1629724818361,2042
1629724818365,2042
1629724818369,2042
1629724818373,2043
1629724818377,2043
1629724818381,2043
1629724818385,2044
1629724818389,2044
1629724818393,2044
1629724818397,2044
1629724818401,2043
1629724818405,2043
1629724818409,2043
1629724818413,2044
1629724818417,2045
1629724818421,2045
1629724818425,2045
1629724818429,2045
1629724818433,2045
1629724818437,2047
1629724818441,2049
1629724818445,2052
1629724818449,2054
1629724818453,2054
1629724818457,2053
1629724818461,2052
1629724818465,2051
1629724818469,2050
1629724818473,2050
1629724818477,2050
1629724818481,2048
1629724818485,2048
1629724818489,2045
1629724818493,2044
1629724818497,2044
1629724818501,2045
1629724818505,2045
1629724818509,2045
1629724818513,2045
1629724818517,2044
1629724818521,2044
1629724818525,2043
1629724818529,2043
1629724818533,2043
1629724818537,2044
1629724818541,2045
1629724818545,2046
1629724818549,2046
1629724818553,2046
1629724818557,2046
1629724818561,2046
1629724818565,2046
1629724818569,2044
1629724818573,2042
1629724818577,2044
1629724818581,2052
1629724818585,2068
1629724818589,2085
1629724818593,2105
1629724818597,2131
1629724818601,2159
1629724818605,2181
1629724818609,2185
1629724818613,2162
1629724818617,2115
1629724818621,2060
1629724818625,2019
1629724818629,2004
1629724818633,2013
1629724818637,2033
1629724818641,2049
1629724818645,2056
1629724818649,2054
1629724818653,2052
1629724818657,2051
1629724818661,2050
1629724818665,2050
1629724818669,2050
1629724818673,2051
1629724818677,2052
1629724818681,2053
1629724818685,2054
1629724818689,2054
1629724818693,2054
1629724818697,2055
1629724818701,2056
1629724818705,2056
1629724818709,2057
1629724818713,2057
1629724818717,2057
1629724818721,2057
1629724818725,2058
1629724818729,2059
1629724818733,2060
1629724818737,2061
1629724818741,2062
1629724818745,2063
1629724818749,2064
1629724818753,2065
1629724818757,2065
1629724818761,2065
1629724818765,2066
1629724818769,2067
1629724818773,2069
1629724818777,2071
1629724818781,2072
1629724818785,2074
1629724818789,2077
1629724818793,2079
1629724818797,2082
1629724818801,2084
1629724818805,2086
1629724818809,2088
1629724818813,2092
1629724818817,2096
1629724818821,2100
1629724818825,2104
1629724818829,2107
1629724818833,2109
1629724818837,2111
1629724818841,2114
1629724818845,2116
1629724818849,2119
1629724818853,2121
1629724818857,2124
1629724818861,2126
1629724818865,2126
1629724818869,2126
1629724818873,2123
1629724818877,2118
1629724818881,2111
1629724818885,2104
1629724818889,2096
1629724818893,2089
1629724818897,2082
1629724818901,2075
1629724818905,2069
1629724818909,2063
1629724818913,2058
1629724818917,2053
1629724818921,2048
1629724818925,2045
1629724818929,2042
1629724818933,2040
1629724818937,2038
1629724818941,2038
1629724818945,2037
1629724818949,2036
1629724818953,2034
1629724818957,2033
1629724818961,2033
1629724818965,2032
1629724818969,2032
1629724818973,2033
1629724818977,2033
1629724818981,2033
1629724818985,2034
1629724818989,2034
1629724818993,2033
1629724818997,2032
1629724819001,2032
1629724819005,2032
1629724819009,2032
1629724819013,2033
1629724819017,2034
1629724819021,2035
1629724819025,2035
1629724819029,2035
1629724819033,2035
1629724819037,2035
1629724819041,2036
1629724819045,2036
1629724819049,2036
1629724819053,2036
1629724819057,2037
1629724819061,2037
1629724819065,2037
1629724819069,2037
1629724819073,2037
1629724819077,2037
1629724819081,2037
1629724819085,2036
1629724819089,2036
1629724819093,2037
1629724819097,2038
1629724819101,2039
1629724819105,2039
1629724819109,2039
1629724819113,2039
1629724819117,2038
1629724819121,2038
1629724819125,2038
1629724819129,2038
1629724819133,2038
1629724819137,2038
1629724819141,2038
1629724819145,2039
1629724819149,2039
1629724819153,2039
1629724819157,2039
1629724819161,2039
1629724819165,2039
1629724819169,2039
1629724819173,2039
1629724819177,2039
1629724819181,2039
1629724819185,2039
1629724819189,2039
1629724819193,2038
1629724819197,2038
1629724819201,2038
1629724819205,2039
1629724819209,2039
1629724819213,2040
1629724819217,2041
1629724819221,2041
1629724819225,2041
1629724819229,2040
1629724819233,2040
1629724819237,2040
1629724819241,2039
1629724819245,2039
1629724819249,2040
1629724819253,2040
1629724819257,2041
1629724819261,2041
1629724819265,2041
1629724819269,2041
1629724819273,2042
1629724819277,2041
1629724819281,2040
1629724819285,2040
1629724819289,2040
1629724819293,2041
1629724819297,2041
1629724819301,2042
1629724819305,2042
1629724819309,2042
1629724819313,2043
1629724819317,2043
1629724819321,2042
1629724819325,2042
1629724819329,2042
1629724819333,2043
1629724819337,2045
1629724819341,2048
1629724819345,2050
1629724819349,2052
1629724819353,2052
1629724819357,2051
1629724819361,2048
1629724819365,2048
1629724819369,2047
1629724819373,2048
1629724819377,2048
1629724819381,2048
1629724819385,2048
1629724819389,2046
1629724819393,2044
1629724819397,2042
1629724819401,2041
1629724819405,2040
1629724819409,2041
1629724819413,2041
1629724819417,2042
1629724819421,2042
1629724819425,2042
1629724819429,2042
1629724819433,2042
1629724819437,2042
1629724819441,2042
1629724819445,2041
1629724819449,2041
1629724819453,2042
1629724819457,2044
1629724819461,2045
1629724819465,2044
1629724819469,2042
1629724819473,2040
1629724819477,2043
1629724819481,2050
1629724819485,2063
1629724819489,2079
1629724819493,2096
1629724819497,2122
1629724819501,2151
1629724819505,2175
1629724819509,2181
1629724819513,2160
1629724819517,2113
1629724819521,2058
1629724819525,2017
1629724819529,2001
1629724819533,2010
1629724819537,2030
1629724819541,2048
1629724819545,2055
1629724819549,2052
1629724819553,2049
1629724819557,2048
1629724819561,2047
1629724819565,2047
1629724819569,2048
1629724819573,2048
1629724819577,2049
1629724819581,2050
1629724819585,2050
1629724819589,2051
1629724819593,2052
1629724819597,2052
1629724819601,2052
1629724819605,2052
1629724819609,2053
1629724819613,2053
1629724819617,2054
1629724819621,2055
1629724819625,2056
1629724819629,2056
1629724819633,2057
1629724819637,2057
1629724819641,2057
1629724819645,2058
1629724819649,2059
1629724819653,2060
1629724819657,2061
1629724819661,2063
1629724819665,2064
1629724819669,2065
1629724819673,2066
1629724819677,2067
1629724819681,2068
1629724819685,2070
1629724819689,2072
1629724819693,2074
1629724819697,2076
1629724819701,2079
1629724819705,2082
1629724819709,2085
1629724819713,2087
1629724819717,2090
1629724819721,2093
1629724819725,2097
1629724819729,2101
1629724819733,2105
1629724819737,2109
1629724819741,2112
1629724819745,2115
1629724819749,2117
1629724819753,2119
1629724819757,2121
1629724819761,2121
1629724819765,2121
1629724819769,2120
1629724819773,2117
1629724819777,2113
1629724819781,2108
1629724819785,2101
1629724819789,2094
1629724819793,2085
1629724819797,2077
1629724819801,2070
1629724819805,2063
1629724819809,2057
1629724819813,2052
1629724819817,2048
1629724819821,2045
1629724819825,2042
1629724819829,2039
1629724819833,2037
1629724819837,2035
1629724819841,2034
1629724819845,2032
1629724819849,2032
1629724819853,2032
1629724819857,2032
1629724819861,2032
1629724819865,2032
1629724819869,2031
1629724819873,2031
1629724819877,2030
1629724819881,2030
1629724819885,2030
1629724819889,2030
1629724819893,2030
1629724819897,2031
1629724819901,2031
1629724819905,2032
1629724819909,2032
1629724819913,2032
1629724819917,2032
1629724819921,2031
1629724819925,2031
1629724819929,2031
1629724819933,2031
1629724819937,2032
1629724819941,2032
1629724819945,2033
1629724819949,2033
1629724819953,2033
1629724819957,2033
1629724819961,2033
1629724819965,2034
1629724819969,2034
1629724819973,2035
1629724819977,2035
1629724819981,2035
1629724819985,2035
1629724819989,2036
1629724819993,2035
1629724819997,2035
1629724820001,2035
1629724820005,2035
1629724820009,2035
1629724820013,2035
1629724820017,2036
1629724820021,2036
1629724820025,2036
1629724820029,2036
1629724820033,2036
1629724820037,2036
1629724820041,2036
1629724820045,2036
1629724820049,2036
1629724820053,2036
1629724820057,2036
1629724820061,2037
1629724820065,2037
1629724820069,2037
1629724820073,2036
1629724820077,2036
1629724820081,2036
1629724820085,2036
1629724820089,2036
1629724820093,2037
1629724820097,2037
1629724820101,2038
1629724820105,2038
1629724820109,2038
1629724820113,2038
1629724820117,2037
1629724820121,2036
1629724820125,2036
1629724820129,2036
1629724820133,2037
1629724820137,2038
1629724820141,2039
1629724820145,2039
1629724820149,2039
1629724820153,2039
1629724820157,2038
1629724820161,2038
1629724820165,2037
1629724820169,2038
1629724820173,2038
1629724820177,2039
1629724820181,2039
1629724820185,2039
1629724820189,2039
1629724820193,2039
1629724820197,2039
1629724820201,2039
1629724820205,2039
1629724820209,2039
1629724820213,2039
1629724820217,2039
1629724820221,2040
1629724820225,2040
1629724820229,2041
1629724820233,2041
1629724820237,2041
1629724820241,2040
1629724820245,2040
1629724820249,2039
1629724820253,2039
1629724820257,2040
1629724820261,2041
1629724820265,2042
1629724820269,2042
1629724820273,2043
1629724820277,2043
1629724820281,2042
1629724820285,2041
1629724820289,2040
1629724820293,2040
1629724820297,2042
1629724820301,2044
1629724820305,2047
1629724820309,2049
1629724820313,2051
1629724820317,2051
1629724820321,2049
1629724820325,2048
1629724820329,2047
1629724820333,2047
1629724820337,2047
1629724820341,2047
1629724820345,2047
1629724820349,2046
1629724820353,2045
1629724820357,2043
1629724820361,2042
1629724820365,2041
1629724820369,2040
1629724820373,2040
1629724820377,2040
1629724820381,2040
1629724820385,2041
1629724820389,2041
1629724820393,2042
1629724820397,2042
1629724820401,2042
1629724820405,2041
1629724820409,2041
1629724820413,2041
1629724820417,2042
1629724820421,2044
1629724820425,2045
1629724820429,2045
1629724820433,2043
1629724820437,2040
1629724820441,2040
1629724820445,2045
1629724820449,2055
1629724820453,2070
1629724820457,2086
1629724820461,2108
1629724820465,2135
1629724820469,2161
1629724820473,2174
1629724820477,2164
1629724820481,2128
1629724820485,2075
1629724820489,2029
1629724820493,2004
1629724820497,2006
1629724820501,2024
1629724820505,2043
1629724820509,2054
1629724820513,2053
1629724820517,2049
1629724820521,2048
1629724820525,2048
1629724820529,2048
1629724820533,2048
1629724820537,2048
1629724820541,2048
1629724820545,2049
1629724820549,2050
1629724820553,2051
1629724820557,2051
1629724820561,2051
1629724820565,2051
1629724820569,2051
1629724820573,2051
1629724820577,2052
1629724820581,2053
1629724820585,2054
1629724820589,2055
1629724820593,2055
1629724820597,2055
1629724820601,2056
1629724820605,2056
1629724820609,2057
1629724820613,2059
1629724820617,2060
1629724820621,2061
1629724820625,2062
1629724820629,2062
1629724820633,2063
1629724820637,2064
1629724820641,2065
1629724820645,2067
1629724820649,2069
1629724820653,2071
1629724820657,2073
1629724820661,2076
1629724820665,2078
1629724820669,2081
1629724820673,2083
1629724820677,2086
1629724820681,2088
1629724820685,2091
1629724820689,2094
1629724820693,2098
1629724820697,2101
1629724820701,2105
1629724820705,2108
1629724820709,2111
1629724820713,2114
1629724820717,2116
1629724820721,2117
1629724820725,2119
1629724820729,2120
1629724820733,2119
1629724820737,2118
1629724820741,2114
1629724820745,2110
1629724820749,2104
1629724820753,2096
1629724820757,2089
1629724820761,2081
1629724820765,2073
1629724820769,2067
1629724820773,2061
1629724820777,2056
1629724820781,2051
1629724820785,2048
1629724820789,2045
1629724820793,2042
1629724820797,2040
1629724820801,2037
1629724820805,2035
1629724820809,2034
1629724820813,2033
1629724820817,2032
1629724820821,2032
1629724820825,2032
1629724820829,2031
1629724820833,2031
1629724820837,2031
1629724820841,2031
1629724820845,2031
1629724820849,2031
1629724820853,2031
1629724820857,2031
1629724820861,2031
1629724820865,2032
1629724820869,2032
1629724820873,2032
1629724820877,2032
1629724820881,2031
1629724820885,2031
1629724820889,2031
1629724820893,2032
1629724820897,2032
1629724820901,2032
1629724820905,2032
1629724820909,2032
1629724820913,2032
1629724820917,2032
1629724820921,2032
1629724820925,2033
1629724820929,2033
1629724820933,2033
1629724820937,2034
1629724820941,2034
1629724820945,2034
1629724820949,2034
1629724820953,2034
1629724820957,2034
1629724820961,2034
1629724820965,2034
1629724820969,2034
1629724820973,2034
1629724820977,2034
1629724820981,2034
1629724820985,2034
1629724820989,2034
1629724820993,2035
1629724820997,2035
1629724821001,2035
1629724821005,2034
1629724821009,2034
1629724821013,2034
1629724821017,2035
1629724821021,2035
1629724821025,2036
1629724821029,2036
1629724821033,2036
1629724821037,2036
1629724821041,2036
1629724821045,2036
1629724821049,2036
1629724821053,2035
1629724821057,2035
1629724821061,2035
1629724821065,2036
1629724821069,2036
1629724821073,2037
1629724821077,2037
1629724821081,2037
1629724821085,2037
1629724821089,2037
1629724821093,2038
1629724821097,2038
1629724821101,2038
1629724821105,2039
1629724821109,2039
1629724821113,2038
1629724821117,2038
1629724821121,2037
1629724821125,2038
1629724821129,2038
1629724821133,2039
1629724821137,2039
1629724821141,2040
1629724821145,2040
1629724821149,2039
1629724821153,2039
1629724821157,2039
1629724821161,2039
1629724821165,2039
1629724821169,2039
1629724821173,2039
1629724821177,2040
1629724821181,2040
1629724821185,2040
1629724821189,2040
1629724821193,2040
1629724821197,2040
1629724821201,2040
1629724821205,2040
1629724821209,2040
1629724821213,2040
1629724821217,2040
1629724821221,2041
1629724821225,2042
1629724821229,2042
1629724821233,2042
1629724821237,2042
1629724821241,2042
1629724821245,2042
1629724821249,2041
1629724821253,2041
1629724821257,2042
1629724821261,2042
1629724821265,2043
1629724821269,2043
1629724821273,2044
1629724821277,2044
1629724821281,2043
1629724821285,2042
1629724821289,2041
1629724821293,2042
1629724821297,2045
1629724821301,2048
1629724821305,2051
1629724821309,2053
1629724821313,2054
1629724821317,2052
1629724821321,2050
1629724821325,2048
1629724821329,2048
1629724821333,2048
1629724821337,2048
1629724821341,2048
1629724821345,2048
1629724821349,2047
1629724821353,2046
1629724821357,2044
1629724821361,2042
1629724821365,2042
1629724821369,2041
1629724821373,2042
1629724821377,2042
1629724821381,2043
1629724821385,2043
1629724821389,2043
1629724821393,2043
1629724821397,2043
1629724821401,2043
1629724821405,2043
1629724821409,2043
1629724821413,2043
1629724821417,2045
1629724821421,2046
1629724821425,2046
1629724821429,2046
1629724821433,2043
1629724821437,2042
1629724821441,2044
1629724821445,2050
1629724821449,2063
1629724821453,2077
1629724821457,2092
1629724821461,2115
1629724821465,2141
1629724821469,2162
1629724821473,2168
1629724821477,2148
1629724821481,2105
1629724821485,2054
1629724821489,2017
1629724821493,2004
1629724821497,2015
1629724821501,2035
1629724821505,2051
1629724821509,2057
1629724821513,2053
1629724821517,2049
1629724821521,2048
1629724821525,2048
1629724821529,2048
1629724821533,2048
1629724821537,2049
1629724821541,2050
1629724821545,2051
1629724821549,2051
1629724821553,2051
1629724821557,2051
1629724821561,2051
1629724821565,2051
1629724821569,2052
1629724821573,2053
1629724821577,2054
1629724821581,2054
1629724821585,2055
1629724821589,2056
1629724821593,2056
1629724821597,2057
1629724821601,2057
1629724821605,2057
1629724821609,2058
1629724821613,2059
1629724821617,2060
1629724821621,2061
1629724821625,2062
1629724821629,2064
1629724821633,2065
1629724821637,2066
1629724821641,2067
1629724821645,2068
1629724821649,2070
1629724821653,2071
1629724821657,2074
1629724821661,2076
1629724821665,2079
1629724821669,2082
1629724821673,2084
1629724821677,2087
1629724821681,2090
1629724821685,2093
1629724821689,2096
1629724821693,2099
1629724821697,2102
1629724821701,2105
1629724821705,2109
1629724821709,2111
1629724821713,2114
1629724821717,2115
1629724821721,2116
1629724821725,2117
1629724821729,2118
1629724821733,2117
1629724821737,2116
1629724821741,2112
1629724821745,2107
1629724821749,2101
1629724821753,2094
1629724821757,2087
1629724821761,2079
1629724821765,2072
1629724821769,2066
1629724821773,2060
1629724821777,2056
1629724821781,2051
1629724821785,2048
1629724821789,2046
1629724821793,2042
1629724821797,2040
1629724821801,2038
1629724821805,2036
1629724821809,2035
1629724821813,2034
1629724821817,2034
1629724821821,2033
1629724821825,2033
1629724821829,2033
1629724821833,2033
1629724821837,2032
1629724821841,2032
1629724821845,2032
1629724821849,2032
1629724821853,2032
1629724821857,2033
1629724821861,2033
1629724821865,2033
1629724821869,2033
1629724821873,2033
1629724821877,2033
1629724821881,2033
1629724821885,2033
1629724821889,2033
1629724821893,2033
1629724821897,2033
1629724821901,2034
1629724821905,2034
1629724821909,2034
1629724821913,2034
1629724821917,2034
1629724821921,2035
1629724821925,2035
1629724821929,2035
1629724821933,2035
1629724821937,2035
1629724821941,2035
1629724821945,2036
1629724821949,2036
1629724821953,2036
1629724821957,2036
1629724821961,2036
1629724821965,2036
1629724821969,2036
1629724821973,2036
1629724821977,2036
1629724821981,2037
1629724821985,2037
1629724821989,2037
1629724821993,2037
1629724821997,2037
1629724822001,2037
1629724822005,2036
1629724822009,2036
1629724822013,2036
1629724822017,2037
1629724822021,2037
1629724822025,2038
1629724822029,2038
1629724822033,2038
1629724822037,2038
1629724822041,2037
1629724822045,2037
1629724822049,2037
1629724822053,2037
1629724822057,2038
1629724822061,2039
1629724822065,2039
1629724822069,2039
1629724822073,2039
1629724822077,2039
1629724822081,2038
1629724822085,2038
1629724822089,2038
1629724822093,2038
1629724822097,2039
1629724822101,2040
1629724822105,2040
1629724822109,2040
1629724822113,2039
1629724822117,2039
1629724822121,2039
1629724822125,2039
1629724822129,2040
1629724822133,2041
1629724822137,2041
1629724822141,2041
1629724822145,2041
1629724822149,2041
1629724822153,2041
1629724822157,2041
1629724822161,2040
1629724822165,2040
1629724822169,2040
1629724822173,2041
1629724822177,2041
1629724822181,2041
1629724822185,2042
1629724822189,2042
1629724822193,2042
1629724822197,2042
1629724822201,2041
1629724822205,2041
1629724822209,2041
1629724822213,2041
1629724822217,2042
1629724822221,2043
1629724822225,2043
1629724822229,2043
1629724822233,2043
1629724822237,2043
1629724822241,2042
1629724822245,2042
1629724822249,2042
1629724822253,2042
1629724822257,2043
1629724822261,2043
1629724822265,2044
1629724822269,2044
1629724822273,2044
1629724822277,2044
1629724822281,2043
1629724822285,2043
1629724822289,2043
1629724822293,2043
1629724822297,2043
1629724822301,2043
1629724822305,2043
1629724822309,2044
1629724822313,2046
1629724822317,2048
1629724822321,2050
1629724822325,2052
1629724822329,2053
1629724822333,2052
1629724822337,2050
1629724822341,2049
1629724822345,2048
1629724822349,2048
1629724822353,2048
1629724822357,2048
1629724822361,2047
1629724822365,2046
1629724822369,2044
1629724822373,2043
1629724822377,2042
1629724822381,2042
1629724822385,2042
1629724822389,2042
1629724822393,2042
1629724822397,2042
1629724822401,2041
1629724822405,2041
1629724822409,2041
1629724822413,2042
1629724822417,2042
1629724822421,2042
1629724822425,2042
1629724822429,2042
1629724822433,2043
1629724822437,2043
1629724822441,2043
1629724822445,2042
1629724822449,2040
1629724822453,2039
1629724822457,2041
1629724822461,2048
1629724822465,2060
1629724822469,2074
1629724822473,2088
1629724822477,2109
1629724822481,2133
1629724822485,2153
1629724822489,2158
1629724822493,2139
1629724822497,2098
1629724822501,2050
1629724822505,2016
1629724822509,2005
1629724822513,2014
1629724822517,2033
1629724822521,2048
1629724822525,2053
1629724822529,2050
1629724822533,2048
1629724822537,2048
1629724822541,2048
1629724822545,2048
1629724822549,2048
1629724822553,2048
1629724822557,2048
1629724822561,2048
1629724822565,2048
1629724822569,2048
1629724822573,2049
1629724822577,2050
1629724822581,2051
1629724822585,2051
1629724822589,2052
1629724822593,2052
1629724822597,2052
1629724822601,2052
1629724822605,2052
1629724822609,2053
1629724822613,2053
1629724822617,2054
1629724822621,2055
1629724822625,2056
1629724822629,2057
1629724822633,2058
1629724822637,2058
1629724822641,2059
1629724822645,2060
1629724822649,2061
1629724822653,2062
1629724822657,2064
1629724822661,2066
1629724822665,2068
1629724822669,2069
1629724822673,2071
1629724822677,2072
1629724822681,2074
1629724822685,2076
1629724822689,2079
1629724822693,2081
1629724822697,2085
1629724822701,2088
1629724822705,2091
1629724822709,2094
1629724822713,2097
1629724822717,2100
1629724822721,2102
1629724822725,2104
1629724822729,2107
1629724822733,2108
1629724822737,2111
1629724822741,2112
1629724822745,2113
1629724822749,2113
1629724822753,2111
1629724822757,2108
1629724822761,2103
1629724822765,2097
1629724822769,2090
1629724822773,2083
1629724822777,2077
1629724822781,2070
1629724822785,2064
1629724822789,2059
1629724822793,2054
1629724822797,2049
1629724822801,2046
1629724822805,2042
1629724822809,2039
1629724822813,2037
1629724822817,2035
1629724822821,2034
1629724822825,2033
1629724822829,2032
1629724822833,2031
1629724822837,2030
1629724822841,2029
1629724822845,2029
1629724822849,2028
1629724822853,2029
1629724822857,2029
1629724822861,2030
1629724822865,2030
1629724822869,2030
1629724822873,2030
1629724822877,2030
1629724822881,2029
1629724822885,2029
1629724822889,2029
1629724822893,2029
1629724822897,2029
1629724822901,2029
1629724822905,2030
1629724822909,2030
1629724822913,2030
1629724822917,2030
1629724822921,2030
1629724822925,2030
1629724822929,2030
1629724822933,2030
1629724822937,2030
1629724822941,2031
1629724822945,2031
1629724822949,2031
1629724822953,2031
1629724822957,2031
1629724822961,2031
1629724822965,2031
1629724822969,2031
1629724822973,2031
1629724822977,2031
1629724822981,2032
1629724822985,2032
1629724822989,2032
1629724822993,2033
1629724822997,2032
1629724823001,2032
1629724823005,2032
1629724823009,2031
1629724823013,2032
1629724823017,2032
1629724823021,2032
1629724823025,2033
1629724823029,2033
1629724823033,2032
1629724823037,2032
1629724823041,2032
1629724823045,2032
1629724823049,2032
1629724823053,2032
1629724823057,2032
1629724823061,2033
1629724823065,2033
1629724823069,2034
1629724823073,2034
1629724823077,2034
1629724823081,2033
1629724823085,2033
1629724823089,2033
1629724823093,2033
1629724823097,2034
1629724823101,2034
1629724823105,2035
1629724823109,2034
1629724823113,2034
1629724823117,2034
1629724823121,2034
1629724823125,2034
1629724823129,2034
1629724823133,2034
1629724823137,2035
1629724823141,2035
1629724823145,2035
1629724823149,2036
1629724823153,2036
1629724823157,2036
1629724823161,2035
1629724823165,2035
1629724823169,2036
1629724823173,2036
1629724823177,2036
1629724823181,2037
1629724823185,2037
1629724823189,2037
1629724823193,2037
1629724823197,2037
1629724823201,2037
1629724823205,2037
1629724823209,2037
1629724823213,2037
1629724823217,2038
1629724823221,2038
1629724823225,2039
1629724823229,2039
1629724823233,2039
1629724823237,2039
1629724823241,2038
1629724823245,2038
1629724823249,2038
1629724823253,2038
1629724823257,2039
1629724823261,2039
1629724823265,2040
1629724823269,2040
1629724823273,2040
1629724823277,2039
1629724823281,2039
1629724823285,2040
1629724823289,2040
1629724823293,2041
1629724823297,2042
1629724823301,2042
1629724823305,2042
1629724823309,2042
1629724823313,2042
1629724823317,2041
1629724823321,2041
1629724823325,2040
1629724823329,2040
1629724823333,2041
1629724823337,2043
1629724823341,2046
1629724823345,2049
1629724823349,2051
1629724823353,2052
1629724823357,2050
1629724823361,2048
1629724823365,2048
1629724823369,2047
1629724823373,2048
1629724823377,2048
1629724823381,2048
1629724823385,2047
1629724823389,2046
1629724823393,2044
1629724823397,2043
1629724823401,2042
1629724823405,2041
1629724823409,2041
1629724823413,2042
1629724823417,2042
1629724823421,2043
1629724823425,2043
1629724823429,2043
1629724823433,2043
1629724823437,2042
1629724823441,2042
1629724823445,2042
1629724823449,2042
1629724823453,2043
1629724823457,2044
1629724823461,2045
1629724823465,2045
1629724823469,2044
1629724823473,2042
1629724823477,2043
1629724823481,2047
1629724823485,2056
1629724823489,2069
1629724823493,2083
1629724823497,2103
1629724823501,2128
1629724823505,2152
1629724823509,2165
1629724823513,2156
1629724823517,2123
1629724823521,2074
1629724823525,2031
1629724823529,2007
1629724823533,2008
1629724823537,2026
1629724823541,2045
1629724823545,2056
1629724823549,2056
1629724823553,2053
1629724823557,2051
1629724823561,2050
1629724823565,2051
1629724823569,2051
1629724823573,2051
1629724823577,2052
1629724823581,2052
1629724823585,2053
1629724823589,2054
1629724823593,2054
1629724823597,2055
1629724823601,2056
1629724823605,2056
1629724823609,2057
1629724823613,2057
1629724823617,2058
1629724823621,2059
1629724823625,2060
1629724823629,2060
1629724823633,2061
1629724823637,2061
1629724823641,2061
1629724823645,2061
1629724823649,2062
1629724823653,2063
1629724823657,2065
1629724823661,2066
1629724823665,2068
1629724823669,2069
1629724823673,2071
1629724823677,2071
1629724823681,2072
1629724823685,2073
1629724823689,2074
1629724823693,2076
1629724823697,2078
1629724823701,2081
1629724823705,2084
1629724823709,2086
1629724823713,2089
1629724823717,2092
1629724823721,2094
1629724823725,2097
1629724823729,2100
1629724823733,2103
1629724823737,2107
1629724823741,2110
1629724823745,2112
1629724823749,2115
1629724823753,2117
1629724823757,2119
1629724823761,2121
1629724823765,2122
1629724823769,2122
1629724823773,2122
1629724823777,2120
1629724823781,2117
1629724823785,2112
1629724823789,2106
1629724823793,2099
1629724823797,2092
1629724823801,2085
1629724823805,2078
1629724823809,2072
1629724823813,2067
1629724823817,2062
1629724823821,2058
1629724823825,2055
1629724823829,2052
1629724823833,2049
1629724823837,2047
1629724823841,2045
1629724823845,2043
1629724823849,2042
1629724823853,2041
1629724823857,2041
1629724823861,2041
1629724823865,2040
1629724823869,2040
1629724823873,2040
1629724823877,2040
1629724823881,2040
1629724823885,2040
1629724823889,2039
1629724823893,2039
1629724823897,2039
1629724823901,2039
1629724823905,2040
1629724823909,2040
1629724823913,2041
1629724823917,2041
1629724823921,2040
1629724823925,2040
1629724823929,2041
1629724823933,2041
1629724823937,2042
1629724823941,2042
1629724823945,2042
1629724823949,2042
1629724823953,2042
1629724823957,2042
1629724823961,2042
1629724823965,2042
1629724823969,2042
1629724823973,2042
1629724823977,2043
1629724823981,2043
1629724823985,2043
1629724823989,2043
1629724823993,2042
1629724823997,2042
1629724824001,2043
1629724824005,2043
1629724824009,2043
1629724824013,2043
1629724824017,2043
1629724824021,2044
1629724824025,2044
1629724824029,2044
1629724824033,2044
1629724824037,2043
1629724824041,2043
1629724824045,2042
1629724824049,2042
1629724824053,2043
1629724824057,2044
1629724824061,2045
1629724824065,2045
1629724824069,2045
1629724824073,2044
1629724824077,2044
1629724824081,2044
1629724824085,2044
1629724824089,2044
1629724824093,2044
1629724824097,2045
1629724824101,2045
1629724824105,2046
1629724824109,2046
1629724824113,2046
1629724824117,2045
1629724824121,2044
1629724824125,2044
1629724824129,2045
1629724824133,2046
1629724824137,2046
1629724824141,2047
1629724824145,2048
1629724824149,2048
1629724824153,2048
1629724824157,2048
1629724824161,2047
1629724824165,2046
1629724824169,2046
1629724824173,2046
1629724824177,2047
1629724824181,2048
1629724824185,2048
1629724824189,2048
1629724824193,2048
1629724824197,2048
1629724824201,2048
1629724824205,2048
1629724824209,2048
1629724824213,2048
1629724824217,2048
1629724824221,2048
1629724824225,2049
1629724824229,2049
1629724824233,2050
1629724824237,2050
1629724824241,2050
1629724824245,2050
1629724824249,2050
1629724824253,2050
1629724824257,2051
1629724824261,2051
1629724824265,2051
1629724824269,2051
1629724824273,2051
1629724824277,2050
1629724824281,2050
1629724824285,2051
1629724824289,2051
1629724824293,2052
1629724824297,2053
1629724824301,2053
1629724824305,2053
1629724824309,2052
1629724824313,2052
1629724824317,2051
1629724824321,2051
1629724824325,2052
1629724824329,2055
1629724824333,2059
1629724824337,2063
1629724824341,2065
1629724824345,2065
1629724824349,2063
1629724824353,2061
1629724824357,2059
1629724824361,2059
1629724824365,2059
1629724824369,2058
1629724824373,2058
1629724824377,2057
1629724824381,2055
1629724824385,2054
1629724824389,2053
1629724824393,2053
1629724824397,2052
1629724824401,2052
1629724824405,2052
1629724824409,2052
1629724824413,2052
1629724824417,2052
1629724824421,2053
1629724824425,2053
1629724824429,2054
1629724824433,2054
1629724824437,2053
1629724824441,2053
1629724824445,2053
1629724824449,2054
1629724824453,2055
1629724824457,2054
1629724824461,2053
1629724824465,2051
1629724824469,2054
1629724824473,2062
1629724824477,2077
1629724824481,2094
1629724824485,2113
1629724824489,2138
1629724824493,2164
1629724824497,2183
1629724824501,2184
1629724824505,2159
1629724824509,2113
1629724824513,2060
1629724824517,2023
1629724824521,2011
1629724824525,2022
1629724824529,2043
1629724824533,2059
1629724824537,2066
1629724824541,2063
1629724824545,2061
1629724824549,2060
1629724824553,2060
1629724824557,2060
1629724824561,2061
1629724824565,2062
1629724824569,2063
1629724824573,2063
1629724824577,2064
1629724824581,2064
1629724824585,2064
1629724824589,2064
1629724824593,2065
1629724824597,2065
1629724824601,2066
1629724824605,2066
1629724824609,2067
1629724824613,2068
1629724824617,2069
1629724824621,2070
1629724824625,2071
1629724824629,2071
1629724824633,2071
1629724824637,2071
1629724824641,2071
1629724824645,2072
1629724824649,2073
1629724824653,2074
1629724824657,2075
1629724824661,2076
1629724824665,2078
1629724824669,2079
1629724824673,2081
1629724824677,2082
1629724824681,2084
1629724824685,2086
1629724824689,2088
1629724824693,2091
1629724824697,2093
1629724824701,2096
1629724824705,2099
1629724824709,2102
1629724824713,2105
1629724824717,2108
1629724824721,2110
1629724824725,2113
1629724824729,2115
1629724824733,2118
1629724824737,2122
1629724824741,2125
1629724824745,2127
1629724824749,2129
1629724824753,2130
1629724824757,2131
1629724824761,2130
1629724824765,2128
1629724824769,2125
1629724824773,2121
1629724824777,2116
1629724824781,2109
1629724824785,2103
1629724824789,2096
1629724824793,2089
1629724824797,2082
1629724824801,2075
1629724824805,2070
1629724824809,2064
1629724824813,2060
1629724824817,2056
1629724824821,2053
1629724824825,2051
1629724824829,2050
1629724824833,2048
1629724824837,2048
1629724824841,2046
1629724824845,2045
1629724824849,2044
1629724824853,2043
1629724824857,2043
1629724824861,2043
1629724824865,2043
1629724824869,2043
1629724824873,2043
1629724824877,2043
1629724824881,2042
1629724824885,2042
1629724824889,2042
1629724824893,2042
1629724824897,2043
1629724824901,2043
1629724824905,2044
1629724824909,2044
1629724824913,2045
1629724824917,2045
1629724824921,2045
1629724824925,2045
1629724824929,2044
1629724824933,2044
1629724824937,2045
1629724824941,2045
1629724824945,2046
1629724824949,2047
1629724824953,2047
1629724824957,2046
1629724824961,2045
1629724824965,2045
1629724824969,2046
1629724824973,2046
1629724824977,2047
1629724824981,2048
1629724824985,2048
1629724824989,2048
1629724824993,2048
1629724824997,2047
1629724825001,2047
1629724825005,2047
1629724825009,2047
1629724825013,2047
1629724825017,2047
1629724825021,2048
1629724825025,2048
1629724825029,2048
1629724825033,2048
1629724825037,2048
1629724825041,2047
1629724825045,2046
1629724825049,2046
1629724825053,2046
1629724825057,2047
1629724825061,2048
1629724825065,2048
1629724825069,2047
1629724825073,2047
1629724825077,2047
1629724825081,2047
1629724825085,2046
1629724825089,2046
1629724825093,2047
1629724825097,2047
1629724825101,2048
1629724825105,2048
1629724825109,2048
1629724825113,2047
1629724825117,2046
1629724825121,2046
1629724825125,2047
1629724825129,2047
1629724825133,2047
1629724825137,2047
1629724825141,2047
1629724825145,2047
1629724825149,2046
1629724825153,2046
1629724825157,2046
1629724825161,2046
1629724825165,2046
1629724825169,2047
1629724825173,2047
1629724825177,2048
1629724825181,2048
1629724825185,2048
1629724825189,2048
1629724825193,2048
1629724825197,2048
1629724825201,2047
1629724825205,2047
1629724825209,2047
1629724825213,2048
1629724825217,2048
1629724825221,2048
1629724825225,2048
1629724825229,2048
1629724825233,2048
1629724825237,2048
1629724825241,2049
1629724825245,2051
1629724825249,2054
1629724825253,2056
