timestamp,green,ir,red
1629724800007,74309,317684,340080
1629724800017,74350,317741,340127
1629724800027,74396,317721,340103
1629724800037,74431,317739,340108
1629724800047,74483,317781,340150
1629724800057,74537,317818,340143
1629724800067,74563,317808,340133
1629724800077,74617,317870,340139
1629724800087,74667,317869,340167
1629724800097,74704,317832,340144
1629724800107,74744,317874,340147
1629724800117,74811,317874,340146
1629724800127,74863,317933,340159
1629724800137,74894,317959,340178
1629724800147,74948,317975,340196
1629724800157,74982,318014,340147
1629724800167,75021,317990,340203
1629724800177,75023,318001,340252
1629724800187,75022,317981,340253
1629724800197,74982,317993,340203
1629724800207,74930,317983,340214
1629724800217,74855,317916,340186
1629724800227,74755,317864,340177
1629724800237,74662,317849,340144
1629724800247,74584,317786,340147
1629724800257,74495,317765,340170
1629724800267,74440,317740,340143
1629724800277,74405,317713,340159
1629724800287,74358,317717,340186
1629724800297,74353,317708,340150
1629724800307,74326,317724,340173
1629724800317,74291,317745,340189
1629724800327,74280,317722,340176
1629724800337,74267,317707,340218
1629724800347,74241,317712,340158
1629724800357,74228,317647,340180
1629724800367,74200,317698,340163
1629724800377,74178,317662,340174
1629724800387,74165,317657,340192
1629724800397,74140,317643,340202
1629724800407,74137,317690,340162
1629724800417,74132,317653,340203
1629724800427,74135,317680,340190
1629724800437,74137,317669,340208
1629724800447,74143,317672,340235
1629724800457,74148,317684,340233
1629724800467,74154,317694,340251
1629724800477,74168,317712,340236
1629724800487,74160,317702,340207
1629724800497,74156,317654,340260
1629724800507,74150,317691,340252
1629724800517,74145,317690,340280
1629724800527,74160,317708,340298
1629724800537,74157,317717,340298
1629724800547,74162,317686,340279
1629724800557,74169,317742,340313
1629724800567,74170,317705,340315
1629724800577,74176,317712,340330
1629724800587,74196,317715,340351
1629724800597,74209,317749,340341
1629724800607,74235,317740,340364
1629724800617,74250,317754,340377
1629724800627,74282,317763,340370
1629724800637,74285,317787,340368
1629724800647,74324,317765,340370
1629724800657,74344,317816,340409
1629724800667,74362,317829,340410
1629724800677,74395,317816,340410
1629724800687,74429,317873,340448
1629724800697,74451,317875,340433
1629724800707,74484,317863,340482
1629724800717,74518,317898,340482
1629724800727,74542,317960,340527
1629724800737,74574,317932,340495
1629724800747,74590,317971,340553
1629724800757,74624,317949,340496
1629724800767,74656,317942,340527
1629724800777,74691,318022,340554
1629724800787,74723,318011,340571
1629724800797,74739,318042,340596
1629724800807,74792,318015,340610
1629724800817,74813,318101,340641
1629724800827,74833,318064,340685
1629724800837,74875,318113,340702
1629724800847,74889,318143,340710
1629724800857,74944,318135,340737
1629724800867,74974,318179,340796
1629724800877,75015,318224,340881
1629724800887,75055,318216,340923
1629724800897,75088,318271,340999
1629724800907,75123,318344,341082
1629724800917,75148,318306,341118
1629724800927,75203,318307,341147
1629724800937,75228,318362,341189
1629724800947,75267,318360,341329
1629724800957,75313,318445,341468
1629724800967,75360,318537,341577
1629724800977,75383,318539,341641
1629724800987,75402,318573,341648
1629724800997,75420,318483,341661
1629724801007,75442,318512,341624
1629724801017,75472,318481,341635
1629724801027,75499,318500,341662
1629724801037,75529,318496,341725
1629724801047,75560,318508,341752
1629724801057,75568,318555,341800
1629724801067,75548,318575,341838
1629724801077,75502,318568,341804
1629724801087,75449,318561,341783
1629724801097,75344,318575,341797
1629724801107,75253,318513,341819
1629724801117,75150,318514,341795
1629724801127,75054,318501,341740
1629724801137,74978,318417,341682
1629724801147,74908,318391,341583
1629724801157,74853,318340,341481
1629724801167,74812,318365,341500
1629724801177,74793,318393,341525
1629724801187,74773,318417,341487
1629724801197,74745,318413,341485
1629724801207,74712,318366,341487
1629724801217,74685,318344,341463
1629724801227,74650,318390,341374
1629724801237,74624,318335,341337
1629724801247,74591,318325,341332
1629724801257,74573,318259,341299
1629724801267,74537,318301,341247
1629724801277,74511,318246,341172
1629724801287,74509,318238,341173
1629724801297,74492,318238,341114
1629724801307,74485,318238,341089
1629724801317,74488,318217,341050
1629724801327,74495,318192,341073
1629724801337,74495,318200,341030
1629724801347,74498,318220,341058
1629724801357,74498,318207,341006
1629724801367,74488,318179,341035
1629724801377,74486,318219,341048
1629724801387,74484,318207,341030
1629724801397,74491,318198,341067
1629724801407,74484,318225,341040
1629724801417,74487,318198,341052
1629724801427,74496,318142,341043
1629724801437,74495,318199,341083
1629724801447,74502,318206,341036
1629724801457,74517,318251,341069
1629724801467,74532,318208,341116
1629724801477,74538,318144,341040
1629724801487,74568,318157,341036
1629724801497,74580,318164,341036
1629724801507,74604,318175,341049
1629724801517,74624,318169,341046
1629724801527,74651,318167,341098
1629724801537,74680,318212,341100
1629724801547,74699,318239,341081
1629724801557,74716,318257,341073
1629724801567,74735,318233,341101
1629724801577,74763,318252,341073
1629724801587,74787,318196,341079
1629724801597,74814,318235,341081
1629724801607,74844,318200,341114
1629724801617,74860,318211,341082
1629724801627,74892,318278,341068
1629724801637,74914,318241,341068
1629724801647,74930,318287,341102
1629724801657,74960,318290,341072
1629724801667,74988,318307,341051
1629724801677,75031,318314,341061
1629724801687,75045,318322,341061
1629724801697,75082,318309,341080
1629724801707,75101,318308,341096
1629724801717,75128,318371,341056
1629724801727,75159,318368,341076
1629724801737,75182,318365,341052
1629724801747,75213,318387,341081
1629724801757,75236,318404,341043
1629724801767,75265,318344,341059
1629724801777,75290,318401,341066
1629724801787,75326,318406,341083
1629724801797,75347,318421,341071
1629724801807,75374,318416,341053
1629724801817,75413,318431,341027
1629724801827,75452,318452,341097
1629724801837,75469,318481,341067
1629724801847,75521,318474,341081
1629724801857,75541,318536,341107
1629724801867,75572,318524,341097
1629724801877,75610,318521,341075
1629724801887,75656,318556,341119
1629724801897,75688,318604,341121
1629724801907,75709,318566,341122
1629724801917,75743,318537,341122
1629724801927,75748,318563,341153
1629724801937,75738,318551,341078
1629724801947,75716,318531,341122
1629724801957,75653,318521,341089
1629724801967,75572,318449,341053
1629724801977,75461,318418,341030
1629724801987,75337,318381,340994
1629724801997,75237,318340,340988
1629724802007,75156,318263,340969
1629724802017,75077,318274,340946
1629724802027,75004,318155,340924
1629724802037,74944,318214,340909
1629724802047,74893,318154,340877
1629724802057,74842,318129,340871
1629724802067,74788,318121,340887
1629724802077,74742,318133,340844
1629724802087,74691,318110,340806
1629724802097,74631,318115,340825
1629724802107,74579,318031,340794
1629724802117,74526,318070,340824
1629724802127,74476,318022,340774
1629724802137,74410,317996,340755
1629724802147,74372,318023,340758
1629724802157,74323,317941,340730
1629724802167,74277,317933,340756
1629724802177,74240,317919,340701
1629724802187,74216,317927,340715
1629724802197,74179,317900,340710
1629724802207,74186,317954,340675
1629724802217,74179,317931,340695
1629724802227,74164,317894,340685
1629724802237,74162,317942,340740
1629724802247,74129,317910,340700
1629724802257,74124,317911,340691
1629724802267,74105,317882,340643
1629724802277,74085,317877,340650
1629724802287,74088,317878,340662
1629724802297,74074,317908,340651
1629724802307,74058,317900,340652
1629724802317,74054,317882,340655
1629724802327,74057,317932,340623
1629724802337,74045,317902,340646
1629724802347,74042,317904,340656
1629724802357,74045,317895,340643
1629724802367,74063,317909,340661
1629724802377,74067,317901,340645
1629724802387,74079,317929,340632
1629724802397,74095,317924,340659
1629724802407,74100,317919,340631
1629724802417,74134,317920,340682
1629724802427,74147,317939,340679
1629724802437,74160,317950,340659
1629724802447,74165,317931,340650
1629724802457,74185,317988,340609
1629724802467,74212,317974,340637
1629724802477,74236,317983,340617
1629724802487,74260,317971,340633
1629724802497,74275,318002,340648
1629724802507,74298,317995,340661
1629724802517,74321,318007,340641
1629724802527,74343,318029,340627
1629724802537,74363,318036,340617
1629724802547,74404,318033,340600
1629724802557,74427,318041,340660
1629724802567,74453,318063,340651
1629724802577,74471,318033,340699
1629724802587,74492,318077,340667
1629724802597,74519,318107,340684
1629724802607,74549,318109,340665
1629724802617,74579,318150,340689
1629724802627,74621,318119,340692
1629724802637,74651,318162,340685
1629724802647,74677,318209,340746
1629724802657,74701,318142,340739
1629724802667,74742,318233,340719
1629724802677,74774,318201,340717
1629724802687,74812,318217,340752
1629724802697,74840,318229,340745
1629724802707,74870,318273,340733
1629724802717,74913,318251,340771
1629724802727,74950,318275,340779
1629724802737,74969,318301,340763
1629724802747,75005,318318,340764
1629724802757,75043,318317,340858
1629724802767,75071,318367,340804
1629724802777,75106,318341,340803
1629724802787,75140,318363,340802
1629724802797,75191,318361,340835
1629724802807,75231,318369,340824
1629724802817,75249,318407,340854
1629724802827,75299,318409,340830
1629724802837,75335,318395,340884
1629724802847,75366,318413,340893
1629724802857,75386,318447,340881
1629724802867,75423,318466,340887
1629724802877,75412,318449,340857
1629724802887,75377,318407,340874
1629724802897,75332,318426,340851
1629724802907,75240,318370,340816
1629724802917,75123,318279,340806
1629724802927,75014,318242,340795
1629724802937,74905,318209,340747
1629724802947,74825,318166,340739
1629724802957,74732,318132,340756
1629724802967,74671,318094,340722
1629724802977,74596,318088,340704
1629724802987,74538,318025,340702
1629724802997,74483,318043,340637
1629724803007,74426,318044,340699
1629724803017,74366,317984,340646
1629724803027,74302,317958,340603
1629724803037,74259,317967,340592
1629724803047,74188,317932,340606
1629724803057,74119,317943,340588
1629724803067,74061,317905,340593
1629724803077,73999,317852,340573
1629724803087,73931,317839,340571
1629724803097,73872,317802,340573
1629724803107,73829,317821,340523
1629724803117,73778,317795,340532
1629724803127,73750,317770,340541
1629724803137,73712,317775,340497
1629724803147,73699,317749,340526
1629724803157,73682,317796,340493
1629724803167,73650,317765,340528
1629724803177,73642,317804,340527
1629724803187,73617,317763,340499
1629724803197,73616,317784,340485
1629724803207,73588,317751,340482
1629724803217,73564,317767,340496
1629724803227,73551,317736,340503
1629724803237,73515,317738,340508
1629724803247,73502,317769,340477
1629724803257,73483,317763,340488
1629724803267,73476,317757,340470
1629724803277,73487,317788,340479
1629724803287,73486,317785,340504
1629724803297,73481,317737,340489
1629724803307,73481,317787,340476
1629724803317,73505,317799,340504
1629724803327,73503,317757,340483
1629724803337,73504,317821,340507
1629724803347,73522,317816,340480
1629724803357,73539,317812,340492
1629724803367,73551,317813,340512
1629724803377,73565,317782,340524
1629724803387,73584,317808,340578
1629724803397,73598,317861,340498
1629724803407,73609,317844,340534
1629724803417,73618,317853,340525
1629724803427,73642,317849,340507
1629724803437,73666,317872,340521
1629724803447,73665,317864,340572
1629724803457,73697,317900,340540
1629724803467,73722,317862,340561
1629724803477,73744,317936,340540
1629724803487,73757,317911,340515
1629724803497,73787,317909,340542
1629724803507,73815,317944,340544
1629724803517,73835,317936,340588
1629724803527,73856,317933,340597
1629724803537,73883,317942,340578
1629724803547,73907,317963,340595
1629724803557,73930,318034,340587
1629724803567,73956,318033,340575
1629724803577,73986,318048,340602
1629724803587,74006,318022,340629
1629724803597,74030,318052,340654
1629724803607,74074,318052,340653
1629724803617,74109,318091,340610
1629724803627,74128,318049,340636
1629724803637,74170,318064,340665
1629724803647,74196,318102,340616
1629724803657,74227,318122,340648
1629724803667,74256,318098,340671
1629724803677,74291,318123,340669
1629724803687,74317,318112,340721
1629724803697,74349,318164,340689
1629724803707,74392,318163,340704
1629724803717,74431,318178,340714
1629724803727,74454,318229,340711
1629724803737,74490,318244,340723
1629724803747,74531,318204,340727
1629724803757,74570,318239,340744
1629724803767,74606,318266,340760
1629724803777,74648,318302,340779
1629724803787,74697,318297,340784
1629724803797,74722,318289,340764
1629724803807,74762,318311,340822
1629724803817,74799,318314,340808
1629724803827,74828,318351,340815
1629724803837,74835,318349,340860
1629724803847,74836,318321,340790
1629724803857,74775,318330,340775
1629724803867,74714,318256,340786
1629724803877,74632,318205,340778
1629724803887,74524,318150,340713
1629724803897,74434,318096,340735
1629724803907,74340,318063,340724
1629724803917,74248,318048,340694
1629724803927,74170,318025,340657
1629724803937,74102,317998,340649
1629724803947,74051,317964,340654
1629724803957,74003,317920,340648
1629724803967,73957,317946,340633
1629724803977,73908,317911,340605
1629724803987,73831,317906,340594
1629724803997,73803,317897,340577
1629724804007,73754,317858,340593
1629724804017,73680,317853,340616
1629724804027,73636,317866,340595
1629724804037,73589,317820,340554
1629724804047,73526,317757,340540
1629724804057,73474,317723,340548
1629724804067,73423,317743,340540
1629724804077,73380,317751,340545
1629724804087,73349,317750,340536
1629724804097,73340,317747,340529
1629724804107,73335,317733,340529
1629724804117,73325,317742,340527
1629724804127,73309,317730,340562
1629724804137,73292,317752,340550
1629724804147,73269,317793,340540
1629724804157,73249,317692,340529
1629724804167,73235,317746,340535
1629724804177,73220,317723,340525
1629724804187,73219,317753,340529
1629724804197,73207,317706,340510
1629724804207,73199,317704,340541
1629724804217,73187,317697,340515
1629724804227,73176,317714,340531
1629724804237,73175,317688,340520
1629724804247,73171,317714,340546
1629724804257,73165,317751,340550
1629724804267,73191,317722,340544
1629724804277,73201,317748,340541
1629724804287,73195,317711,340560
1629724804297,73226,317727,340526
1629724804307,73238,317724,340587
1629724804317,73244,317734,340520
1629724804327,73279,317734,340578
1629724804337,73283,317788,340559
1629724804347,73312,317767,340517
1629724804357,73325,317737,340530
1629724804367,73351,317795,340557
1629724804377,73377,317797,340574
1629724804387,73393,317826,340552
1629724804397,73419,317810,340571
1629724804407,73437,317828,340572
1629724804417,73463,317911,340606
1629724804427,73504,317864,340588
1629724804437,73511,317843,340586
1629724804447,73537,317869,340585
1629724804457,73565,317848,340568
1629724804467,73589,317889,340590
1629724804477,73601,317864,340588
1629724804487,73633,317908,340624
1629724804497,73674,317907,340632
1629724804507,73690,317921,340598
1629724804517,73704,317882,340597
1629724804527,73735,317905,340643
1629724804537,73767,317914,340641
1629724804547,73780,317911,340642
1629724804557,73819,317930,340636
1629724804567,73849,317978,340652
1629724804577,73896,318006,340627
1629724804587,73921,317960,340640
1629724804597,73939,317969,340668
1629724804607,73988,317982,340646
1629724804617,74008,318004,340667
1629724804627,74047,318005,340646
1629724804637,74069,318022,340693
1629724804647,74124,318030,340681
1629724804657,74151,318022,340696
1629724804667,74170,318036,340694
1629724804677,74227,318086,340680
1629724804687,74265,318077,340690
1629724804697,74303,318085,340713
1629724804707,74324,318135,340740
1629724804717,74373,318078,340723
1629724804727,74415,318090,340719
1629724804737,74449,318124,340760
1629724804747,74482,318173,340744
1629724804757,74506,318169,340765
1629724804767,74531,318170,340749
1629724804777,74515,318143,340729
1629724804787,74490,318155,340703
1629724804797,74425,318121,340691
1629724804807,74340,318055,340678
1629724804817,74232,317972,340675
1629724804827,74149,317991,340618
1629724804837,74075,317906,340615
1629724804847,73991,317874,340640
1629724804857,73945,317890,340595
1629724804867,73884,317814,340577
1629724804877,73844,317846,340577
1629724804887,73804,317804,340546
1629724804897,73770,317793,340574
1629724804907,73730,317781,340562
1629724804917,73691,317775,340576
1629724804927,73657,317773,340532
1629724804937,73623,317744,340532
1629724804947,73587,317739,340546
1629724804957,73540,317718,340496
1629724804967,73506,317680,340492
1629724804977,73473,317732,340492
1629724804987,73454,317660,340523
1629724804997,73423,317663,340492
1629724805007,73416,317654,340512
1629724805017,73406,317663,340527
1629724805027,73398,317665,340512
1629724805037,73387,317688,340452
1629724805047,73387,317677,340515
1629724805057,73391,317660,340501
1629724805067,73392,317670,340521
1629724805077,73387,317708,340480
1629724805087,73374,317656,340541
1629724805097,73356,317697,340495
1629724805107,73354,317646,340466
1629724805117,73340,317650,340503
1629724805127,73339,317613,340498
1629724805137,73330,317635,340468
1629724805147,73331,317689,340496
1629724805157,73326,317659,340492
1629724805167,73331,317662,340507
1629724805177,73332,317680,340534
1629724805187,73361,317661,340490
1629724805197,73375,317686,340497
1629724805207,73388,317702,340462
1629724805217,73403,317714,340514
1629724805227,73422,317710,340500
1629724805237,73447,317704,340489
1629724805247,73463,317734,340521
1629724805257,73483,317733,340525
1629724805267,73517,317735,340513
1629724805277,73524,317742,340488
1629724805287,73539,317749,340537
1629724805297,73583,317736,340504
1629724805307,73603,317753,340517
1629724805317,73627,317771,340545
1629724805327,73636,317799,340525
1629724805337,73666,317810,340563
1629724805347,73685,317777,340559
1629724805357,73711,317827,340575
1629724805367,73740,317844,340562
1629724805377,73752,317825,340575
1629724805387,73785,317872,340573
1629724805397,73809,317862,340590
1629724805407,73841,317868,340611
1629724805417,73867,317877,340595
1629724805427,73890,317937,340552
1629724805437,73922,317895,340609
1629724805447,73934,317888,340622
1629724805457,73978,317920,340639
1629724805467,74009,317956,340605
1629724805477,74028,317920,340621
1629724805487,74069,317896,340659
1629724805497,74103,317933,340655
1629724805507,74136,317952,340677
1629724805517,74158,317973,340671
1629724805527,74199,317973,340646
1629724805537,74230,318022,340658
1629724805547,74271,318005,340685
1629724805557,74304,318026,340714
1629724805567,74348,318041,340720
1629724805577,74385,318028,340715
1629724805587,74419,318067,340707
1629724805597,74459,318059,340737
1629724805607,74468,318069,340741
1629724805617,74460,318055,340706
1629724805627,74431,318057,340678
1629724805637,74398,317986,340676
1629724805647,74298,317968,340676
1629724805657,74219,317936,340623
1629724805667,74118,317900,340657
1629724805677,74026,317866,340611
1629724805687,73953,317830,340590
1629724805697,73896,317790,340590
1629724805707,73839,317753,340567
1629724805717,73786,317766,340560
1629724805727,73757,317708,340564
1629724805737,73710,317711,340539
1629724805747,73675,317715,340549
1629724805757,73632,317698,340539
1629724805767,73586,317678,340512
1629724805777,73532,317649,340534
1629724805787,73501,317642,340499
1629724805797,73458,317601,340508
1629724805807,73407,317635,340511
1629724805817,73356,317602,340499
1629724805827,73327,317579,340439
1629724805837,73281,317553,340437
1629724805847,73251,317570,340474
1629724805857,73247,317547,340431
1629724805867,73229,317596,340446
1629724805877,73232,317559,340485
1629724805887,73233,317549,340461
1629724805897,73224,317556,340419
1629724805907,73215,317535,340469
1629724805917,73194,317583,340476
1629724805927,73177,317554,340439
1629724805937,73166,317532,340406
1629724805947,73152,317527,340409
1629724805957,73141,317572,340435
1629724805967,73128,317531,340395
1629724805977,73110,317524,340419
1629724805987,73105,317544,340434
1629724805997,73101,317528,340433
1629724806007,73097,317530,340415
1629724806017,73094,317554,340413
1629724806027,73088,317542,340441
1629724806037,73096,317536,340446
1629724806047,73110,317493,340432
1629724806057,73126,317539,340412
1629724806067,73139,317611,340429
1629724806077,73144,317597,340408
1629724806087,73160,317606,340422
1629724806097,73167,317618,340427
1629724806107,73201,317623,340435
1629724806117,73202,317646,340437
1629724806127,73221,317589,340452
1629724806137,73238,317621,340469
1629724806147,73248,317606,340448
1629724806157,73265,317651,340441
1629724806167,73287,317625,340454
1629724806177,73309,317673,340443
1629724806187,73328,317620,340459
1629724806197,73348,317626,340482
1629724806207,73375,317647,340493
1629724806217,73396,317742,340490
1629724806227,73415,317690,340512
1629724806237,73432,317677,340452
1629724806247,73449,317684,340458
1629724806257,73465,317697,340483
1629724806267,73507,317726,340510
1629724806277,73529,317715,340485
1629724806287,73546,317769,340519
1629724806297,73575,317738,340504
1629724806307,73588,317754,340545
1629724806317,73637,317757,340525
1629724806327,73666,317799,340532
1629724806337,73687,317796,340545
1629724806347,73727,317776,340541
1629724806357,73759,317832,340537
1629724806367,73792,317847,340562
1629724806377,73820,317868,340541
1629724806387,73869,317907,340579
1629724806397,73903,317870,340574
1629724806407,73937,317853,340579
1629724806417,73962,317865,340593
1629724806427,73975,317918,340582
1629724806437,73971,317905,340575
1629724806447,73931,317829,340572
1629724806457,73879,317792,340575
1629724806467,73788,317794,340538
1629724806477,73687,317742,340527
1629724806487,73592,317678,340512
1629724806497,73485,317650,340430
1629724806507,73404,317624,340446
1629724806517,73333,317610,340424
1629724806527,73251,317578,340422
1629724806537,73192,317512,340390
1629724806547,73138,317561,340408
1629724806557,73072,317504,340379
1629724806567,73012,317442,340359
1629724806577,72939,317459,340348
1629724806587,72878,317422,340331
1629724806597,72829,317436,340307
1629724806607,72755,317392,340342
1629724806617,72680,317338,340296
1629724806627,72619,317345,340274
1629724806637,72538,317303,340259
1629724806647,72483,317301,340264
1629724806657,72433,317308,340214
1629724806667,72381,317281,340225
1629724806677,72322,317262,340214
1629724806687,72294,317264,340238
1629724806697,72278,317247,340225
1629724806707,72260,317233,340223
1629724806717,72235,317247,340217
1629724806727,72219,317227,340157
1629724806737,72201,317250,340233
1629724806747,72177,317232,340134
1629724806757,72154,317220,340197
1629724806767,72131,317226,340199
1629724806777,72105,317219,340180
1629724806787,72085,317195,340166
1629724806797,72083,317216,340129
1629724806807,72052,317202,340151
1629724806817,72041,317227,340148
1629724806827,72023,317213,340172
1629724806837,72012,317210,340158
1629724806847,72017,317240,340168
1629724806857,72019,317225,340140
1629724806867,72017,317242,340162
1629724806877,72024,317227,340149
1629724806887,72031,317233,340167
1629724806897,72037,317242,340125
1629724806907,72056,317274,340155
1629724806917,72075,317264,340162
1629724806927,72094,317310,340184
1629724806937,72099,317286,340164
1629724806947,72110,317247,340173
1629724806957,72126,317299,340135
1629724806967,72145,317293,340170
1629724806977,72161,317297,340141
1629724806987,72174,317288,340159
1629724806997,72186,317335,340132
1629724807007,72217,317355,340152
1629724807017,72228,317358,340190
1629724807027,72257,317307,340201
1629724807037,72279,317339,340178
1629724807047,72302,317355,340175
1629724807057,72314,317331,340212
1629724807067,72346,317407,340214
1629724807077,72366,317386,340172
1629724807087,72409,317414,340198
1629724807097,72438,317434,340179
1629724807107,72457,317422,340194
1629724807117,72481,317397,340208
1629724807127,72523,317433,340243
1629724807137,72543,317456,340256
1629724807147,72568,317436,340221
1629724807157,72595,317511,340242
1629724807167,72640,317488,340246
1629724807177,72677,317468,340226
1629724807187,72705,317477,340245
1629724807197,72739,317513,340240
1629724807207,72780,317526,340295
1629724807217,72812,317522,340266
1629724807227,72854,317542,340255
1629724807237,72884,317527,340278
1629724807247,72926,317576,340272
1629724807257,72974,317613,340327
1629724807267,73022,317616,340315
1629724807277,73043,317592,340314
1629724807287,73065,317656,340361
1629724807297,73081,317614,340324
1629724807307,73067,317625,340310
1629724807317,73020,317588,340293
1629724807327,72951,317572,340244
1629724807337,72863,317482,340261
1629724807347,72757,317500,340217
1629724807357,72654,317418,340208
1629724807367,72548,317372,340183
1629724807377,72446,317312,340161
1629724807387,72368,317317,340170
1629724807397,72296,317261,340166
1629724807407,72225,317267,340102
1629724807417,72160,317249,340115
1629724807427,72092,317223,340110
1629724807437,72011,317169,340072
1629724807447,71930,317159,340071
1629724807457,71848,317111,340087
1629724807467,71775,317117,340028
1629724807477,71692,317055,340015
1629724807487,71625,317052,339999
1629724807497,71547,317022,339992
1629724807507,71468,316997,339979
1629724807517,71398,316988,340002
1629724807527,71322,316982,339975
1629724807537,71248,316933,339994
1629724807547,71190,316902,339965
1629724807557,71141,316889,339945
1629724807567,71107,316896,339969
1629724807577,71087,316875,339953
1629724807587,71085,316866,339970
1629724807597,71058,316889,339943
1629724807607,71027,316917,339956
1629724807617,70994,316893,339904
1629724807627,70963,316865,339915
1629724807637,70949,316874,339950
1629724807647,70916,316860,339927
1629724807657,70890,316873,339942
1629724807667,70866,316869,339862
1629724807677,70854,316871,339903
1629724807687,70832,316874,339899
1629724807697,70833,316857,339933
1629724807707,70819,316872,339902
1629724807717,70841,316890,339905
1629724807727,70824,316905,339903
1629724807737,70827,316890,339897
1629724807747,70834,316921,339895
1629724807757,70843,316927,339882
1629724807767,70857,316971,339920
1629724807777,70856,316947,339862
1629724807787,70873,316932,339887
1629724807797,70897,316980,339931
1629724807807,70905,316942,339929
1629724807817,70931,316972,339876
1629724807827,70957,316986,339939
1629724807837,70975,316978,339961
1629724807847,70995,316982,339936
1629724807857,71017,316983,339918
1629724807867,71043,316987,339942
1629724807877,71057,317033,339964
1629724807887,71081,317028,339941
1629724807897,71109,317042,339964
1629724807907,71126,317065,340005
1629724807917,71147,317057,339951
1629724807927,71171,317056,340000
1629724807937,71211,317095,339989
1629724807947,71231,317083,339977
1629724807957,71253,317097,339951
1629724807967,71280,317111,339991
1629724807977,71320,317123,339989
1629724807987,71356,317173,340034
1629724807997,71382,317186,340019
1629724808007,71415,317179,340051
1629724808017,71450,317241,340036
1629724808027,71489,317214,340041
1629724808037,71518,317208,340059
1629724808047,71534,317208,340050
1629724808057,71573,317215,340032
1629724808067,71621,317200,340051
1629724808077,71646,317240,340091
1629724808087,71688,317276,340109
1629724808097,71718,317276,340083
1629724808107,71769,317277,340084
1629724808117,71798,317284,340096
1629724808127,71851,317331,340116
1629724808137,71881,317304,340087
1629724808147,71925,317314,340131
1629724808157,71967,317327,340131
1629724808167,72006,317373,340140
1629724808177,72062,317391,340132
1629724808187,72103,317445,340165
1629724808197,72146,317438,340158
1629724808207,72178,317403,340188
1629724808217,72233,317425,340226
1629724808227,72269,317484,340235
1629724808237,72292,317425,340185
1629724808247,72259,317452,340177
1629724808257,72214,317396,340175
1629724808267,72138,317350,340171
1629724808277,72046,317301,340155
1629724808287,71967,317285,340137
1629724808297,71845,317249,340104
1629724808307,71741,317209,340093
1629724808317,71649,317158,340085
1629724808327,71569,317142,340050
1629724808337,71500,317119,340048
1629724808347,71425,317116,340015
1629724808357,71357,317047,340017
1629724808367,71287,317061,340005
1629724808377,71227,316982,339964
1629724808387,71140,316986,339953
1629724808397,71066,316931,339950
1629724808407,70986,316905,339935
1629724808417,70907,316865,339913
1629724808427,70815,316891,339915
1629724808437,70740,316808,339908
1629724808447,70666,316791,339874
1629724808457,70588,316806,339854
1629724808467,70516,316767,339869
1629724808477,70445,316751,339829
1629724808487,70389,316651,339796
1629724808497,70327,316676,339823
1629724808507,70298,316687,339818
1629724808517,70264,316758,339844
1629724808527,70256,316683,339837
1629724808537,70229,316702,339830
1629724808547,70215,316707,339827
1629724808557,70188,316690,339793
1629724808567,70167,316661,339799
1629724808577,70140,316712,339791
1629724808587,70116,316652,339809
1629724808597,70099,316684,339819
1629724808607,70086,316711,339824
1629724808617,70070,316637,339790
1629724808627,70062,316655,339794
1629724808637,70057,316657,339828
1629724808647,70057,316702,339803
1629724808657,70049,316683,339828
1629724808667,70052,316680,339839
1629724808677,70055,316677,339808
1629724808687,70086,316673,339848
1629724808697,70067,316719,339820
1629724808707,70104,316703,339845
1629724808717,70105,316710,339813
1629724808727,70128,316743,339862
1629724808737,70147,316742,339833
1629724808747,70165,316775,339815
1629724808757,70189,316790,339863
1629724808767,70225,316746,339849
1629724808777,70236,316828,339836
1629724808787,70273,316796,339858
1629724808797,70299,316809,339850
1629724808807,70332,316824,339855
1629724808817,70361,316865,339830
1629724808827,70386,316831,339886
1629724808837,70416,316806,339875
1629724808847,70445,316879,339862
1629724808857,70475,316875,339912
1629724808867,70494,316836,339898
1629724808877,70544,316879,339889
1629724808887,70573,316923,339906
1629724808897,70601,316923,339922
1629724808907,70638,316912,339917
1629724808917,70663,316953,339923
1629724808927,70707,316961,339953
1629724808937,70734,317011,339929
1629724808947,70787,316977,339933
1629724808957,70833,316978,339970
1629724808967,70870,316998,339973
1629724808977,70900,317060,339995
1629724808987,70950,317068,339995
1629724808997,71001,317059,339993
1629724809007,71030,317093,340017
1629724809017,71077,317128,340013
1629724809027,71125,317065,340054
1629724809037,71145,317130,340060
1629724809047,71204,317133,340001
1629724809057,71254,317152,340074
1629724809067,71293,317160,340043
1629724809077,71326,317168,340075
1629724809087,71383,317167,340076
1629724809097,71420,317208,340104
1629724809107,71474,317185,340134
1629724809117,71526,317246,340152
1629724809127,71579,317268,340093
1629724809137,71619,317279,340125
1629724809147,71675,317298,340151
1629724809157,71722,317296,340142
1629724809167,71780,317294,340155
1629724809177,71818,317345,340191
1629724809187,71874,317316,340156
1629724809197,71930,317374,340191
1629724809207,71977,317378,340214
1629724809217,71981,317387,340175
1629724809227,71970,317382,340192
1629724809237,71934,317344,340182
1629724809247,71865,317298,340180
1629724809257,71772,317211,340148
1629724809267,71680,317180,340121
1629724809277,71581,317139,340100
1629724809287,71484,317119,340065
1629724809297,71397,317048,340066
1629724809307,71330,317068,340068
1629724809317,71256,316996,340032
1629724809327,71199,317020,340074
1629724809337,71130,316999,340019
1629724809347,71063,316916,340011
1629724809357,70999,316960,340006
1629724809367,70928,316884,339987
1629724809377,70865,316811,339977
1629724809387,70779,316822,339957
1629724809397,70713,316779,339951
1629724809407,70628,316803,339896
1629724809417,70567,316771,339909
1629724809427,70487,316746,339917
1629724809437,70418,316714,339883
1629724809447,70351,316704,339860
1629724809457,70295,316669,339878
1629724809467,70237,316609,339853
1629724809477,70193,316612,339881
1629724809487,70174,316623,339836
1629724809497,70151,316624,339867
1629724809507,70129,316645,339893
1629724809517,70127,316618,339897
1629724809527,70108,316618,339867
1629724809537,70085,316633,339857
1629724809547,70072,316600,339852
1629724809557,70050,316686,339883
1629724809567,70040,316599,339832
1629724809577,70020,316637,339853
1629724809587,70014,316608,339827
1629724809597,69994,316642,339805
1629724809607,70000,316604,339841
1629724809617,69996,316642,339852
1629724809627,69997,316658,339860
1629724809637,70008,316587,339823
1629724809647,70009,316631,339868
1629724809657,70017,316659,339886
1629724809667,70030,316681,339893
1629724809677,70053,316665,339839
1629724809687,70076,316687,339878
1629724809697,70093,316730,339907
1629724809707,70111,316692,339852
1629724809717,70145,316692,339856
1629724809727,70168,316735,339876
1629724809737,70188,316784,339910
1629724809747,70217,316752,339914
1629724809757,70239,316773,339936
1629724809767,70276,316764,339946
1629724809777,70298,316798,339930
1629724809787,70336,316834,339935
1629724809797,70359,316832,339929
1629724809807,70394,316823,339943
1629724809817,70409,316811,339950
1629724809827,70460,316846,339961
1629724809837,70479,316882,339982
1629724809847,70529,316857,340012
1629724809857,70567,316897,339983
1629724809867,70608,316918,340004
1629724809877,70632,316919,339988
1629724809887,70674,316950,339996
1629724809897,70714,316970,340011
1629724809907,70751,316982,340016
1629724809917,70785,316969,340038
1629724809927,70832,316949,340046
1629724809937,70872,316971,340039
1629724809947,70913,317025,340046
1629724809957,70955,317068,340086
1629724809967,70988,316998,340071
1629724809977,71025,317070,340072
1629724809987,71086,317116,340071
1629724809997,71115,317090,340069
1629724810007,71168,317116,340090
1629724810017,71200,317102,340135
1629724810027,71255,317100,340134
1629724810037,71291,317125,340135
1629724810047,71338,317144,340107
1629724810057,71378,317165,340126
1629724810067,71418,317185,340139
1629724810077,71470,317170,340168
1629724810087,71522,317224,340205
1629724810097,71572,317211,340208
1629724810107,71622,317236,340172
1629724810117,71658,317285,340203
1629724810127,71718,317268,340201
1629724810137,71769,317271,340213
1629724810147,71807,317294,340270
1629724810157,71865,317331,340222
1629724810167,71926,317335,340263
1629724810177,71969,317363,340268
1629724810187,72029,317357,340295
1629724810197,72070,317393,340298
1629724810207,72098,317447,340267
1629724810217,72124,317413,340259
1629724810227,72112,317396,340293
1629724810237,72087,317352,340274
1629724810247,72026,317319,340255
1629724810257,71939,317266,340268
1629724810267,71846,317255,340212
1629724810277,71761,317200,340203
1629724810287,71667,317148,340198
1629724810297,71575,317139,340155
1629724810307,71504,317071,340152
1629724810317,71443,317083,340172
1629724810327,71379,317012,340142
1629724810337,71333,317056,340108
1629724810347,71274,316983,340120
1629724810357,71202,316993,340095
1629724810367,71141,316955,340081
1629724810377,71081,316938,340083
1629724810387,71016,316895,340076
1629724810397,70942,316887,340065
1629724810407,70882,316897,340038
1629724810417,70817,316860,340061
1629724810427,70758,316829,340030
1629724810437,70705,316804,340044
1629724810447,70648,316846,340024
1629724810457,70600,316824,339982
1629724810467,70545,316793,340010
1629724810477,70542,316771,340011
1629724810487,70524,316809,340024
1629724810497,70492,316773,340024
1629724810507,70498,316796,339994
1629724810517,70488,316788,340017
1629724810527,70484,316817,340032
1629724810537,70462,316821,339998
1629724810547,70446,316787,339990
1629724810557,70435,316775,340018
1629724810567,70429,316816,340011
1629724810577,70437,316798,340003
1629724810587,70434,316794,339991
1629724810597,70423,316779,340007
1629724810607,70423,316790,340011
1629724810617,70425,316788,340019
1629724810627,70435,316804,340050
1629724810637,70441,316851,340029
1629724810647,70465,316805,340027
1629724810657,70475,316874,340043
1629724810667,70493,316865,340046
1629724810677,70515,316898,340038
1629724810687,70538,316888,340055
1629724810697,70567,316893,340055
1629724810707,70590,316928,340081
1629724810717,70611,316896,340063
1629724810727,70644,316940,340102
1629724810737,70668,316945,340083
1629724810747,70709,316936,340099
1629724810757,70734,316961,340086
1629724810767,70769,316991,340108
1629724810777,70783,317006,340120
1629724810787,70822,316999,340114
1629724810797,70854,317026,340127
1629724810807,70884,317019,340131
1629724810817,70923,317062,340130
1629724810827,70950,317087,340152
1629724810837,70995,317085,340165
1629724810847,71041,317111,340143
1629724810857,71063,317118,340136
1629724810867,71106,317145,340180
1629724810877,71135,317164,340199
1629724810887,71177,317186,340161
1629724810897,71213,317199,340201
1629724810907,71247,317191,340203
1629724810917,71282,317203,340199
1629724810927,71337,317230,340257
1629724810937,71372,317219,340228
1629724810947,71402,317257,340258
1629724810957,71454,317288,340238
1629724810967,71493,317243,340263
1629724810977,71545,317288,340267
1629724810987,71589,317314,340249
1629724810997,71627,317341,340265
1629724811007,71670,317289,340333
1629724811017,71720,317352,340331
1629724811027,71749,317361,340306
1629724811037,71797,317390,340327
1629724811047,71836,317430,340326
1629724811057,71896,317387,340302
1629724811067,71927,317422,340336
1629724811077,71979,317434,340354
1629724811087,72030,317430,340367
1629724811097,72068,317478,340366
1629724811107,72118,317467,340366
1629724811117,72158,317507,340418
1629724811127,72212,317508,340416
1629724811137,72268,317529,340446
1629724811147,72321,317544,340428
1629724811157,72361,317514,340412
1629724811167,72408,317558,340461
1629724811177,72457,317583,340473
1629724811187,72498,317616,340453
1629724811197,72537,317637,340495
1629724811207,72554,317591,340458
1629724811217,72552,317582,340474
1629724811227,72524,317548,340436
1629724811237,72470,317529,340468
1629724811247,72370,317485,340433
1629724811257,72291,317484,340370
1629724811267,72192,317417,340404
1629724811277,72119,317412,340375
1629724811287,72035,317330,340380
1629724811297,71994,317330,340339
1629724811307,71935,317293,340379
1629724811317,71894,317313,340332
1629724811327,71842,317302,340339
1629724811337,71816,317287,340289
1629724811347,71770,317258,340357
1629724811357,71727,317258,340337
1629724811367,71681,317255,340314
1629724811377,71633,317227,340304
1629724811387,71592,317202,340341
1629724811397,71542,317131,340309
1629724811407,71504,317167,340287
1629724811417,71455,317162,340292
1629724811427,71426,317101,340262
1629724811437,71380,317109,340289
1629724811447,71372,317125,340270
1629724811457,71349,317128,340288
1629724811467,71329,317160,340316
1629724811477,71346,317164,340252
1629724811487,71341,317103,340280
1629724811497,71331,317092,340307
1629724811507,71325,317170,340290
1629724811517,71304,317137,340252
1629724811527,71292,317095,340202
1629724811537,71295,317146,340255
1629724811547,71285,317135,340268
1629724811557,71272,317128,340241
1629724811567,71263,317098,340218
1629724811577,71273,317095,340249
1629724811587,71265,317131,340257
1629724811597,71273,317174,340267
1629724811607,71272,317137,340258
1629724811617,71281,317109,340281
1629724811627,71293,317128,340281
1629724811637,71311,317132,340264
1629724811647,71335,317167,340285
1629724811657,71340,317136,340260
1629724811667,71371,317174,340300
1629724811677,71382,317172,340275
1629724811687,71412,317142,340282
1629724811697,71446,317206,340294
1629724811707,71457,317210,340304
1629724811717,71497,317235,340287
1629724811727,71520,317248,340300
1629724811737,71540,317263,340308
1629724811747,71564,317264,340309
1629724811757,71595,317254,340311
1629724811767,71615,317239,340339
1629724811777,71655,317295,340306
1629724811787,71675,317262,340353
1629724811797,71720,317296,340335
1629724811807,71742,317271,340295
1629724811817,71764,317285,340357
1629724811827,71786,317326,340328
1629724811837,71819,317326,340367
1629724811847,71853,317330,340365
1629724811857,71885,317349,340412
1629724811867,71929,317361,340363
1629724811877,71959,317383,340371
1629724811887,71993,317390,340326
1629724811897,72022,317378,340385
1629724811907,72062,317384,340381
1629724811917,72083,317428,340380
1629724811927,72119,317405,340415
1629724811937,72177,317425,340402
1629724811947,72192,317495,340456
1629724811957,72238,317538,340416
1629724811967,72269,317478,340428
1629724811977,72313,317483,340441
1629724811987,72361,317515,340447
1629724811997,72398,317544,340453
1629724812007,72437,317509,340483
1629724812017,72490,317539,340442
1629724812027,72527,317535,340468
1629724812037,72575,317557,340461
1629724812047,72612,317614,340477
1629724812057,72664,317601,340515
1629724812067,72708,317609,340478
1629724812077,72744,317621,340491
1629724812087,72786,317617,340488
1629724812097,72808,317618,340483
1629724812107,72829,317666,340515
1629724812117,72828,317622,340485
1629724812127,72780,317610,340469
1629724812137,72707,317546,340427
1629724812147,72623,317536,340412
1629724812157,72536,317508,340416
1629724812167,72438,317445,340397
1629724812177,72354,317407,340401
1629724812187,72289,317366,340345
1629724812197,72220,317350,340368
1629724812207,72166,317287,340349
1629724812217,72112,317304,340336
1629724812227,72062,317289,340330
1629724812237,72014,317268,340325
1629724812247,71965,317236,340283
1629724812257,71925,317259,340303
1629724812267,71890,317263,340306
1629724812277,71823,317217,340328
1629724812287,71780,317230,340281
1629724812297,71726,317154,340283
1629724812307,71689,317186,340279
1629724812317,71630,317159,340238
1629724812327,71587,317164,340262
1629724812337,71553,317133,340247
1629724812347,71534,317086,340237
1629724812357,71514,317125,340237
1629724812367,71502,317148,340252
1629724812377,71517,317094,340260
1629724812387,71490,317165,340263
1629724812397,71505,317147,340228
1629724812407,71503,317118,340236
1629724812417,71483,317120,340252
1629724812427,71462,317127,340237
1629724812437,71455,317077,340253
1629724812447,71433,317124,340219
1629724812457,71430,317136,340244
1629724812467,71415,317184,340220
1629724812477,71412,317105,340221
1629724812487,71400,317097,340226
1629724812497,71391,317131,340240
1629724812507,71418,317105,340239
1629724812517,71418,317132,340211
1629724812527,71424,317095,340242
1629724812537,71440,317152,340231
1629724812547,71447,317130,340248
1629724812557,71472,317162,340234
1629724812567,71479,317167,340235
1629724812577,71517,317176,340203
1629724812587,71530,317182,340228
1629724812597,71562,317217,340258
1629724812607,71564,317246,340232
1629724812617,71591,317184,340245
1629724812627,71612,317212,340261
1629724812637,71636,317225,340193
1629724812647,71661,317266,340233
1629724812657,71680,317251,340253
1629724812667,71695,317240,340240
1629724812677,71737,317256,340235
1629724812687,71763,317299,340288
1629724812697,71783,317296,340290
1629724812707,71811,317293,340275
1629724812717,71834,317342,340232
1629724812727,71855,317268,340291
1629724812737,71886,317300,340296
1629724812747,71929,317318,340335
1629724812757,71939,317318,340305
1629724812767,71975,317336,340288
1629724812777,71998,317358,340291
1629724812787,72044,317319,340337
1629724812797,72076,317387,340318
1629724812807,72101,317373,340319
1629724812817,72136,317435,340311
1629724812827,72163,317426,340306
1629724812837,72203,317449,340340
1629724812847,72237,317447,340326
1629724812857,72272,317469,340362
1629724812867,72306,317455,340354
1629724812877,72354,317493,340337
1629724812887,72377,317478,340362
1629724812897,72430,317490,340372
1629724812907,72469,317492,340373
1629724812917,72493,317521,340369
1629724812927,72552,317543,340406
1629724812937,72596,317569,340412
1629724812947,72643,317560,340398
1629724812957,72679,317599,340448
1629724812967,72707,317566,340425
1629724812977,72724,317615,340410
1629724812987,72734,317595,340419
1629724812997,72713,317588,340445
1629724813007,72658,317554,340379
1629724813017,72568,317503,340385
1629724813027,72462,317472,340338
1629724813037,72369,317387,340343
1629724813047,72269,317363,340326
1629724813057,72178,317337,340328
1629724813067,72098,317319,340329
1629724813077,72027,317316,340265
1629724813087,71960,317316,340282
1629724813097,71900,317240,340252
1629724813107,71840,317262,340267
1629724813117,71773,317202,340230
1629724813127,71707,317162,340215
1629724813137,71646,317130,340196
1629724813147,71590,317180,340211
1629724813157,71526,317113,340171
1629724813167,71463,317103,340196
1629724813177,71389,317046,340221
1629724813187,71321,317043,340128
1629724813197,71263,317029,340166
1629724813207,71200,317067,340166
1629724813217,71148,316978,340149
1629724813227,71100,317003,340147
1629724813237,71068,316967,340155
1629724813247,71056,316994,340100
1629724813257,71038,316998,340116
1629724813267,71032,316985,340142
1629724813277,71015,317041,340121
1629724813287,71004,317044,340126
1629724813297,70982,316999,340074
1629724813307,70953,317007,340115
1629724813317,70946,317022,340104
1629724813327,70935,316992,340108
1629724813337,70913,316983,340129
1629724813347,70897,317009,340114
1629724813357,70888,317038,340074
1629724813367,70871,316996,340091
1629724813377,70872,316992,340049
1629724813387,70887,317008,340106
1629724813397,70876,317021,340138
1629724813407,70889,316968,340104
1629724813417,70891,317018,340096
1629724813427,70913,317058,340112
1629724813437,70931,317052,340085
1629724813447,70923,317066,340122
1629724813457,70949,317095,340069
1629724813467,70957,317045,340132
1629724813477,70990,317081,340116
1629724813487,71012,317087,340108
1629724813497,71033,317112,340126
1629724813507,71052,317115,340102
1629724813517,71077,317142,340112
1629724813527,71104,317166,340152
1629724813537,71115,317130,340149
1629724813547,71147,317173,340117
1629724813557,71168,317174,340105
1629724813567,71198,317198,340170
1629724813577,71226,317175,340143
1629724813587,71254,317211,340153
1629724813597,71278,317191,340166
1629724813607,71304,317238,340174
1629724813617,71327,317212,340162
1629724813627,71361,317272,340135
1629724813637,71398,317290,340170
1629724813647,71429,317227,340164
1629724813657,71460,317238,340197
1629724813667,71495,317302,340227
1629724813677,71541,317285,340185
1629724813687,71581,317345,340194
1629724813697,71606,317367,340214
1629724813707,71645,317372,340205
1629724813717,71671,317343,340207
1629724813727,71721,317357,340247
1629724813737,71760,317399,340232
1629724813747,71786,317336,340220
1629724813757,71822,317402,340225
1629724813767,71866,317375,340249
1629724813777,71900,317427,340245
1629724813787,71946,317404,340289
1629724813797,71979,317411,340226
1629724813807,72035,317496,340275
1629724813817,72080,317486,340281
1629724813827,72119,317517,340271
1629724813837,72165,317471,340261
1629724813847,72211,317486,340311
1629724813857,72257,317521,340280
1629724813867,72306,317595,340319
1629724813877,72350,317599,340336
1629724813887,72398,317606,340296
1629724813897,72437,317571,340310
1629724813907,72484,317649,340347
1629724813917,72510,317621,340333
1629724813927,72504,317596,340335
1629724813937,72466,317560,340302
1629724813947,72395,317518,340305
1629724813957,72317,317493,340289
1629724813967,72211,317430,340252
1629724813977,72110,317375,340227
1629724813987,72003,317333,340247
1629724813997,71916,317305,340208
1629724814007,71825,317298,340164
1629724814017,71757,317250,340143
1629724814027,71683,317246,340182
1629724814037,71618,317219,340167
1629724814047,71560,317175,340172
1629724814057,71490,317133,340136
1629724814067,71429,317153,340119
1629724814077,71352,317140,340095
1629724814087,71272,317012,340074
1629724814097,71211,317022,340057
1629724814107,71130,317013,340043
1629724814117,71050,317039,340043
1629724814127,70975,317001,340016
1629724814137,70915,316963,340062
1629724814147,70845,316946,339987
1629724814157,70777,316868,340051
1629724814167,70715,316908,339990
1629724814177,70667,316879,339983
1629724814187,70627,316855,339986
1629724814197,70604,316877,339970
1629724814207,70577,316887,339960
1629724814217,70578,316891,339962
1629724814227,70550,316896,339994
1629724814237,70517,316874,339940
1629724814247,70503,316862,339965
1629724814257,70477,316865,339929
1629724814267,70457,316836,339913
1629724814277,70425,316818,339902
1629724814287,70423,316832,339962
1629724814297,70407,316830,339883
1629724814307,70392,316812,339905
1629724814317,70387,316859,339908
1629724814327,70381,316813,339926
1629724814337,70384,316845,339901
1629724814347,70389,316885,339901
1629724814357,70378,316851,339893
1629724814367,70389,316842,339899
1629724814377,70412,316892,339895
1629724814387,70423,316914,339911
1629724814397,70430,316918,339900
1629724814407,70448,316900,339921
1629724814417,70461,316921,339886
1629724814427,70486,316911,339911
1629724814437,70493,316964,339888
1629724814447,70525,316932,339880
1629724814457,70546,316946,339910
1629724814467,70580,316952,339911
1629724814477,70597,316958,339863
1629724814487,70624,316994,339915
1629724814497,70644,316949,339925
1629724814507,70663,316993,339913
1629724814517,70704,317005,339895
1629724814527,70716,316964,339932
1629724814537,70764,317020,339930
1629724814547,70780,317051,339969
1629724814557,70817,317030,339936
1629724814567,70831,317032,339935
1629724814577,70865,317039,339946
1629724814587,70900,317081,339964
1629724814597,70949,317137,339996
1629724814607,70973,317105,339959
1629724814617,71011,317093,339953
1629724814627,71038,317170,339992
1629724814637,71077,317130,340019
1629724814647,71116,317128,339972
1629724814657,71164,317143,340000
1629724814667,71187,317189,339996
1629724814677,71242,317180,339999
1629724814687,71283,317204,339999
1629724814697,71329,317190,339990
1629724814707,71357,317237,340018
1629724814717,71405,317247,340040
1629724814727,71441,317258,340048
1629724814737,71488,317234,340042
1629724814747,71533,317261,340049
1629724814757,71570,317300,340085
1629724814767,71607,317307,340081
1629724814777,71648,317341,340076
1629724814787,71691,317351,340096
1629724814797,71738,317342,340109
1629724814807,71787,317341,340125
1629724814817,71830,317338,340117
1629724814827,71882,317371,340107
1629724814837,71932,317435,340165
1629724814847,71974,317404,340142
1629724814857,72032,317441,340163
1629724814867,72073,317446,340167
1629724814877,72129,317526,340175
1629724814887,72166,317481,340185
1629724814897,72210,317502,340181
1629724814907,72230,317514,340163
1629724814917,72228,317483,340141
1629724814927,72186,317445,340164
1629724814937,72130,317366,340144
1629724814947,72049,317325,340134
1629724814957,71954,317349,340077
1629724814967,71852,317241,340082
1629724814977,71745,317205,340087
1629724814987,71644,317200,340048
1629724814997,71561,317177,340011
1629724815007,71492,317112,340028
1629724815017,71429,317107,339989
1629724815027,71365,317097,340002
1629724815037,71291,317024,339967
1629724815047,71230,317062,339926
1629724815057,71152,317005,339943
1629724815067,71081,317004,339920
1629724815077,71012,316971,339952
1629724815087,70950,316957,339914
1629724815097,70879,316931,339883
1629724815107,70800,316861,339888
1629724815117,70727,316816,339868
1629724815127,70650,316850,339884
1629724815137,70568,316816,339826
1629724815147,70506,316771,339844
1629724815157,70441,316748,339822
1629724815167,70391,316733,339835
1629724815177,70357,316761,339819
1629724815187,70346,316801,339841
1629724815197,70319,316726,339808
1629724815207,70302,316771,339810
1629724815217,70279,316749,339781
1629724815227,70261,316780,339794
1629724815237,70249,316766,339808
1629724815247,70232,316755,339833
1629724815257,70217,316724,339778
1629724815267,70205,316733,339808
1629724815277,70193,316699,339813
1629724815287,70178,316764,339827
1629724815297,70173,316730,339807
1629724815307,70159,316735,339800
1629724815317,70151,316750,339815
1629724815327,70173,316698,339807
1629724815337,70177,316771,339739
1629724815347,70181,316775,339776
1629724815357,70191,316718,339793
1629724815367,70207,316814,339810
1629724815377,70214,316767,339771
1629724815387,70228,316813,339783
1629724815397,70247,316803,339777
1629724815407,70264,316801,339771
1629724815417,70303,316836,339824
1629724815427,70317,316799,339834
1629724815437,70347,316808,339818
1629724815447,70375,316886,339809
1629724815457,70403,316889,339829
1629724815467,70412,316875,339806
1629724815477,70450,316915,339829
1629724815487,70486,316890,339836
1629724815497,70521,316935,339866
1629724815507,70537,316890,339829
1629724815517,70567,316939,339846
1629724815527,70611,316929,339849
1629724815537,70647,316951,339842
1629724815547,70675,316983,339838
1629724815557,70704,317004,339880
1629724815567,70730,317000,339874
1629724815577,70774,317016,339916
1629724815587,70807,317025,339889
1629724815597,70841,317016,339892
1629724815607,70889,317041,339877
1629724815617,70913,317028,339917
1629724815627,70963,317085,339915
1629724815637,71010,317060,339945
1629724815647,71034,317096,339910
1629724815657,71074,317117,339948
1629724815667,71129,317104,339955
1629724815677,71171,317151,339930
1629724815687,71212,317212,339946
1629724815697,71251,317190,339964
1629724815707,71305,317154,339946
1629724815717,71353,317201,340014
1629724815727,71391,317227,339955
1629724815737,71445,317248,339991
1629724815747,71485,317262,340014
1629724815757,71523,317287,340006
1629724815767,71573,317266,340012
1629724815777,71634,317308,340027
1629724815787,71669,317331,340024
1629724815797,71722,317350,340053
1629724815807,71762,317297,340081
1629724815817,71819,317325,340063
1629724815827,71867,317370,340062
1629724815837,71920,317365,340082
1629724815847,71959,317438,340131
1629724815857,72017,317368,340127
1629724815867,72067,317449,340124
1629724815877,72126,317452,340149
1629724815887,72184,317451,340170
1629724815897,72225,317483,340148
1629724815907,72282,317510,340127
1629724815917,72321,317542,340135
1629724815927,72341,317515,340159
1629724815937,72351,317498,340164
1629724815947,72327,317465,340102
1629724815957,72262,317451,340143
1629724815967,72170,317396,340136
1629724815977,72086,317362,340094
1629724815987,72002,317295,340057
1629724815997,71896,317260,340059
1629724816007,71809,317228,340071
1629724816017,71726,317141,340039
1629724816027,71656,317174,340035
1629724816037,71590,317137,340016
1629724816047,71540,317108,339993
1629724816057,71480,317093,339989
1629724816067,71412,317060,339993
1629724816077,71366,317020,339957
1629724816087,71298,317025,339975
1629724816097,71236,317008,339960
1629724816107,71185,316964,339932
1629724816117,71112,316916,339936
1629724816127,71038,316931,339937
1629724816137,70972,316939,339926
1629724816147,70916,316925,339888
1629724816157,70853,316897,339894
1629724816167,70810,316835,339879
1629724816177,70751,316863,339839
1629724816187,70713,316846,339858
1629724816197,70681,316821,339899
1629724816207,70661,316863,339888
1629724816217,70652,316838,339883
1629724816227,70643,316804,339848
1629724816237,70638,316838,339861
1629724816247,70622,316812,339854
1629724816257,70615,316805,339864
1629724816267,70602,316834,339852
1629724816277,70570,316845,339860
1629724816287,70564,316826,339874
1629724816297,70556,316819,339871
1629724816307,70544,316820,339883
1629724816317,70551,316879,339859
1629724816327,70538,316847,339848
1629724816337,70534,316850,339865
1629724816347,70546,316854,339851
1629724816357,70553,316858,339907
1629724816367,70565,316881,339865
1629724816377,70583,316871,339868
1629724816387,70603,316894,339913
1629724816397,70617,316892,339887
1629724816407,70646,316928,339877
1629724816417,70665,316902,339858
1629724816427,70690,316970,339937
1629724816437,70703,316981,339877
1629724816447,70722,316917,339935
1629724816457,70755,316989,339932
1629724816467,70791,316990,339942
1629724816477,70800,316998,339919
1629724816487,70839,317006,339941
1629724816497,70869,317014,339932
1629724816507,70899,317025,339976
1629724816517,70919,317057,339940
1629724816527,70955,317053,339936
1629724816537,70981,317058,339948
1629724816547,71025,317079,339973
1629724816557,71064,317131,339978
1629724816567,71092,317095,339993
1629724816577,71121,317111,340026
1629724816587,71151,317153,340008
1629724816597,71191,317180,340004
1629724816607,71221,317125,340027
1629724816617,71271,317179,340014
1629724816627,71301,317197,340027
1629724816637,71336,317174,340014
1629724816647,71382,317223,340036
1629724816657,71414,317261,340039
1629724816667,71454,317268,340055
1629724816677,71499,317285,340068
1629724816687,71537,317235,340084
1629724816697,71585,317270,340102
1629724816707,71627,317290,340094
1629724816717,71658,317344,340090
1629724816727,71704,317319,340144
1629724816737,71749,317343,340169
1629724816747,71795,317362,340117
1629724816757,71847,317411,340123
1629724816767,71889,317417,340177
1629724816777,71928,317392,340168
1629724816787,71950,317424,340207
1629724816797,72012,317458,340194
1629724816807,72071,317495,340182
1629724816817,72102,317453,340180
1629724816827,72152,317475,340208
1629724816837,72201,317499,340206
1629724816847,72244,317523,340213
1629724816857,72286,317567,340249
1629724816867,72338,317566,340261
1629724816877,72384,317569,340231
1629724816887,72440,317608,340274
1629724816897,72491,317645,340265
1629724816907,72548,317590,340294
1629724816917,72595,317608,340290
1629724816927,72638,317644,340299
1629724816937,72688,317682,340325
1629724816947,72700,317673,340329
1629724816957,72712,317659,340338
1629724816967,72701,317641,340276
1629724816977,72638,317619,340290
1629724816987,72577,317586,340285
1629724816997,72480,317512,340263
1629724817007,72389,317508,340247
1629724817017,72305,317470,340214
1629724817027,72227,317396,340211
1629724817037,72153,317377,340197
1629724817047,72089,317338,340182
1629724817057,72039,317339,340223
1629724817067,71980,317339,340188
1629724817077,71943,317286,340149
1629724817087,71907,317264,340137
1629724817097,71851,317227,340143
1629724817107,71804,317280,340150
1629724817117,71759,317168,340165
1629724817127,71708,317206,340103
1629724817137,71662,317218,340096
1629724817147,71600,317128,340099
1629724817157,71564,317163,340113
1629724817167,71501,317126,340112
1629724817177,71467,317118,340103
1629724817187,71437,317130,340084
1629724817197,71404,317102,340119
1629724817207,71395,317106,340095
1629724817217,71384,317143,340119
1629724817227,71382,317099,340108
1629724817237,71384,317112,340107
1629724817247,71373,317136,340098
1629724817257,71373,317142,340092
1629724817267,71361,317127,340110
1629724817277,71354,317125,340117
1629724817287,71325,317139,340106
1629724817297,71333,317107,340121
1629724817307,71323,317122,340084
1629724817317,71318,317105,340093
1629724817327,71313,317146,340084
1629724817337,71309,317112,340108
1629724817347,71312,317111,340074
1629724817357,71318,317147,340096
1629724817367,71334,317115,340113
1629724817377,71352,317148,340133
1629724817387,71371,317189,340108
1629724817397,71374,317175,340111
1629724817407,71394,317170,340136
1629724817417,71407,317185,340133
1629724817427,71431,317188,340103
1629724817437,71471,317203,340125
1629724817447,71485,317243,340164
1629724817457,71522,317238,340125
1629724817467,71548,317237,340118
1629724817477,71581,317278,340163
1629724817487,71597,317259,340160
1629724817497,71623,317311,340119
1629724817507,71644,317257,340130
1629724817517,71665,317273,340193
1629724817527,71705,317303,340184
1629724817537,71730,317300,340193
1629724817547,71758,317306,340181
1629724817557,71794,317353,340207
1629724817567,71826,317351,340219
1629724817577,71853,317343,340206
1629724817587,71885,317372,340247
1629724817597,71914,317374,340238
1629724817607,71944,317411,340238
1629724817617,71974,317427,340238
1629724817627,72022,317399,340230
1629724817637,72051,317434,340243
1629724817647,72081,317393,340240
1629724817657,72112,317407,340250
1629724817667,72143,317477,340259
1629724817677,72199,317500,340255
1629724817687,72232,317518,340285
1629724817697,72272,317498,340228
1629724817707,72304,317548,340302
1629724817717,72351,317557,340265
1629724817727,72388,317504,340284
1629724817737,72426,317514,340300
1629724817747,72456,317513,340354
1629724817757,72513,317562,340300
1629724817767,72538,317574,340353
1629724817777,72586,317605,340361
1629724817787,72634,317634,340340
1629724817797,72679,317623,340340
1629724817807,72715,317620,340362
1629724817817,72753,317674,340399
1629724817827,72790,317616,340382
1629724817837,72847,317691,340420
1629724817847,72898,317705,340412
1629724817857,72941,317788,340414
1629724817867,72987,317758,340452
1629724817877,73035,317753,340458
1629724817887,73067,317752,340464
1629724817897,73100,317774,340438
1629724817907,73122,317820,340463
1629724817917,73115,317749,340440
1629724817927,73073,317682,340405
1629724817937,73010,317697,340421
1629724817947,72930,317674,340375
1629724817957,72834,317634,340382
1629724817967,72752,317542,340355
1629724817977,72669,317533,340318
1629724817987,72593,317498,340345
1629724817997,72534,317441,340318
1629724818007,72474,317491,340302
1629724818017,72439,317383,340302
1629724818027,72395,317395,340316
1629724818037,72347,317388,340252
1629724818047,72313,317411,340303
1629724818057,72271,317365,340277
1629724818067,72221,317392,340289
1629724818077,72195,317405,340278
1629724818087,72149,317331,340252
1629724818097,72093,317280,340237
1629724818107,72054,317285,340225
1629724818117,72006,317309,340239
1629724818127,71970,317291,340251
1629724818137,71931,317263,340222
1629724818147,71906,317260,340239
1629724818157,71885,317278,340210
1629724818167,71889,317269,340245
1629724818177,71892,317298,340210
1629724818187,71893,317268,340172
1629724818197,71888,317275,340255
1629724818207,71872,317278,340218
1629724818217,71861,317275,340255
1629724818227,71858,317271,340221
1629724818237,71832,317259,340190
1629724818247,71823,317273,340226
1629724818257,71822,317260,340174
1629724818267,71798,317265,340237
1629724818277,71805,317292,340224
1629724818287,71814,317312,340222
1629724818297,71796,317284,340211
1629724818307,71809,317248,340242
1629724818317,71810,317312,340235
1629724818327,71816,317266,340230
1629724818337,71832,317307,340199
1629724818347,71855,317292,340251
1629724818357,71869,317269,340253
1629724818367,71886,317324,340247
1629724818377,71914,317307,340288
1629724818387,71937,317355,340217
1629724818397,71954,317374,340263
1629724818407,71971,317351,340245
1629724818417,72000,317334,340245
1629724818427,72021,317339,340277
1629724818437,72049,317342,340253
1629724818447,72070,317438,340251
1629724818457,72080,317435,340277
1629724818467,72108,317430,340273
1629724818477,72138,317430,340231
1629724818487,72160,317440,340238
1629724818497,72202,317465,340266
1629724818507,72210,317482,340267
1629724818517,72240,317497,340333
1629724818527,72269,317519,340311
1629724818537,72294,317471,340288
1629724818547,72318,317493,340289
1629724818557,72337,317452,340355
1629724818567,72382,317527,340336
1629724818577,72405,317508,340332
1629724818587,72441,317533,340331
1629724818597,72467,317535,340330
1629724818607,72502,317543,340339
1629724818617,72522,317568,340322
1629724818627,72565,317582,340355
1629724818637,72586,317632,340364
1629724818647,72628,317596,340364
1629724818657,72666,317585,340368
1629724818667,72704,317628,340355
1629724818677,72732,317701,340385
1629724818687,72767,317692,340375
1629724818697,72806,317686,340383
1629724818707,72848,317698,340371
1629724818717,72885,317680,340383
1629724818727,72927,317672,340409
1629724818737,72968,317719,340391
1629724818747,72997,317737,340423
1629724818757,73056,317753,340393
1629724818767,73087,317730,340455
1629724818777,73128,317844,340467
1629724818787,73159,317803,340432
1629724818797,73178,317773,340450
1629724818807,73167,317777,340393
1629724818817,73126,317750,340411
1629724818827,73050,317738,340422
1629724818837,72964,317654,340369
1629724818847,72866,317590,340373
1629724818857,72778,317586,340378
1629724818867,72680,317574,340337
1629724818877,72592,317502,340328
1629724818887,72516,317465,340274
1629724818897,72449,317431,340277
1629724818907,72388,317410,340273
1629724818917,72341,317417,340250
1629724818927,72294,317387,340256
1629724818937,72230,317442,340252
1629724818947,72168,317330,340224
1629724818957,72117,317341,340230
1629724818967,72064,317278,340243
1629724818977,72010,317251,340217
1629724818987,71951,317259,340170
1629724818997,71892,317266,340193
1629724819007,71838,317208,340159
1629724819017,71784,317198,340120
1629724819027,71729,317224,340157
1629724819037,71688,317189,340142
1629724819047,71655,317190,340145
1629724819057,71641,317174,340156
1629724819067,71622,317186,340162
1629724819077,71632,317197,340152
1629724819087,71604,317175,340109
1629724819097,71605,317172,340148
1629724819107,71577,317156,340143
1629724819117,71556,317154,340112
1629724819127,71533,317144,340110
1629724819137,71523,317121,340112
1629724819147,71513,317177,340118
1629724819157,71498,317173,340108
1629724819167,71480,317177,340094
1629724819177,71478,317195,340105
1629724819187,71460,317191,340123
1629724819197,71468,317176,340104
1629724819207,71466,317187,340100
1629724819217,71465,317159,340117
1629724819227,71473,317180,340085
1629724819237,71490,317181,340112
1629724819247,71498,317185,340100
1629724819257,71513,317182,340144
1629724819267,71517,317222,340112
1629724819277,71541,317216,340145
1629724819287,71554,317206,340113
1629724819297,71565,317219,340121
1629724819307,71594,317258,340119
1629724819317,71608,317242,340123
1629724819327,71636,317299,340121
1629724819337,71654,317296,340102
1629724819347,71681,317297,340160
1629724819357,71690,317272,340126
1629724819367,71711,317283,340129
1629724819377,71741,317312,340109
1629724819387,71767,317328,340128
1629724819397,71783,317323,340167
1629724819407,71825,317318,340147
1629724819417,71840,317397,340153
1629724819427,71860,317376,340172
1629724819437,71878,317382,340176
1629724819447,71910,317335,340188
1629724819457,71941,317390,340156
1629724819467,71970,317359,340178
1629724819477,72005,317401,340170
1629724819487,72037,317388,340224
1629724819497,72066,317446,340151
1629724819507,72097,317440,340228
1629724819517,72122,317422,340172
1629724819527,72156,317461,340195
1629724819537,72193,317465,340205
1629724819547,72217,317527,340183
1629724819557,72253,317439,340247
1629724819567,72296,317505,340236
1629724819577,72324,317527,340203
1629724819587,72355,317533,340234
1629724819597,72395,317514,340233
1629724819607,72437,317593,340281
1629724819617,72474,317591,340255
1629724819627,72519,317539,340256
1629724819637,72567,317524,340273
1629724819647,72605,317629,340287
1629724819657,72643,317621,340280
1629724819667,72686,317601,340268
1629724819677,72724,317655,340301
1629724819687,72731,317647,340287
1629724819697,72736,317629,340252
1629724819707,72673,317593,340266
1629724819717,72618,317548,340234
1629724819727,72549,317478,340222
1629724819737,72443,317447,340236
1629724819747,72326,317414,340194
1629724819757,72221,317381,340161
1629724819767,72131,317276,340156
1629724819777,72052,317318,340118
1629724819787,71971,317254,340114
1629724819797,71910,317262,340122
1629724819807,71848,317218,340070
1629724819817,71791,317189,340090
1629724819827,71729,317176,340074
1629724819837,71655,317161,340087
1629724819847,71570,317150,340019
1629724819857,71509,317085,340038
1629724819867,71441,317086,339999
1629724819877,71364,317074,340034
1629724819887,71285,317021,340003
1629724819897,71227,316999,339938
1629724819907,71144,316992,339966
1629724819917,71073,316945,339988
1629724819927,71008,316907,339931
1629724819937,70944,316948,339933
1629724819947,70902,316922,339912
1629724819957,70882,316908,339941
1629724819967,70859,316911,339915
1629724819977,70841,316926,339937
1629724819987,70822,316904,339946
1629724819997,70793,316896,339897
1629724820007,70773,316896,339938
1629724820017,70748,316907,339898
1629724820027,70728,316939,339905
1629724820037,70693,316873,339903
1629724820047,70675,316870,339903
1629724820057,70666,316888,339914
1629724820067,70643,316838,339892
1629724820077,70634,316858,339865
1629724820087,70622,316892,339879
1629724820097,70609,316867,339879
1629724820107,70607,316873,339868
1629724820117,70614,316865,339861
1629724820127,70618,316918,339923
1629724820137,70626,316895,339887
1629724820147,70639,316914,339874
1629724820157,70649,316952,339888
1629724820167,70659,316929,339908
1629724820177,70684,316929,339895
1629724820187,70688,316932,339895
1629724820197,70716,316994,339905
1629724820207,70742,316984,339893
1629724820217,70753,316957,339902
1629724820227,70779,316968,339877
1629724820237,70805,316928,339903
1629724820247,70820,317025,339899
1629724820257,70842,317022,339933
1629724820267,70862,317008,339918
1629724820277,70894,317037,339887
1629724820287,70908,317023,339921
1629724820297,70932,317026,339912
1629724820307,70957,317080,339958
1629724820317,70988,317033,339920
1629724820327,71014,317099,339936
1629724820337,71044,317077,339974
1629724820347,71070,317085,339970
1629724820357,71102,317118,339939
1629724820367,71139,317087,339970
1629724820377,71175,317143,339982
1629724820387,71191,317147,339984
1629724820397,71230,317150,339977
1629724820407,71269,317209,339979
1629724820417,71309,317195,340009
1629724820427,71336,317191,339997
1629724820437,71381,317226,339969
1629724820447,71412,317169,340007
1629724820457,71450,317228,340010
1629724820467,71491,317245,340019
1629724820477,71517,317278,340004
1629724820487,71567,317242,340040
1629724820497,71599,317295,340050
1629724820507,71645,317282,340079
1629724820517,71694,317302,340050
1629724820527,71716,317356,340082
1629724820537,71766,317365,340090
1629724820547,71801,317366,340091
1629724820557,71850,317366,340092
1629724820567,71878,317404,340119
1629724820577,71941,317341,340091
1629724820587,71990,317373,340110
1629724820597,72018,317350,340126
1629724820607,72062,317418,340137
1629724820617,72120,317461,340149
1629724820627,72171,317418,340158
1629724820637,72214,317461,340138
1629724820647,72227,317470,340155
1629724820657,72214,317449,340140
1629724820667,72181,317400,340153
1629724820677,72115,317358,340136
1629724820687,72032,317314,340085
1629724820697,71919,317249,340020
1629724820707,71815,317210,340042
1629724820717,71732,317191,340016
1629724820727,71621,317110,340012
1629724820737,71528,317073,339998
1629724820747,71453,317093,340003
1629724820757,71377,317041,340008
1629724820767,71328,317034,339967
1629724820777,71259,317048,339941
1629724820787,71192,317014,339937
1629724820797,71117,316976,339911
1629724820807,71051,316905,339900
1629724820817,70970,316854,339896
1629724820827,70893,316887,339900
1629724820837,70800,316783,339865
1629724820847,70737,316779,339818
1629724820857,70668,316795,339815
1629724820867,70580,316696,339775
1629724820877,70484,316709,339763
1629724820887,70422,316693,339757
1629724820897,70353,316685,339805
1629724820907,70294,316644,339772
1629724820917,70264,316625,339722
1629724820927,70231,316658,339775
1629724820937,70210,316618,339744
1629724820947,70193,316641,339720
1629724820957,70168,316611,339728
1629724820967,70146,316634,339728
1629724820977,70122,316628,339736
1629724820987,70100,316612,339738
1629724820997,70064,316565,339725
1629724821007,70053,316613,339753
1629724821017,70016,316589,339673
1629724821027,70011,316572,339740
1629724821037,70000,316584,339717
1629724821047,69982,316595,339728
1629724821057,69983,316558,339687
1629724821067,69974,316622,339740
1629724821077,69975,316627,339721
1629724821087,69981,316600,339714
1629724821097,69993,316586,339705
1629724821107,70000,316614,339738
1629724821117,70006,316678,339743
1629724821127,70030,316660,339695
1629724821137,70035,316652,339710
1629724821147,70045,316657,339720
1629724821157,70083,316691,339733
1629724821167,70089,316662,339759
1629724821177,70121,316684,339742
1629724821187,70145,316727,339738
1629724821197,70165,316684,339742
1629724821207,70170,316734,339768
1629724821217,70200,316728,339807
1629724821227,70229,316710,339776
1629724821237,70255,316725,339745
1629724821247,70297,316758,339761
1629724821257,70316,316757,339770
1629724821267,70350,316799,339786
1629724821277,70371,316820,339743
1629724821287,70404,316780,339791
1629724821297,70432,316838,339783
1629724821307,70452,316840,339808
1629724821317,70490,316845,339853
1629724821327,70522,316851,339804
1629724821337,70559,316832,339811
1629724821347,70592,316862,339837
1629724821357,70623,316872,339822
1629724821367,70663,316917,339844
1629724821377,70691,316897,339839
1629724821387,70735,316947,339837
1629724821397,70769,316917,339856
1629724821407,70820,316966,339851
1629724821417,70863,316999,339849
1629724821427,70895,316960,339864
1629724821437,70931,316998,339892
1629724821447,70977,317014,339918
1629724821457,71007,317039,339862
1629724821467,71052,317023,339866
1629724821477,71103,317046,339904
1629724821487,71144,317065,339914
1629724821497,71183,317080,339930
1629724821507,71233,317085,339933
1629724821517,71271,317086,339961
1629724821527,71313,317109,339981
1629724821537,71358,317133,339954
1629724821547,71401,317149,339972
1629724821557,71437,317157,339973
1629724821567,71497,317211,339970
1629724821577,71560,317213,340014
1629724821587,71605,317161,339992
1629724821597,71650,317207,339989
1629724821607,71708,317226,340016
1629724821617,71749,317277,340041
1629724821627,71787,317270,340031
1629724821637,71833,317328,340044
1629724821647,71853,317289,340016
1629724821657,71840,317251,340042
1629724821667,71792,317187,339996
1629724821677,71739,317198,340002
1629724821687,71635,317145,339965
1629724821697,71524,317117,339936
1629724821707,71428,317031,339916
1629724821717,71316,316982,339928
1629724821727,71231,316941,339896
1629724821737,71157,316898,339918
1629724821747,71093,316888,339877
1629724821757,71026,316850,339852
1629724821767,70952,316861,339851
1629724821777,70894,316848,339851
1629724821787,70820,316779,339813
1629724821797,70763,316779,339807
1629724821807,70689,316661,339772
1629724821817,70617,316715,339750
1629724821827,70543,316663,339752
1629724821837,70459,316652,339732
1629724821847,70386,316623,339750
1629724821857,70303,316571,339722
1629724821867,70225,316568,339709
1629724821877,70151,316531,339711
1629724821887,70104,316534,339697
1629724821897,70040,316460,339693
1629724821907,69983,316494,339651
1629724821917,69947,316443,339654
1629724821927,69924,316471,339652
1629724821937,69908,316510,339681
1629724821947,69904,316458,339638
1629724821957,69882,316463,339655
1629724821967,69870,316434,339645
1629724821977,69829,316455,339655
1629724821987,69820,316429,339607
1629724821997,69795,316465,339644
1629724822007,69796,316445,339645
1629724822017,69765,316430,339645
1629724822027,69742,316513,339635
1629724822037,69746,316505,339623
1629724822047,69732,316425,339643
1629724822057,69727,316484,339636
1629724822067,69743,316462,339629
1629724822077,69737,316475,339602
1629724822087,69742,316459,339612
1629724822097,69761,316485,339607
1629724822107,69776,316519,339632
1629724822117,69783,316535,339634
1629724822127,69802,316544,339624
1629724822137,69817,316542,339615
1629724822147,69841,316550,339626
1629724822157,69861,316557,339649
1629724822167,69885,316581,339658
1629724822177,69908,316553,339639
1629724822187,69914,316590,339641
1629724822197,69938,316576,339632
1629724822207,69968,316565,339663
1629724822217,70000,316584,339671
1629724822227,70032,316600,339667
1629724822237,70058,316587,339675
1629724822247,70088,316624,339687
1629724822257,70116,316663,339717
1629724822267,70147,316638,339716
1629724822277,70171,316655,339738
1629724822287,70220,316712,339700
1629724822297,70240,316723,339736
1629724822307,70284,316708,339720
1629724822317,70313,316737,339732
1629724822327,70358,316757,339749
1629724822337,70380,316807,339736
1629724822347,70417,316818,339750
1629724822357,70467,316781,339754
1629724822367,70496,316806,339738
1629724822377,70535,316811,339771
1629724822387,70572,316839,339729
1629724822397,70615,316861,339794
1629724822407,70657,316887,339757
1629724822417,70700,316895,339817
1629724822427,70750,316870,339824
1629724822437,70783,316895,339792
1629724822447,70830,316955,339855
1629724822457,70864,316936,339853
1629724822467,70907,316956,339845
1629724822477,70948,316960,339861
1629724822487,71003,316971,339855
1629724822497,71040,316985,339887
1629724822507,71084,317023,339893
1629724822517,71128,317026,339876
1629724822527,71169,317054,339876
1629724822537,71219,317021,339918
1629724822547,71269,317061,339908
1629724822557,71319,317049,339918
1629724822567,71362,317090,339914
1629724822577,71422,317104,339941
1629724822587,71464,317107,339962
1629724822597,71518,317125,339952
1629724822607,71566,317185,339981
1629724822617,71621,317160,339983
1629724822627,71663,317176,339999
1629724822637,71723,317197,340003
1629724822647,71769,317215,340030
1629724822657,71796,317265,340006
1629724822667,71808,317264,339996
1629724822677,71792,317165,340022
1629724822687,71747,317151,339960
1629724822697,71671,317085,339936
1629724822707,71585,317075,339883
1629724822717,71486,316974,339902
1629724822727,71404,316929,339878
1629724822737,71304,316910,339859
1629724822747,71217,316898,339842
1629724822757,71143,316847,339872
1629724822767,71073,316851,339863
1629724822777,71009,316836,339850
1629724822787,70947,316782,339816
1629724822797,70896,316751,339837
1629724822807,70840,316751,339811
1629724822817,70765,316702,339779
1629724822827,70700,316677,339757
1629724822837,70638,316669,339739
1629724822847,70559,316610,339731
1629724822857,70491,316606,339728
1629724822867,70430,316601,339755
1629724822877,70370,316536,339726
1629724822887,70295,316522,339670
1629724822897,70235,316537,339691
1629724822907,70180,316526,339653
1629724822917,70134,316522,339653
1629724822927,70095,316468,339662
1629724822937,70088,316492,339669
1629724822947,70077,316508,339699
1629724822957,70058,316530,339680
1629724822967,70046,316459,339687
1629724822977,70034,316501,339682
1629724822987,70015,316445,339655
1629724822997,69993,316505,339645
1629724823007,69985,316442,339656
1629724823017,69965,316454,339609
1629724823027,69957,316471,339613
1629724823037,69943,316449,339649
1629724823047,69944,316456,339646
1629724823057,69951,316473,339645
1629724823067,69941,316499,339625
1629724823077,69937,316485,339634
1629724823087,69948,316472,339620
1629724823097,69959,316467,339649
1629724823107,69967,316476,339632
1629724823117,69982,316464,339657
1629724823127,69997,316499,339650
1629724823137,70022,316558,339681
1629724823147,70038,316536,339670
1629724823157,70050,316565,339638
1629724823167,70078,316533,339667
1629724823177,70103,316557,339690
1629724823187,70128,316561,339695
1629724823197,70151,316550,339681
1629724823207,70170,316602,339684
1629724823217,70195,316609,339675
1629724823227,70238,316633,339686
1629724823237,70266,316648,339664
1629724823247,70283,316636,339677
1629724823257,70313,316711,339706
1629724823267,70357,316671,339717
1629724823277,70387,316641,339726
1629724823287,70418,316723,339718
1629724823297,70453,316700,339757
1629724823307,70491,316725,339773
1629724823317,70510,316775,339798
1629724823327,70551,316785,339777
1629724823337,70584,316787,339776
1629724823347,70619,316785,339793
1629724823357,70658,316783,339794
1629724823367,70697,316825,339772
1629724823377,70730,316838,339769
1629724823387,70774,316847,339832
1629724823397,70815,316852,339819
1629724823407,70850,316876,339844
1629724823417,70904,316895,339903
1629724823427,70944,316887,339829
1629724823437,70980,316951,339868
1629724823447,71021,316946,339827
1629724823457,71074,316945,339869
1629724823467,71123,316981,339872
1629724823477,71153,316976,339882
1629724823487,71195,316979,339919
1629724823497,71244,317052,339895
1629724823507,71292,317054,339907
1629724823517,71331,317003,339913
1629724823527,71387,317076,339970
1629724823537,71426,317058,339970
1629724823547,71473,317095,339960
1629724823557,71518,317123,340016
1629724823567,71575,317157,339964
1629724823577,71608,317107,339968
1629724823587,71664,317161,340012
1629724823597,71710,317164,340027
1629724823607,71762,317197,340027
1629724823617,71801,317232,340038
1629724823627,71861,317225,340025
1629724823637,71907,317329,340050
1629724823647,71963,317210,340078
1629724823657,72017,317268,340100
1629724823667,72067,317289,340116
1629724823677,72095,317355,340111
1629724823687,72121,317306,340112
1629724823697,72108,317275,340104
1629724823707,72083,317280,340093
1629724823717,72026,317189,340074
1629724823727,71943,317212,340043
1629724823737,71851,317122,340042
1629724823747,71755,317106,340000
1629724823757,71663,317017,339982
1629724823767,71600,317051,339988
1629724823777,71513,317042,339933
1629724823787,71451,317011,339988
1629724823797,71379,316948,339971
1629724823807,71331,316909,339966
1629724823817,71286,316903,339940
1629724823827,71245,316892,339954
1629724823837,71188,316835,339917
1629724823847,71122,316855,339932
1629724823857,71077,316835,339923
1629724823867,71017,316799,339922
1629724823877,70968,316806,339905
1629724823887,70913,316776,339913
1629724823897,70852,316730,339895
1629724823907,70794,316751,339862
1629724823917,70758,316722,339885
1629724823927,70704,316738,339865
1629724823937,70676,316691,339850
1629724823947,70650,316709,339882
1629724823957,70638,316698,339858
1629724823967,70638,316684,339869
1629724823977,70630,316716,339911
1629724823987,70606,316728,339906
1629724823997,70616,316719,339904
1629724824007,70603,316717,339869
1629724824017,70579,316745,339900
1629724824027,70567,316730,339862
1629724824037,70570,316680,339857
1629724824047,70543,316731,339897
1629724824057,70542,316749,339915
1629724824067,70539,316720,339901
1629724824077,70541,316747,339899
1629724824087,70544,316734,339897
1629724824097,70551,316695,339917
1629724824107,70558,316785,339907
1629724824117,70567,316786,339885
1629724824127,70578,316766,339924
1629724824137,70597,316771,339919
1629724824147,70611,316793,339914
1629724824157,70629,316847,339892
1629724824167,70660,316795,339950
1629724824177,70685,316833,339946
1629724824187,70703,316868,339946
1629724824197,70718,316821,339976
1629724824207,70742,316849,339929
1629724824217,70768,316887,339947
1629724824227,70780,316854,339960
1629724824237,70817,316886,339996
1629724824247,70842,316936,339980
1629724824257,70875,316947,339960
1629724824267,70898,316912,339997
1629724824277,70933,316942,339981
1629724824287,70973,316945,339998
1629724824297,70992,316963,339999
1629724824307,71015,316993,339967
1629724824317,71040,317039,340022
1629724824327,71086,317019,340036
1629724824337,71104,317040,340032
1629724824347,71142,317051,340045
1629724824357,71176,317034,340071
1629724824367,71210,317080,340074
1629724824377,71240,317117,340073
1629724824387,71265,317099,340072
1629724824397,71313,317119,340047
1629724824407,71348,317090,340060
1629724824417,71383,317104,340103
1629724824427,71430,317146,340111
1629724824437,71466,317132,340113
1629724824447,71493,317213,340126
1629724824457,71531,317183,340147
1629724824467,71570,317218,340079
1629724824477,71613,317238,340171
1629724824487,71655,317169,340163
1629724824497,71697,317234,340164
1629724824507,71743,317276,340142
1629724824517,71781,317316,340207
1629724824527,71825,317280,340178
1629724824537,71869,317310,340221
1629724824547,71902,317344,340255
1629724824557,71949,317375,340244
1629724824567,71993,317383,340202
1629724824577,72042,317372,340270
1629724824587,72079,317416,340273
1629724824597,72135,317417,340277
1629724824607,72168,317426,340267
1629724824617,72221,317391,340317
1629724824627,72272,317418,340279
1629724824637,72312,317495,340278
1629724824647,72385,317447,340336
1629724824657,72417,317512,340306
1629724824667,72447,317500,340352
1629724824677,72478,317518,340352
1629724824687,72510,317534,340343
1629724824697,72479,317490,340321
1629724824707,72453,317448,340304
1629724824717,72378,317389,340289
1629724824727,72300,317348,340259
1629724824737,72209,317337,340265
1629724824747,72123,317264,340249
1629724824757,72058,317287,340244
1629724824767,71988,317241,340236
1629724824777,71923,317218,340217
1629724824787,71881,317198,340207
1629724824797,71827,317221,340214
1629724824807,71796,317175,340207
1629724824817,71758,317164,340200
1629724824827,71709,317167,340200
1629724824837,71671,317145,340184
1629724824847,71642,317128,340182
1629724824857,71598,317088,340164
1629724824867,71554,317107,340214
1629724824877,71518,317088,340139
1629724824887,71484,317044,340158
1629724824897,71442,317036,340132
1629724824907,71401,317076,340176
1629724824917,71392,317073,340160
1629724824927,71357,317050,340167
1629724824937,71365,317061,340173
1629724824947,71353,317006,340145
1629724824957,71360,317055,340136
1629724824967,71362,317075,340163
1629724824977,71349,317062,340157
1629724824987,71337,317074,340170
1629724824997,71330,317074,340130
1629724825007,71320,317084,340101
1629724825017,71309,317085,340137
1629724825027,71293,317045,340134
1629724825037,71281,317049,340163
1629724825047,71289,317052,340144
1629724825057,71276,317110,340160
1629724825067,71284,317054,340140
1629724825077,71284,317075,340185
1629724825087,71299,317066,340158
1629724825097,71317,317077,340173
1629724825107,71322,317076,340174
1629724825117,71337,317073,340136
1629724825127,71361,317110,340152
1629724825137,71363,317140,340179
1629724825147,71401,317147,340180
1629724825157,71405,317184,340192
1629724825167,71445,317211,340201
1629724825177,71469,317147,340209
1629724825187,71481,317181,340204
1629724825197,71500,317212,340215
1629724825207,71543,317175,340184
1629724825217,71563,317220,340229
1629724825227,71590,317188,340250
1629724825237,71627,317252,340209
1629724825247,71642,317224,340229
1629724825257,71662,317213,340234
1629724825267,71697,317259,340246
1629724825277,71724,317231,340261
1629724825287,71755,317274,340271
1629724825297,71791,317263,340266
1629724825307,71826,317268,340299
1629724825317,71855,317310,340270
1629724825327,71880,317322,340266
1629724825337,71919,317339,340271
1629724825347,71943,317334,340274
1629724825357,71975,317337,340305
1629724825367,72013,317398,340329
1629724825377,72049,317360,340304
1629724825387,72091,317376,340313
1629724825397,72128,317425,340374
1629724825407,72146,317436,340331
1629724825417,72178,317405,340313
1629724825427,72215,317417,340353
1629724825437,72247,317456,340341
1629724825447,72287,317489,340376
1629724825457,72347,317464,340376
1629724825467,72378,317510,340354
1629724825477,72421,317488,340405
1629724825487,72467,317487,340372
1629724825497,72492,317535,340416
1629724825507,72535,317536,340403
1629724825517,72578,317538,340402
1629724825527,72632,317584,340419
1629724825537,72669,317596,340428
1629724825547,72699,317617,340453
1629724825557,72757,317651,340446
1629724825567,72798,317614,340451
1629724825577,72830,317667,340414
1629724825587,72847,317642,340461
1629724825597,72859,317627,340448
1629724825607,72825,317595,340438
1629724825617,72786,317576,340385
1629724825627,72700,317596,340413
1629724825637,72618,317507,340396
1629724825647,72525,317472,340373
1629724825657,72436,317442,340349
1629724825667,72360,317396,340324
1629724825677,72281,317404,340359
1629724825687,72220,317327,340308
1629724825697,72180,317329,340279
1629724825707,72109,317313,340294
1629724825717,72071,317244,340285
1629724825727,72037,317251,340266
1629724825737,71988,317265,340277
1629724825747,71933,317247,340277
1629724825757,71891,317235,340245
1629724825767,71844,317227,340250
1629724825777,71794,317190,340237
1629724825787,71748,317194,340226
1629724825797,71706,317105,340211
1629724825807,71657,317116,340183
1629724825817,71600,317135,340170
1629724825827,71571,317135,340192
1629724825837,71536,317114,340194
1629724825847,71538,317097,340223
1629724825857,71531,317138,340216
1629724825867,71530,317099,340200
1629724825877,71522,317116,340178
1629724825887,71508,317122,340190
1629724825897,71502,317126,340219
1629724825907,71483,317118,340196
1629724825917,71455,317082,340190
1629724825927,71448,317106,340168
1629724825937,71447,317111,340199
1629724825947,71438,317097,340201
1629724825957,71425,317159,340195
1629724825967,71412,317108,340179
1629724825977,71419,317134,340224
1629724825987,71420,317106,340204
1629724825997,71415,317123,340185
1629724826007,71414,317138,340219
1629724826017,71425,317124,340194
1629724826027,71445,317154,340222
1629724826037,71456,317163,340182
1629724826047,71464,317165,340214
1629724826057,71483,317133,340216
1629724826067,71506,317149,340226
1629724826077,71528,317207,340238
1629724826087,71542,317188,340177
1629724826097,71564,317175,340199
1629724826107,71592,317228,340249
1629724826117,71614,317217,340224
1629724826127,71636,317225,340224
1629724826137,71657,317224,340209
1629724826147,71671,317249,340222
1629724826157,71703,317257,340231
1629724826167,71727,317274,340239
1629724826177,71757,317277,340285
1629724826187,71771,317226,340234
1629724826197,71803,317299,340249
1629724826207,71825,317268,340258
1629724826217,71849,317355,340256
1629724826227,71875,317306,340282
1629724826237,71902,317312,340278
1629724826247,71933,317356,340256
1629724826257,71965,317346,340298
1629724826267,71993,317370,340287
1629724826277,72022,317408,340298
1629724826287,72047,317381,340297
1629724826297,72089,317400,340291
1629724826307,72126,317424,340311
1629724826317,72155,317418,340307
1629724826327,72184,317451,340306
1629724826337,72215,317406,340297
1629724826347,72259,317428,340312
1629724826357,72288,317466,340330
1629724826367,72320,317494,340307
1629724826377,72363,317522,340328
1629724826387,72406,317545,340369
1629724826397,72435,317535,340367
1629724826407,72475,317541,340376
1629724826417,72515,317573,340388
1629724826427,72565,317524,340409
1629724826437,72606,317572,340416
1629724826447,72654,317587,340400
1629724826457,72692,317646,340400
1629724826467,72744,317658,340421
1629724826477,72762,317629,340376
1629724826487,72795,317626,340434
1629724826497,72835,317645,340407
1629724826507,72840,317646,340442
1629724826517,72812,317606,340434
1629724826527,72744,317567,340367
1629724826537,72671,317500,340351
1629724826547,72553,317506,340330
1629724826557,72452,317428,340320
1629724826567,72371,317378,340288
1629724826577,72282,317330,340291
1629724826587,72196,317299,340284
1629724826597,72137,317334,340248
1629724826607,72073,317291,340237
1629724826617,72014,317248,340218
1629724826627,71955,317234,340227
1629724826637,71905,317193,340191
1629724826647,71846,317220,340206
1629724826657,71800,317166,340220
1629724826667,71739,317148,340208
1629724826677,71682,317139,340182
1629724826687,71620,317108,340157
1629724826697,71556,317045,340171
1629724826707,71479,317043,340144
1629724826717,71441,317064,340115
1629724826727,71376,317023,340134
1629724826737,71315,316997,340087
1629724826747,71273,317035,340101
1629724826757,71250,316989,340100
1629724826767,71225,316979,340078
1629724826777,71222,317017,340144
1629724826787,71210,316974,340116
1629724826797,71194,316993,340128
1629724826807,71178,316975,340108
1629724826817,71155,317004,340103
1629724826827,71141,316972,340126
1629724826837,71121,317019,340099
1629724826847,71108,317004,340081
1629724826857,71084,316995,340064
1629724826867,71080,316979,340055
1629724826877,71072,316999,340064
1629724826887,71059,316948,340064
1629724826897,71057,316932,340052
1629724826907,71053,316991,340039
1629724826917,71050,316997,340033
1629724826927,71054,317001,340042
1629724826937,71067,317044,340050
1629724826947,71081,316993,340062
1629724826957,71095,317000,340045
1629724826967,71107,317034,340041
1629724826977,71127,317017,340052
1629724826987,71143,317030,340075
1629724826997,71163,317023,340058
1629724827007,71177,317026,340120
1629724827017,71206,317076,340074
1629724827027,71216,317058,340046
1629724827037,71247,317095,340079
1629724827047,71266,317081,340082
1629724827057,71286,317113,340095
1629724827067,71313,317088,340089
1629724827077,71337,317120,340069
1629724827087,71373,317116,340117
1629724827097,71382,317150,340105
1629724827107,71402,317125,340089
1629724827117,71437,317145,340134
1629724827127,71464,317167,340117
1629724827137,71483,317177,340151
1629724827147,71519,317178,340123
1629724827157,71527,317230,340128
1629724827167,71574,317225,340163
1629724827177,71612,317220,340142
1629724827187,71636,317214,340127
1629724827197,71666,317223,340168
1629724827207,71703,317275,340139
1629724827217,71734,317279,340181
1629724827227,71768,317284,340150
1629724827237,71797,317311,340177
1629724827247,71831,317281,340178
1629724827257,71871,317320,340121
1629724827267,71910,317311,340119
1629724827277,71953,317323,340171
1629724827287,71974,317332,340181
1629724827297,72009,317373,340211
1629724827307,72050,317407,340184
1629724827317,72100,317405,340165
1629724827327,72130,317403,340244
1629724827337,72188,317415,340217
1629724827347,72217,317430,340204
1629724827357,72250,317417,340241
1629724827367,72292,317465,340189
1629724827377,72341,317435,340249
1629724827387,72388,317475,340252
1629724827397,72431,317510,340247
1629724827407,72485,317513,340262
1629724827417,72518,317515,340283
1629724827427,72565,317550,340283
1629724827437,72574,317538,340291
1629724827447,72570,317537,340249
1629724827457,72533,317500,340240
1629724827467,72452,317461,340234
1629724827477,72370,317393,340185
1629724827487,72271,317346,340167
1629724827497,72156,317300,340175
1629724827507,72056,317241,340173
1629724827517,71956,317192,340175
1629724827527,71886,317149,340116
1629724827537,71813,317184,340113
1629724827547,71748,317124,340075
1629724827557,71692,317102,340055
1629724827567,71633,317117,340051
1629724827577,71570,317055,340065
1629724827587,71508,317040,340025
1629724827597,71444,317048,340041
1629724827607,71377,316997,339992
1629724827617,71311,316959,340027
1629724827627,71230,316901,340008
1629724827637,71161,316885,340037
1629724827647,71107,316885,339953
1629724827657,71033,316909,339942
1629724827667,70972,316861,339934
1629724827677,70910,316792,339935
1629724827687,70854,316842,339947
1629724827697,70802,316816,339898
1629724827707,70772,316843,339920
1629724827717,70755,316814,339903
1629724827727,70745,316789,339928
1629724827737,70733,316831,339878
1629724827747,70718,316791,339904
1629724827757,70694,316842,339905
1629724827767,70679,316793,339898
1629724827777,70658,316779,339858
1629724827787,70638,316793,339856
1629724827797,70610,316825,339898
1629724827807,70604,316772,339875
1629724827817,70595,316769,339838
1629724827827,70581,316815,339874
1629724827837,70562,316779,339845
1629724827847,70552,316813,339871
1629724827857,70548,316734,339905
1629724827867,70545,316836,339873
1629724827877,70555,316835,339887
1629724827887,70577,316823,339891
1629724827897,70584,316854,339866
1629724827907,70607,316833,339922
1629724827917,70615,316873,339873
1629724827927,70640,316842,339897
1629724827937,70639,316844,339877
1629724827947,70673,316871,339875
1629724827957,70696,316849,339880
1629724827967,70704,316899,339878
1629724827977,70719,316894,339858
1629724827987,70741,316950,339897
1629724827997,70760,316900,339864
1629724828007,70777,316885,339859
1629724828017,70815,316875,339907
1629724828027,70832,316927,339901
1629724828037,70857,316945,339874
1629724828047,70897,316991,339904
1629724828057,70917,317003,339905
1629724828067,70953,317007,339894
1629724828077,70973,316998,339900
1629724828087,71005,316976,339931
1629724828097,71036,317049,339965
1629724828107,71071,317049,339946
1629724828117,71096,317033,339937
1629724828127,71137,317095,339945
1629724828137,71173,317051,339972
1629724828147,71204,317070,339952
1629724828157,71249,317062,339977
1629724828167,71284,317077,339965
1629724828177,71321,317132,339993
1629724828187,71347,317138,339977
1629724828197,71391,317139,339991
1629724828207,71435,317153,339977
1629724828217,71474,317204,340004
1629724828227,71504,317212,340013
1629724828237,71560,317179,340007
1629724828247,71591,317191,340040
1629724828257,71639,317215,340046
1629724828267,71665,317240,340045
1629724828277,71716,317226,340029
1629724828287,71772,317256,340038
1629724828297,71811,317253,340059
1629724828307,71842,317283,340090
1629724828317,71886,317327,340056
1629724828327,71935,317277,340092
1629724828337,71982,317341,340073
1629724828347,72037,317380,340107
1629724828357,72070,317385,340110
1629724828367,72120,317387,340084
1629724828377,72171,317375,340094
1629724828387,72216,317359,340107
1629724828397,72265,317447,340131
1629724828407,72324,317467,340134
1629724828417,72367,317477,340173
1629724828427,72411,317439,340139
1629724828437,72432,317449,340164
1629724828447,72412,317442,340158
1629724828457,72384,317427,340115
1629724828467,72314,317408,340101
1629724828477,72222,317377,340073
1629724828487,72125,317254,340062
1629724828497,72020,317238,340051
1629724828507,71930,317216,340043
1629724828517,71834,317129,340027
1629724828527,71744,317097,339992
1629724828537,71689,317073,340000
1629724828547,71627,317077,339951
1629724828557,71555,317051,339955
1629724828567,71511,317004,339921
1629724828577,71457,317008,339931
1629724828587,71379,316943,339921
1629724828597,71331,316925,339934
1629724828607,71245,316899,339876
1629724828617,71199,316890,339898
1629724828627,71113,316860,339882
1629724828637,71037,316827,339829
1629724828647,70961,316820,339875
1629724828657,70906,316768,339866
1629724828667,70844,316805,339816
1629724828677,70756,316744,339803
1629724828687,70737,316741,339808
1629724828697,70674,316709,339797
1629724828707,70638,316751,339799
1629724828717,70620,316717,339826
1629724828727,70602,316742,339812
1629724828737,70585,316728,339822
1629724828747,70565,316740,339809
1629724828757,70550,316704,339791
1629724828767,70535,316726,339793
1629724828777,70520,316735,339772
1629724828787,70491,316686,339819
1629724828797,70465,316708,339804
1629724828807,70449,316690,339738
1629724828817,70451,316708,339760
1629724828827,70426,316718,339758
1629724828837,70421,316709,339743
1629724828847,70424,316709,339740
1629724828857,70436,316753,339761
1629724828867,70435,316709,339769
1629724828877,70438,316715,339760
1629724828887,70454,316739,339791
1629724828897,70467,316754,339777
1629724828907,70484,316757,339794
1629724828917,70497,316763,339772
1629724828927,70508,316773,339808
1629724828937,70552,316757,339767
1629724828947,70569,316757,339795
1629724828957,70583,316781,339779
1629724828967,70602,316780,339775
1629724828977,70626,316821,339781
1629724828987,70636,316793,339762
1629724828997,70662,316851,339777
1629724829007,70696,316835,339815
1629724829017,70734,316854,339804
1629724829027,70760,316882,339795
1629724829037,70781,316879,339805
1629724829047,70812,316894,339808
1629724829057,70841,316910,339820
1629724829067,70862,316893,339816
1629724829077,70887,316906,339854
1629724829087,70930,316951,339856
1629724829097,70960,316946,339843
1629724829107,70980,316966,339896
1629724829117,71022,316942,339858
1629724829127,71064,316978,339874
1629724829137,71097,316988,339882
1629724829147,71129,316993,339882
1629724829157,71168,317023,339878
1629724829167,71205,317044,339930
1629724829177,71242,317043,339885
1629724829187,71274,317046,339868
1629724829197,71326,317029,339900
1629724829207,71356,317087,339916
1629724829217,71398,317057,339897
1629724829227,71454,317077,339904
1629724829237,71481,317134,339933
1629724829247,71517,317155,339938
1629724829257,71572,317126,339954
1629724829267,71621,317164,339959
1629724829277,71657,317175,339945
1629724829287,71695,317186,339961
1629724829297,71738,317221,339983
1629724829307,71773,317258,339977
1629724829317,71817,317261,339997
1629724829327,71875,317217,340024
1629724829337,71922,317268,339983
1629724829347,71959,317280,340030
1629724829357,72004,317353,340013
1629724829367,72047,317313,340063
1629724829377,72094,317348,340060
1629724829387,72158,317351,340081
1629724829397,72204,317329,340088
1629724829407,72259,317359,340098
1629724829417,72322,317382,340141
1629724829427,72354,317431,340107
1629724829437,72392,317438,340122
1629724829447,72435,317426,340139
1629724829457,72444,317400,340137
1629724829467,72440,317419,340111
1629724829477,72403,317387,340074
1629724829487,72354,317344,340064
1629724829497,72258,317282,340063
1629724829507,72157,317224,340015
1629724829517,72071,317172,340035
1629724829527,71980,317184,339999
1629724829537,71881,317094,340004
1629724829547,71806,317094,339974
1629724829557,71749,317055,339976
1629724829567,71683,317069,339960
1629724829577,71626,317027,339941
1629724829587,71565,316978,339918
1629724829597,71518,316977,339942
1629724829607,71438,316985,339885
1629724829617,71379,316934,339897
1629724829627,71310,316907,339879
1629724829637,71249,316898,339833
1629724829647,71179,316848,339852
1629724829657,71116,316820,339826
1629724829667,71044,316832,339828
1629724829677,70998,316787,339790
1629724829687,70921,316764,339811
1629724829697,70871,316732,339820
1629724829707,70824,316704,339835
1629724829717,70784,316759,339789
1629724829727,70769,316770,339798
1629724829737,70738,316728,339771
1629724829747,70728,316750,339788
1629724829757,70728,316684,339787
1629724829767,70710,316750,339787
1629724829777,70693,316739,339784
1629724829787,70680,316728,339770
1629724829797,70662,316699,339781
1629724829807,70654,316735,339752
1629724829817,70636,316758,339761
1629724829827,70628,316739,339753
1629724829837,70617,316723,339727
1629724829847,70614,316733,339749
1629724829857,70605,316740,339785
1629724829867,70615,316718,339759
1629724829877,70613,316731,339760
1629724829887,70618,316773,339760
1629724829897,70648,316735,339778
1629724829907,70649,316758,339797
1629724829917,70664,316795,339778
1629724829927,70682,316807,339743
1629724829937,70694,316809,339777
1629724829947,70722,316761,339772
1629724829957,70727,316820,339772
1629724829967,70754,316802,339822
1629724829977,70775,316823,339783
1629724829987,70802,316831,339790
1629724829997,70824,316823,339785
1629724830007,70848,316877,339801
1629724830017,70875,316827,339798
1629724830027,70897,316852,339828
1629724830037,70926,316863,339804
1629724830047,70962,316919,339796
1629724830057,70994,316896,339825
1629724830067,71007,316904,339813
1629724830077,71037,316983,339807
1629724830087,71076,316904,339843
1629724830097,71103,316987,339835
1629724830107,71152,316981,339859
1629724830117,71175,316968,339867
1629724830127,71204,317011,339867
1629724830137,71236,316998,339880
1629724830147,71283,316980,339867
1629724830157,71314,317014,339894
1629724830167,71340,317057,339909
1629724830177,71372,317041,339886
1629724830187,71417,317088,339941
1629724830197,71465,317117,339910
1629724830207,71503,317120,339936
1629724830217,71538,317058,339943
1629724830227,71585,317138,339927
1629724830237,71644,317139,339957
1629724830247,71671,317179,339960
1629724830257,71716,317165,339978
1629724830267,71748,317208,339970
1629724830277,71785,317202,339997
1629724830287,71828,317273,339981
1629724830297,71886,317233,339985
1629724830307,71929,317246,339971
1629724830317,71971,317254,340034
1629724830327,72011,317234,340045
1629724830337,72050,317284,340035
1629724830347,72102,317352,339995
1629724830357,72161,317317,340063
1629724830367,72204,317332,340050
1629724830377,72241,317311,340062
1629724830387,72292,317354,340054
1629724830397,72332,317393,340101
1629724830407,72386,317400,340065
1629724830417,72448,317416,340077
1629724830427,72485,317410,340078
1629724830437,72529,317427,340119
1629724830447,72579,317458,340139
1629724830457,72629,317460,340139
1629724830467,72673,317523,340123
1629724830477,72719,317498,340147
1629724830487,72737,317492,340158
1629724830497,72750,317487,340147
1629724830507,72723,317469,340143
1629724830517,72697,317418,340138
1629724830527,72605,317384,340100
1629724830537,72516,317362,340072
1629724830547,72426,317267,340076
1629724830557,72335,317289,340057
1629724830567,72253,317220,340074
1629724830577,72182,317190,340023
1629724830587,72130,317172,340010
1629724830597,72057,317126,339997
1629724830607,72006,317133,339989
1629724830617,71952,317111,339995
1629724830627,71913,317079,339983
1629724830637,71856,317052,340014
1629724830647,71794,317072,339991
1629724830657,71743,317030,339951
1629724830667,71677,316954,339943
1629724830677,71625,316993,339905
1629724830687,71554,316986,339923
1629724830697,71510,316974,339919
1629724830707,71447,316910,339904
1629724830717,71393,316902,339884
1629724830727,71336,316906,339895
1629724830737,71305,316828,339872
1629724830747,71277,316913,339893
1629724830757,71268,316882,339868
1629724830767,71247,316845,339881
1629724830777,71239,316872,339873
1629724830787,71232,316852,339900
1629724830797,71221,316867,339854
1629724830807,71213,316838,339854
1629724830817,71192,316870,339866
1629724830827,71177,316894,339859
1629724830837,71172,316868,339854
1629724830847,71168,316836,339874
1629724830857,71166,316846,339857
1629724830867,71161,316851,339880
1629724830877,71145,316876,339853
1629724830887,71160,316884,339824
1629724830897,71156,316853,339870
1629724830907,71179,316891,339876
1629724830917,71182,316910,339896
1629724830927,71185,316910,339898
1629724830937,71197,316968,339862
1629724830947,71214,316969,339864
1629724830957,71239,316894,339875
1629724830967,71267,316926,339852
1629724830977,71282,316964,339890
1629724830987,71295,316951,339932
1629724830997,71324,316964,339900
1629724831007,71348,316979,339878
1629724831017,71377,316949,339907
1629724831027,71402,317008,339918
1629724831037,71420,316981,339957
1629724831047,71449,317022,339916
1629724831057,71476,317045,339925
1629724831067,71503,317057,339895
1629724831077,71526,317038,339932
1629724831087,71554,317068,339959
1629724831097,71594,317080,339926
1629724831107,71627,317061,339981
1629724831117,71650,317113,339929
1629724831127,71681,317112,339993
1629724831137,71710,317106,339972
1629724831147,71735,317175,339969
1629724831157,71786,317169,340015
1629724831167,71824,317170,339984
1629724831177,71862,317140,339984
1629724831187,71896,317205,340022
1629724831197,71926,317185,340012
1629724831207,71968,317202,340005
1629724831217,72006,317217,339985
1629724831227,72038,317249,340034
1629724831237,72081,317244,340027
1629724831247,72110,317277,340031
1629724831257,72152,317314,340065
1629724831267,72192,317306,340073
1629724831277,72229,317313,340051
1629724831287,72275,317330,340065
1629724831297,72304,317329,340047
1629724831307,72364,317341,340102
1629724831317,72404,317384,340085
1629724831327,72448,317390,340123
1629724831337,72495,317389,340118
1629724831347,72550,317411,340131
1629724831357,72574,317413,340128
1629724831367,72620,317452,340130
1629724831377,72667,317491,340180
1629724831387,72705,317459,340158
1629724831397,72754,317513,340181
1629724831407,72804,317543,340195
1629724831417,72840,317509,340152
1629724831427,72888,317552,340177
1629724831437,72931,317555,340212
1629724831447,72981,317569,340202
1629724831457,73030,317581,340244
1629724831467,73089,317577,340206
1629724831477,73131,317655,340245
1629724831487,73185,317658,340280
1629724831497,73233,317630,340271
1629724831507,73269,317684,340277
1629724831517,73290,317690,340244
1629724831527,73295,317624,340281
1629724831537,73265,317659,340277
1629724831547,73215,317584,340235
1629724831557,73148,317531,340231
1629724831567,73058,317434,340208
1629724831577,72961,317468,340218
1629724831587,72878,317441,340219
1629724831597,72782,317391,340187
1629724831607,72717,317354,340180
1629724831617,72650,317312,340156
1629724831627,72590,317317,340165
1629724831637,72550,317271,340093
1629724831647,72503,317299,340114
1629724831657,72455,317333,340101
1629724831667,72414,317278,340119
1629724831677,72364,317243,340102
1629724831687,72312,317247,340133
1629724831697,72261,317205,340062
1629724831707,72200,317209,340096
1629724831717,72139,317134,340118
1629724831727,72086,317143,340066
1629724831737,72059,317112,340067
1629724831747,72006,317118,340071
1629724831757,71968,317123,340018
1629724831767,71928,317131,340062
1629724831777,71906,317083,340076
1629724831787,71890,317068,340075
1629724831797,71889,317124,340046
1629724831807,71878,317067,340073
1629724831817,71880,317128,340063
1629724831827,71866,317081,340071
1629724831837,71857,317131,340075
1629724831847,71839,317129,340067
1629724831857,71835,317098,340045
1629724831867,71813,317131,340072
1629724831877,71807,317106,340070
1629724831887,71809,317144,340054
1629724831897,71819,317126,340063
1629724831907,71805,317141,340079
1629724831917,71803,317106,340040
1629724831927,71828,317171,340047
1629724831937,71820,317125,340098
1629724831947,71829,317131,340070
1629724831957,71842,317127,340114
1629724831967,71871,317147,340097
1629724831977,71882,317226,340094
1629724831987,71896,317172,340097
1629724831997,71921,317189,340119
1629724832007,71941,317204,340093
1629724832017,71961,317226,340124
1629724832027,71983,317212,340120
1629724832037,72006,317245,340091
1629724832047,72017,317248,340106
1629724832057,72064,317277,340107
1629724832067,72077,317261,340109
1629724832077,72113,317317,340097
1629724832087,72129,317284,340168
1629724832097,72147,317288,340182
1629724832107,72182,317326,340172
1629724832117,72207,317318,340149
1629724832127,72227,317316,340160
1629724832137,72260,317370,340233
1629724832147,72298,317381,340162
1629724832157,72316,317403,340176
1629724832167,72352,317393,340194
1629724832177,72372,317423,340202
1629724832187,72409,317430,340226
1629724832197,72434,317409,340227
1629724832207,72468,317452,340240
1629724832217,72488,317481,340217
1629724832227,72531,317452,340235
1629724832237,72582,317468,340242
1629724832247,72597,317474,340292
1629724832257,72647,317493,340262
1629724832267,72682,317515,340286
1629724832277,72703,317507,340263
1629724832287,72742,317515,340273
1629724832297,72789,317519,340248
1629724832307,72824,317542,340299
1629724832317,72874,317575,340321
1629724832327,72906,317575,340341
1629724832337,72943,317617,340310
1629724832347,72986,317649,340330
1629724832357,73017,317632,340351
1629724832367,73054,317641,340337
1629724832377,73087,317638,340352
1629724832387,73136,317717,340355
1629724832397,73180,317665,340352
1629724832407,73223,317682,340386
1629724832417,73264,317723,340394
1629724832427,73310,317742,340431
1629724832437,73344,317743,340415
1629724832447,73387,317775,340414
1629724832457,73431,317839,340426
1629724832467,73476,317795,340414
1629724832477,73523,317808,340442
1629724832487,73563,317816,340469
1629724832497,73596,317851,340479
1629724832507,73622,317840,340471
1629724832517,73604,317787,340431
1629724832527,73590,317806,340452
1629724832537,73522,317771,340435
1629724832547,73451,317720,340459
1629724832557,73365,317711,340421
1629724832567,73274,317657,340401
1629724832577,73188,317606,340388
1629724832587,73104,317552,340373
1629724832597,73047,317598,340364
1629724832607,72997,317523,340348
1629724832617,72953,317526,340345
1629724832627,72908,317505,340331
1629724832637,72866,317489,340340
1629724832647,72829,317481,340325
1629724832657,72800,317491,340324
1629724832667,72746,317437,340321
1629724832677,72708,317434,340336
1629724832687,72667,317453,340275
1629724832697,72648,317391,340310
1629724832707,72588,317367,340304
1629724832717,72554,317386,340256
1629724832727,72523,317408,340253
1629724832737,72486,317364,340253
1629724832747,72483,317348,340256
1629724832757,72463,317352,340296
1629724832767,72458,317364,340265
1629724832777,72448,317372,340274
1629724832787,72443,317408,340268
1629724832797,72450,317403,340292
1629724832807,72434,317366,340240
1629724832817,72424,317392,340286
1629724832827,72402,317368,340225
1629724832837,72401,317373,340268
1629724832847,72374,317359,340217
1629724832857,72356,317324,340282
1629724832867,72360,317350,340233
1629724832877,72351,317352,340290
1629724832887,72347,317362,340287
1629724832897,72347,317366,340250
1629724832907,72340,317325,340294
1629724832917,72352,317350,340263
1629724832927,72358,317329,340276
1629724832937,72358,317374,340263
1629724832947,72382,317353,340248
1629724832957,72389,317422,340252
1629724832967,72396,317396,340270
1629724832977,72434,317413,340303
1629724832987,72451,317438,340246
1629724832997,72449,317432,340264
1629724833007,72470,317426,340299
1629724833017,72483,317454,340283
1629724833027,72509,317439,340309
1629724833037,72541,317489,340237
1629724833047,72554,317486,340308
1629724833057,72582,317444,340281
1629724833067,72605,317456,340305
1629724833077,72623,317483,340320
1629724833087,72644,317532,340285
1629724833097,72679,317485,340329
1629724833107,72707,317525,340321
1629724833117,72714,317535,340333
1629724833127,72737,317559,340323
1629724833137,72771,317514,340305
1629724833147,72794,317553,340334
1629724833157,72809,317593,340328
1629724833167,72848,317563,340341
1629724833177,72871,317584,340328
1629724833187,72908,317594,340343
1629724833197,72929,317591,340361
1629724833207,72945,317636,340339
1629724833217,72974,317588,340378
1629724833227,73006,317620,340344
1629724833237,73033,317638,340391
1629724833247,73065,317662,340369
1629724833257,73093,317681,340373
1629724833267,73129,317668,340366
1629724833277,73153,317674,340388
1629724833287,73195,317709,340393
1629724833297,73235,317693,340395
1629724833307,73261,317729,340388
1629724833317,73308,317719,340402
1629724833327,73335,317713,340397
1629724833337,73376,317764,340443
1629724833347,73410,317768,340458
1629724833357,73453,317791,340450
1629724833367,73500,317836,340463
1629724833377,73529,317806,340471
1629724833387,73556,317768,340489
1629724833397,73564,317816,340472
1629724833407,73544,317797,340430
1629724833417,73496,317764,340434
1629724833427,73432,317706,340429
1629724833437,73343,317633,340398
1629724833447,73243,317647,340415
1629724833457,73165,317607,340391
1629724833467,73090,317574,340376
1629724833477,72993,317531,340339
1629724833487,72912,317494,340344
1629724833497,72874,317507,340315
1629724833507,72809,317489,340299
1629724833517,72757,317459,340317
1629724833527,72715,317486,340291
1629724833537,72667,317439,340311
1629724833547,72633,317451,340264
1629724833557,72570,317414,340260
1629724833567,72512,317421,340261
1629724833577,72451,317355,340261
1629724833587,72398,317352,340228
1629724833597,72351,317328,340173
1629724833607,72297,317323,340253
1629724833617,72265,317340,340212
1629724833627,72213,317298,340210
1629724833637,72188,317342,340206
1629724833647,72168,317308,340204
1629724833657,72157,317313,340247
1629724833667,72140,317317,340206
1629724833677,72136,317341,340238
1629724833687,72115,317289,340207
1629724833697,72109,317267,340223
1629724833707,72082,317308,340228
1629724833717,72051,317303,340174
1629724833727,72035,317255,340198
1629724833737,72009,317285,340173
1629724833747,71993,317260,340189
1629724833757,71983,317269,340214
1629724833767,71966,317255,340162
1629724833777,71960,317287,340144
1629724833787,71958,317259,340177
1629724833797,71955,317239,340157
1629724833807,71951,317231,340180
1629724833817,71959,317296,340156
1629724833827,71958,317270,340177
1629724833837,71961,317300,340198
1629724833847,71975,317299,340154
1629724833857,71989,317294,340186
1629724833867,72001,317258,340189
1629724833877,72015,317260,340155
1629724833887,72033,317303,340138
1629724833897,72059,317310,340196
1629724833907,72057,317350,340142
1629724833917,72078,317316,340186
1629724833927,72093,317381,340144
1629724833937,72109,317363,340185
1629724833947,72114,317398,340173
1629724833957,72136,317382,340203
1629724833967,72150,317352,340166
1629724833977,72187,317440,340172
1629724833987,72189,317401,340168
1629724833997,72216,317375,340178
1629724834007,72239,317420,340191
1629724834017,72259,317421,340200
1629724834027,72283,317394,340194
1629724834037,72309,317496,340195
1629724834047,72342,317485,340215
1629724834057,72354,317469,340224
1629724834067,72389,317448,340214
1629724834077,72419,317449,340167
1629724834087,72423,317437,340183
1629724834097,72455,317528,340231
1629724834107,72484,317480,340231
1629724834117,72507,317512,340203
1629724834127,72533,317523,340215
1629724834137,72554,317512,340261
1629724834147,72600,317586,340266
1629724834157,72627,317590,340221
1629724834167,72660,317556,340225
1629724834177,72695,317606,340293
1629724834187,72716,317594,340267
1629724834197,72769,317601,340266
1629724834207,72803,317585,340252
1629724834217,72832,317621,340256
1629724834227,72868,317634,340291
1629724834237,72911,317651,340300
1629724834247,72933,317641,340307
1629724834257,72955,317637,340295
1629724834267,72943,317633,340284
1629724834277,72911,317599,340256
1629724834287,72846,317590,340245
1629724834297,72767,317506,340227
1629724834307,72670,317460,340204
1629724834317,72556,317453,340213
1629724834327,72449,317399,340151
1629724834337,72360,317317,340153
1629724834347,72286,317325,340163
1629724834357,72212,317284,340131
1629724834367,72144,317265,340061
1629724834377,72078,317238,340101
1629724834387,72020,317226,340078
1629724834397,71948,317201,340077
1629724834407,71898,317195,340063
1629724834417,71821,317196,340074
1629724834427,71745,317134,340025
1629724834437,71672,317100,340037
1629724834447,71602,317098,340012
1629724834457,71528,317049,339986
1629724834467,71461,317046,339991
1629724834477,71394,316996,339912
1629724834487,71324,317002,339941
1629724834497,71272,316973,339893
1629724834507,71211,316952,339956
1629724834517,71184,316988,339932
1629724834527,71141,316992,339944
1629724834537,71131,316930,339928
1629724834547,71112,316947,339931
1629724834557,71091,316985,339935
1629724834567,71063,316963,339916
1629724834577,71037,316929,339928
1629724834587,71004,316913,339904
1629724834597,70981,316941,339902
1629724834607,70949,316896,339855
1629724834617,70917,316921,339883
1629724834627,70906,316919,339895
1629724834637,70894,316876,339893
1629724834647,70883,316892,339873
1629724834657,70865,316917,339882
1629724834667,70857,316862,339873
1629724834677,70852,316908,339892
1629724834687,70835,316925,339838
1629724834697,70847,316887,339859
1629724834707,70853,316932,339842
1629724834717,70852,316913,339859
1629724834727,70853,316889,339876
1629724834737,70881,316939,339868
1629724834747,70886,316942,339824
1629724834757,70907,316957,339865
1629724834767,70909,316930,339848
1629724834777,70937,317015,339847
1629724834787,70944,316976,339863
1629724834797,70960,316990,339848
1629724834807,70981,316984,339840
1629724834817,70990,317025,339825
1629724834827,71024,317055,339852
1629724834837,71028,316992,339881
1629724834847,71047,317006,339874
1629724834857,71072,317047,339852
1629724834867,71087,317029,339853
1629724834877,71112,317035,339864
1629724834887,71133,317048,339905
1629724834897,71166,317065,339897
1629724834907,71195,317113,339880
1629724834917,71209,317078,339915
1629724834927,71250,317084,339925
1629724834937,71262,317079,339914
1629724834947,71291,317081,339922
1629724834957,71322,317123,339930
1629724834967,71341,317132,339913
1629724834977,71385,317185,339922
1629724834987,71422,317126,339966
1629724834997,71439,317138,339964
1629724835007,71487,317171,339935
1629724835017,71510,317186,339960
1629724835027,71545,317189,339968
1629724835037,71568,317202,339939
1629724835047,71626,317226,339957
1629724835057,71646,317251,339988
1629724835067,71692,317250,339989
1629724835077,71737,317240,339965
1629724835087,71765,317260,339986
1629724835097,71815,317272,339984
1629724835107,71856,317323,339980
1629724835117,71890,317338,340007
1629724835127,71927,317335,340012
1629724835137,71964,317346,340015
1629724835147,71992,317343,340008
1629724835157,72007,317318,340008
1629724835167,71985,317319,339990
1629724835177,71938,317267,339979
1629724835187,71851,317222,339961
1629724835197,71755,317161,339951
1629724835207,71659,317131,339903
1629724835217,71554,317081,339893
1629724835227,71459,317047,339828
1629724835237,71373,317021,339872
1629724835247,71286,316976,339881
1629724835257,71216,316996,339807
1629724835267,71158,316963,339815
1629724835277,71096,316895,339784
