timestamp,green,ir,red
1629724800009,49799,190915,248897
1629724800019,49777,190863,248900
1629724800029,49755,190844,248923
1629724800039,49741,190878,248906
1629724800049,49725,190863,248927
1629724800059,49711,190851,248918
1629724800069,49696,190865,248928
1629724800079,49684,190879,248963
1629724800089,49684,190862,248989
1629724800099,49658,190851,248965
1629724800109,49642,190824,248938
1629724800119,49630,190793,248883
1629724800129,49629,190765,248861
1629724800139,49621,190734,248817
1629724800149,49600,190746,248777
1629724800159,49585,190664,248788
1629724800169,49573,190676,248742
1629724800179,49551,190654,248713
1629724800189,49538,190623,248723
1629724800199,49536,190594,248682
1629724800209,49536,190597,248658
1629724800219,49532,190586,248604
1629724800229,49533,190563,248610
1629724800239,49528,190545,248562
1629724800249,49527,190537,248569
1629724800259,49521,190532,248538
1629724800269,49511,190525,248511
1629724800279,49518,190472,248486
1629724800289,49516,190493,248517
1629724800299,49495,190500,248475
1629724800309,49508,190478,248461
1629724800319,49502,190471,248424
1629724800329,49507,190451,248406
1629724800339,49502,190431,248409
1629724800349,49509,190435,248395
1629724800359,49506,190453,248361
1629724800369,49516,190419,248379
1629724800379,49515,190430,248355
1629724800389,49518,190412,248383
1629724800399,49523,190431,248373
1629724800409,49536,190419,248330
1629724800419,49538,190419,248280
1629724800429,49551,190429,248305
1629724800439,49560,190445,248301
1629724800449,49566,190446,248276
1629724800459,49582,190452,248283
1629724800469,49601,190456,248289
1629724800479,49611,190480,248287
1629724800489,49636,190491,248270
1629724800499,49645,190498,248266
1629724800509,49642,190492,248304
1629724800519,49659,190526,248310
1629724800529,49676,190518,248319
1629724800539,49696,190519,248287
1629724800549,49706,190533,248289
1629724800559,49728,190553,248273
1629724800569,49735,190534,248240
1629724800579,49749,190542,248268
1629724800589,49767,190539,248244
1629724800599,49788,190564,248254
1629724800609,49798,190560,248270
1629724800619,49807,190592,248249
1629724800629,49837,190631,248255
1629724800639,49855,190623,248274
1629724800649,49859,190652,248268
1629724800659,49874,190618,248262
1629724800669,49893,190630,248247
1629724800679,49911,190666,248250
1629724800689,49917,190658,248248
1629724800699,49940,190671,248224
1629724800709,49950,190711,248242
1629724800719,49967,190688,248257
1629724800729,49984,190699,248243
1629724800739,49997,190709,248228
1629724800749,50015,190737,248234
1629724800759,50027,190725,248266
1629724800769,50044,190749,248246
1629724800779,50060,190763,248207
1629724800789,50079,190746,248190
1629724800799,50092,190788,248214
1629724800809,50095,190780,248234
1629724800819,50120,190781,248191
1629724800829,50137,190798,248203
1629724800839,50146,190818,248214
1629724800849,50173,190840,248210
1629724800859,50184,190857,248212
1629724800869,50199,190853,248184
1629724800879,50212,190858,248204
1629724800889,50228,190846,248201
1629724800899,50221,190819,248191
1629724800909,50230,190790,248100
1629724800919,50212,190735,248120
1629724800929,50198,190722,248082
1629724800939,50187,190650,248057
1629724800949,50157,190621,248026
1629724800959,50124,190613,248030
1629724800969,50110,190553,248002
1629724800979,50079,190515,248025
1629724800989,50055,190546,247998
1629724800999,50042,190501,248010
1629724801009,50021,190517,247998
1629724801019,50019,190510,248013
1629724801029,49998,190486,247970
1629724801039,49993,190464,248010
1629724801049,49976,190459,247954
1629724801059,49972,190437,247970
1629724801069,49958,190419,247983
1629724801079,49949,190457,247986
1629724801089,49940,190419,247935
1629724801099,49923,190434,247946
1629724801109,49921,190393,247930
1629724801119,49915,190374,247935
1629724801129,49905,190393,247938
1629724801139,49884,190375,247939
1629724801149,49900,190369,247924
1629724801159,49889,190397,247942
1629724801169,49895,190378,247942
1629724801179,49897,190428,247944
1629724801189,49901,190411,247971
1629724801199,49891,190428,247944
1629724801209,49889,190435,247936
1629724801219,49895,190417,247936
1629724801229,49895,190426,247962
1629724801239,49884,190432,247942
1629724801249,49893,190426,247953
1629724801259,49896,190450,247979
1629724801269,49898,190426,247996
1629724801279,49893,190454,248002
1629724801289,49903,190458,248014
1629724801299,49890,190477,247998
1629724801309,49905,190471,248024
1629724801319,49913,190505,248020
1629724801329,49918,190532,248039
1629724801339,49932,190545,248065
1629724801349,49936,190570,248069
1629724801359,49950,190581,248078
1629724801369,49958,190607,248125
1629724801379,49963,190617,248165
1629724801389,49979,190659,248137
1629724801399,49991,190678,248178
1629724801409,50006,190678,248202
1629724801419,50025,190751,248217
1629724801429,50031,190740,248235
1629724801439,50034,190762,248238
1629724801449,50061,190794,248265
1629724801459,50066,190806,248274
1629724801469,50082,190835,248308
1629724801479,50099,190827,248298
1629724801489,50110,190874,248318
1629724801499,50128,190881,248336
1629724801509,50129,190875,248350
1629724801519,50157,190914,248362
1629724801529,50168,190924,248361
1629724801539,50178,190989,248378
1629724801549,50195,190971,248391
1629724801559,50212,191021,248431
1629724801569,50226,191012,248450
1629724801579,50227,191042,248444
1629724801589,50252,191077,248486
1629724801599,50275,191116,248512
1629724801609,50282,191141,248573
1629724801619,50309,191175,248598
1629724801629,50327,191232,248682
1629724801639,50343,191265,248748
1629724801649,50359,191321,248777
1629724801659,50380,191380,248795
1629724801669,50396,191423,248901
1629724801679,50428,191466,248977
1629724801689,50463,191580,249132
1629724801699,50489,191681,249252
1629724801709,50507,191730,249289
1629724801719,50514,191772,249314
1629724801729,50521,191795,249336
1629724801739,50537,191816,249396
1629724801749,50554,191866,249426
1629724801759,50558,191858,249419
1629724801769,50545,191853,249355
1629724801779,50554,191800,249358
1629724801789,50562,191849,249375
1629724801799,50562,191848,249399
1629724801809,50560,191828,249408
1629724801819,50550,191801,249475
1629724801829,50526,191784,249470
1629724801839,50483,191718,249386
1629724801849,50445,191638,249292
1629724801859,50418,191573,249244
1629724801869,50382,191545,249192
1629724801879,50368,191517,249143
1629724801889,50352,191494,249139
1629724801899,50336,191477,249143
1629724801909,50332,191500,249166
1629724801919,50311,191498,249143
1629724801929,50332,191488,249177
1629724801939,50319,191497,249155
1629724801949,50317,191499,249164
1629724801959,50295,191480,249165
1629724801969,50300,191512,249161
1629724801979,50280,191479,249168
1629724801989,50277,191444,249151
1629724801999,50266,191444,249153
1629724802009,50255,191411,249137
1629724802019,50242,191421,249111
1629724802029,50229,191398,249071
1629724802039,50230,191337,249020
1629724802049,50222,191320,248958
1629724802059,50210,191327,248923
1629724802069,50204,191243,248849
1629724802079,50186,191206,248800
1629724802089,50175,191138,248739
1629724802099,50155,191110,248699
1629724802109,50143,191095,248631
1629724802119,50119,191055,248564
1629724802129,50111,190997,248546
1629724802139,50106,191001,248536
1629724802149,50099,190963,248526
1629724802159,50088,190972,248489
1629724802169,50086,190957,248494
1629724802179,50078,190961,248481
1629724802189,50072,190962,248467
1629724802199,50065,190928,248447
1629724802209,50062,190948,248439
1629724802219,50057,190910,248426
1629724802229,50054,190911,248423
1629724802239,50056,190884,248417
1629724802249,50053,190889,248351
1629724802259,50072,190895,248339
1629724802269,50064,190853,248339
1629724802279,50065,190873,248331
1629724802289,50075,190884,248302
1629724802299,50073,190883,248318
1629724802309,50081,190881,248311
1629724802319,50093,190910,248308
1629724802329,50106,190893,248308
1629724802339,50113,190959,248289
1629724802349,50116,190978,248350
1629724802359,50130,190974,248375
1629724802369,50133,190992,248343
1629724802379,50145,191003,248368
1629724802389,50154,191008,248368
1629724802399,50173,191022,248411
1629724802409,50170,191053,248382
1629724802419,50179,191024,248417
1629724802429,50191,191054,248372
1629724802439,50207,191060,248392
1629724802449,50205,191090,248382
1629724802459,50221,191079,248384
1629724802469,50218,191070,248351
1629724802479,50236,191124,248366
1629724802489,50245,191109,248372
1629724802499,50260,191087,248362
1629724802509,50266,191125,248369
1629724802519,50275,191161,248353
1629724802529,50278,191136,248357
1629724802539,50292,191134,248340
1629724802549,50295,191151,248336
1629724802559,50304,191167,248332
1629724802569,50329,191151,248338
1629724802579,50344,191214,248360
1629724802589,50350,191153,248317
1629724802599,50355,191174,248317
1629724802609,50351,191181,248304
1629724802619,50374,191178,248281
1629724802629,50378,191180,248296
1629724802639,50387,191165,248264
1629724802649,50393,191175,248242
1629724802659,50388,191170,248218
1629724802669,50370,191106,248180
1629724802679,50349,191041,248135
1629724802689,50312,190961,248119
1629724802699,50271,190937,248097
1629724802709,50232,190850,248070
1629724802719,50193,190801,248042
1629724802729,50144,190772,248022
1629724802739,50100,190722,248018
1629724802749,50064,190690,247996
1629724802759,50029,190655,247935
1629724802769,49978,190653,247978
1629724802779,49946,190614,247933
1629724802789,49918,190584,247927
1629724802799,49887,190529,247885
1629724802809,49847,190524,247914
1629724802819,49823,190475,247886
1629724802829,49786,190464,247863
1629724802839,49751,190457,247855
1629724802849,49728,190408,247841
1629724802859,49687,190381,247807
1629724802869,49648,190380,247788
1629724802879,49620,190363,247786
1629724802889,49595,190335,247784
1629724802899,49566,190305,247771
1629724802909,49536,190281,247765
1629724802919,49511,190270,247748
1629724802929,49497,190277,247770
1629724802939,49496,190265,247739
1629724802949,49472,190232,247754
1629724802959,49463,190236,247763
1629724802969,49449,190267,247775
1629724802979,49434,190232,247735
1629724802989,49422,190237,247728
1629724802999,49408,190213,247754
1629724803009,49384,190217,247767
1629724803019,49379,190206,247739
1629724803029,49364,190196,247716
1629724803039,49358,190187,247744
1629724803049,49342,190175,247716
1629724803059,49333,190193,247765
1629724803069,49334,190224,247709
1629724803079,49317,190196,247728
1629724803089,49315,190183,247750
1629724803099,49320,190201,247738
1629724803109,49319,190242,247727
1629724803119,49314,190206,247768
1629724803129,49325,190229,247739
1629724803139,49316,190263,247752
1629724803149,49329,190258,247735
1629724803159,49337,190224,247743
1629724803169,49332,190246,247717
1629724803179,49336,190257,247765
1629724803189,49341,190252,247750
1629724803199,49346,190276,247766
1629724803209,49353,190289,247772
1629724803219,49366,190290,247753
1629724803229,49368,190293,247772
1629724803239,49364,190284,247761
1629724803249,49361,190323,247760
1629724803259,49387,190363,247777
1629724803269,49385,190312,247766
1629724803279,49394,190319,247741
1629724803289,49402,190327,247772
1629724803299,49408,190345,247762
1629724803309,49405,190335,247786
1629724803319,49416,190360,247764
1629724803329,49425,190385,247753
1629724803339,49424,190395,247712
1629724803349,49438,190402,247755
1629724803359,49445,190384,247762
1629724803369,49440,190399,247781
1629724803379,49466,190412,247765
1629724803389,49473,190446,247748
1629724803399,49474,190416,247749
1629724803409,49486,190442,247779
1629724803419,49499,190448,247751
1629724803429,49497,190492,247776
1629724803439,49512,190486,247776
1629724803449,49532,190492,247772
1629724803459,49529,190508,247795
1629724803469,49545,190509,247762
1629724803479,49553,190491,247771
1629724803489,49566,190530,247757
1629724803499,49576,190561,247805
1629724803509,49586,190550,247790
1629724803519,49600,190551,247770
1629724803529,49613,190582,247791
1629724803539,49620,190609,247805
1629724803549,49642,190576,247800
1629724803559,49640,190631,247790
1629724803569,49664,190638,247814
1629724803579,49666,190642,247806
1629724803589,49674,190672,247777
1629724803599,49685,190608,247790
1629724803609,49676,190614,247727
1629724803619,49650,190535,247746
1629724803629,49626,190500,247689
1629724803639,49593,190442,247697
1629724803649,49540,190371,247637
1629724803659,49505,190353,247601
1629724803669,49451,190279,247638
1629724803679,49406,190257,247564
1629724803689,49359,190235,247600
1629724803699,49325,190220,247576
1629724803709,49283,190194,247571
1629724803719,49257,190129,247569
1629724803729,49230,190130,247544
1629724803739,49194,190118,247546
1629724803749,49166,190092,247551
1629724803759,49132,190040,247552
1629724803769,49102,190016,247544
1629724803779,49069,189974,247475
1629724803789,49039,189964,247526
1629724803799,49011,189946,247479
1629724803809,48977,189912,247470
1629724803819,48945,189899,247485
1629724803829,48920,189895,247478
1629724803839,48885,189858,247476
1629724803849,48879,189869,247464
1629724803859,48844,189832,247470
1629724803869,48825,189798,247469
1629724803879,48836,189842,247453
1629724803889,48818,189829,247446
1629724803899,48803,189806,247426
1629724803909,48799,189802,247462
1629724803919,48791,189791,247446
1629724803929,48785,189795,247425
1629724803939,48778,189769,247443
1629724803949,48756,189792,247467
1629724803959,48748,189745,247416
1629724803969,48745,189742,247438
1629724803979,48733,189732,247409
1629724803989,48725,189747,247424
1629724803999,48712,189732,247425
1629724804009,48723,189715,247438
1629724804019,48717,189724,247417
1629724804029,48712,189712,247443
1629724804039,48707,189756,247438
1629724804049,48714,189745,247436
1629724804059,48708,189724,247426
1629724804069,48713,189765,247426
1629724804079,48718,189746,247460
1629724804089,48727,189753,247460
1629724804099,48734,189749,247436
1629724804109,48726,189741,247426
1629724804119,48739,189779,247458
1629724804129,48738,189763,247437
1629724804139,48740,189733,247457
1629724804149,48747,189778,247449
1629724804159,48749,189800,247447
1629724804169,48753,189795,247419
1629724804179,48769,189803,247458
1629724804189,48771,189806,247427
1629724804199,48779,189814,247449
1629724804209,48788,189822,247416
1629724804219,48792,189839,247448
1629724804229,48804,189830,247448
1629724804239,48806,189840,247460
1629724804249,48816,189829,247461
1629724804259,48831,189854,247478
1629724804269,48836,189848,247450
1629724804279,48844,189872,247462
1629724804289,48846,189877,247449
1629724804299,48868,189915,247462
1629724804309,48870,189909,247462
1629724804319,48876,189906,247485
1629724804329,48887,189944,247468
1629724804339,48891,189942,247489
1629724804349,48919,189947,247465
1629724804359,48925,189954,247481
1629724804369,48938,189966,247481
1629724804379,48949,189977,247490
1629724804389,48944,189993,247469
1629724804399,48966,189985,247485
1629724804409,48980,190007,247493
1629724804419,48992,189981,247491
1629724804429,49001,190005,247483
1629724804439,49016,190043,247478
1629724804449,49033,190024,247484
1629724804459,49039,190040,247529
1629724804469,49052,190051,247481
1629724804479,49064,190052,247502
1629724804489,49085,190069,247481
1629724804499,49090,190088,247507
1629724804509,49109,190085,247497
1629724804519,49118,190098,247489
1629724804529,49129,190126,247505
1629724804539,49136,190118,247527
1629724804549,49155,190133,247501
1629724804559,49167,190139,247495
1629724804569,49163,190124,247446
1629724804579,49160,190073,247446
1629724804589,49150,190020,247450
1629724804599,49119,189992,247426
1629724804609,49088,189946,247398
1629724804619,49051,189881,247375
1629724804629,49014,189863,247371
1629724804639,48960,189837,247361
1629724804649,48931,189807,247367
1629724804659,48894,189773,247302
1629724804669,48889,189755,247317
1629724804679,48854,189734,247309
1629724804689,48831,189722,247346
1629724804699,48812,189696,247324
1629724804709,48792,189685,247331
1629724804719,48776,189644,247311
1629724804729,48754,189617,247310
1629724804739,48732,189620,247281
1629724804749,48708,189629,247265
1629724804759,48687,189598,247296
1629724804769,48671,189579,247256
1629724804779,48646,189510,247265
1629724804789,48625,189515,247286
1629724804799,48611,189501,247260
1629724804809,48594,189487,247282
1629724804819,48583,189501,247265
1629724804829,48589,189489,247261
1629724804839,48569,189538,247283
1629724804849,48597,189509,247297
1629724804859,48580,189481,247278
1629724804869,48568,189519,247292
1629724804879,48574,189490,247284
1629724804889,48569,189493,247287
1629724804899,48566,189503,247276
1629724804909,48565,189481,247289
1629724804919,48557,189493,247303
1629724804929,48555,189466,247287
1629724804939,48557,189467,247278
1629724804949,48553,189485,247296
1629724804959,48555,189476,247307
1629724804969,48558,189471,247311
1629724804979,48558,189458,247274
1629724804989,48565,189492,247312
1629724804999,48568,189506,247312
1629724805009,48573,189490,247312
1629724805019,48596,189484,247331
1629724805029,48596,189502,247287
1629724805039,48604,189482,247315
1629724805049,48604,189536,247345
1629724805059,48612,189530,247346
1629724805069,48628,189535,247319
1629724805079,48633,189545,247326
1629724805089,48646,189559,247358
1629724805099,48658,189567,247361
1629724805109,48667,189574,247347
1629724805119,48673,189587,247340
1629724805129,48681,189577,247352
1629724805139,48698,189598,247381
1629724805149,48706,189621,247376
1629724805159,48723,189645,247371
1629724805169,48738,189650,247358
1629724805179,48748,189635,247395
1629724805189,48753,189646,247388
1629724805199,48756,189655,247378
1629724805209,48765,189671,247404
1629724805219,48784,189664,247361
1629724805229,48788,189664,247371
1629724805239,48810,189673,247399
1629724805249,48821,189654,247372
1629724805259,48832,189723,247379
1629724805269,48846,189742,247388
1629724805279,48863,189741,247394
1629724805289,48864,189740,247383
1629724805299,48886,189746,247416
1629724805309,48892,189764,247410
1629724805319,48899,189786,247404
1629724805329,48926,189790,247420
1629724805339,48947,189776,247402
1629724805349,48942,189818,247398
1629724805359,48960,189840,247434
1629724805369,48973,189843,247426
1629724805379,48993,189867,247427
1629724805389,49006,189911,247441
1629724805399,49020,189852,247441
1629724805409,49046,189887,247452
1629724805419,49055,189935,247474
1629724805429,49069,189971,247469
1629724805439,49092,189950,247491
1629724805449,49100,189988,247501
1629724805459,49113,189972,247474
1629724805469,49134,190001,247480
1629724805479,49136,189982,247505
1629724805489,49159,190021,247496
1629724805499,49173,189995,247465
1629724805509,49161,189995,247436
1629724805519,49150,189938,247455
1629724805529,49141,189906,247436
1629724805539,49111,189846,247383
1629724805549,49098,189817,247397
1629724805559,49064,189799,247376
1629724805569,49045,189761,247434
1629724805579,49021,189741,247390
1629724805589,49011,189752,247406
1629724805599,48993,189724,247408
1629724805609,48971,189736,247385
1629724805619,48960,189721,247380
1629724805629,48961,189680,247381
1629724805639,48942,189696,247362
1629724805649,48935,189676,247362
1629724805659,48940,189656,247360
1629724805669,48936,189647,247348
1629724805679,48912,189618,247365
1629724805689,48909,189632,247345
1629724805699,48899,189623,247365
1629724805709,48901,189618,247354
1629724805719,48895,189571,247309
1629724805729,48889,189589,247337
1629724805739,48892,189606,247344
1629724805749,48893,189584,247352
1629724805759,48899,189604,247365
1629724805769,48900,189596,247368
1629724805779,48905,189584,247337
1629724805789,48908,189581,247365
1629724805799,48911,189600,247370
1629724805809,48925,189594,247365
1629724805819,48910,189568,247369
1629724805829,48929,189584,247359
1629724805839,48921,189579,247337
1629724805849,48933,189599,247327
1629724805859,48930,189547,247333
1629724805869,48925,189555,247356
1629724805879,48931,189569,247363
1629724805889,48937,189583,247381
1629724805899,48938,189576,247349
1629724805909,48952,189592,247347
1629724805919,48960,189598,247370
1629724805929,48970,189599,247356
1629724805939,48991,189595,247380
1629724805949,48990,189637,247399
1629724805959,49003,189637,247385
1629724805969,49018,189638,247370
1629724805979,49033,189676,247369
1629724805989,49047,189659,247403
1629724805999,49056,189692,247409
1629724806009,49074,189653,247425
1629724806019,49082,189710,247418
1629724806029,49091,189691,247399
1629724806039,49111,189713,247432
1629724806049,49127,189710,247436
1629724806059,49140,189736,247439
1629724806069,49144,189773,247459
1629724806079,49164,189758,247438
1629724806089,49175,189772,247439
1629724806099,49190,189766,247452
1629724806109,49203,189774,247434
1629724806119,49215,189786,247474
1629724806129,49235,189798,247434
1629724806139,49238,189795,247472
1629724806149,49245,189851,247428
1629724806159,49263,189831,247477
1629724806169,49279,189873,247463
1629724806179,49296,189873,247470
1629724806189,49306,189862,247455
1629724806199,49325,189895,247468
1629724806209,49330,189884,247474
1629724806219,49353,189901,247482
1629724806229,49365,189944,247496
1629724806239,49386,189938,247499
1629724806249,49401,189976,247494
1629724806259,49417,189982,247492
1629724806269,49438,189964,247508
1629724806279,49446,189991,247513
1629724806289,49473,190048,247527
1629724806299,49465,190029,247532
1629724806309,49495,190046,247524
1629724806319,49516,190048,247537
1629724806329,49531,190047,247541
1629724806339,49536,190056,247509
1629724806349,49539,190020,247505
1629724806359,49537,190005,247502
1629724806369,49531,189968,247454
1629724806379,49517,189916,247421
1629724806389,49493,189888,247440
1629724806399,49478,189862,247424
1629724806409,49451,189860,247427
1629724806419,49439,189846,247437
1629724806429,49428,189814,247426
1629724806439,49418,189782,247425
1629724806449,49409,189791,247412
1629724806459,49410,189814,247447
1629724806469,49391,189744,247417
1629724806479,49382,189767,247421
1629724806489,49377,189751,247386
1629724806499,49377,189747,247399
1629724806509,49365,189715,247380
1629724806519,49362,189737,247415
1629724806529,49349,189685,247380
1629724806539,49349,189698,247378
1629724806549,49350,189672,247389
1629724806559,49336,189702,247403
1629724806569,49341,189657,247413
1629724806579,49332,189682,247389
1629724806589,49339,189665,247405
1629724806599,49346,189667,247392
1629724806609,49347,189682,247378
1629724806619,49351,189716,247405
1629724806629,49362,189672,247430
1629724806639,49373,189669,247408
1629724806649,49376,189695,247407
1629724806659,49382,189650,247453
1629724806669,49372,189673,247409
1629724806679,49380,189675,247386
1629724806689,49394,189674,247420
1629724806699,49393,189681,247421
1629724806709,49397,189636,247401
1629724806719,49405,189690,247409
1629724806729,49408,189708,247428
1629724806739,49407,189686,247438
1629724806749,49426,189673,247450
1629724806759,49432,189694,247454
1629724806769,49446,189713,247447
1629724806779,49442,189732,247451
1629724806789,49463,189702,247436
1629724806799,49482,189730,247453
1629724806809,49485,189757,247467
1629724806819,49503,189759,247455
1629724806829,49513,189779,247498
1629724806839,49528,189773,247497
1629724806849,49539,189793,247474
1629724806859,49551,189797,247483
1629724806869,49560,189800,247514
1629724806879,49580,189800,247470
1629724806889,49592,189830,247502
1629724806899,49601,189845,247508
1629724806909,49618,189849,247525
1629724806919,49628,189832,247503
1629724806929,49639,189892,247531
1629724806939,49652,189889,247529
1629724806949,49666,189882,247542
1629724806959,49676,189915,247505
1629724806969,49691,189905,247554
1629724806979,49714,189945,247544
1629724806989,49714,189956,247581
1629724806999,49728,190008,247588
1629724807009,49745,189975,247584
1629724807019,49760,189974,247599
1629724807029,49780,189994,247592
1629724807039,49797,190013,247614
1629724807049,49804,190015,247610
1629724807059,49829,190057,247616
1629724807069,49841,190043,247642
1629724807079,49857,190065,247663
1629724807089,49868,190108,247662
1629724807099,49876,190110,247652
1629724807109,49916,190123,247682
1629724807119,49909,190161,247650
1629724807129,49934,190146,247685
1629724807139,49948,190146,247660
1629724807149,49951,190162,247663
1629724807159,49970,190179,247641
1629724807169,49988,190146,247680
1629724807179,49978,190179,247642
1629724807189,49976,190118,247621
1629724807199,49955,190069,247606
1629724807209,49946,190040,247588
1629724807219,49918,189997,247592
1629724807229,49898,189994,247590
1629724807239,49882,189985,247620
1629724807249,49876,189941,247581
1629724807259,49852,189954,247591
1629724807269,49854,189923,247569
1629724807279,49843,189942,247580
1629724807289,49840,189899,247586
1629724807299,49835,189897,247566
1629724807309,49818,189883,247588
1629724807319,49807,189858,247575
1629724807329,49807,189883,247569
1629724807339,49799,189826,247560
1629724807349,49790,189824,247547
1629724807359,49778,189774,247578
1629724807369,49766,189782,247555
1629724807379,49756,189774,247562
1629724807389,49756,189775,247589
1629724807399,49744,189766,247554
1629724807409,49738,189753,247535
1629724807419,49732,189770,247581
1629724807429,49749,189746,247567
1629724807439,49754,189777,247563
1629724807449,49757,189772,247578
1629724807459,49757,189768,247615
1629724807469,49758,189788,247602
1629724807479,49758,189772,247625
1629724807489,49766,189799,247609
1629724807499,49768,189742,247613
1629724807509,49780,189778,247565
1629724807519,49777,189786,247604
1629724807529,49779,189755,247615
1629724807539,49789,189750,247611
1629724807549,49790,189796,247614
1629724807559,49795,189769,247626
1629724807569,49791,189799,247609
1629724807579,49807,189779,247603
1629724807589,49813,189805,247668
1629724807599,49821,189837,247647
1629724807609,49837,189778,247627
1629724807619,49847,189853,247672
1629724807629,49852,189836,247682
1629724807639,49873,189869,247643
1629724807649,49875,189876,247673
1629724807659,49883,189877,247681
1629724807669,49892,189887,247658
1629724807679,49913,189891,247701
1629724807689,49925,189913,247696
1629724807699,49938,189922,247703
1629724807709,49955,189927,247708
1629724807719,49962,189928,247718
1629724807729,49977,189944,247724
1629724807739,49995,189982,247745
1629724807749,49989,189960,247758
1629724807759,50004,189967,247737
1629724807769,50025,189991,247740
1629724807779,50039,190019,247741
1629724807789,50046,189998,247773
1629724807799,50052,190019,247738
1629724807809,50070,190009,247761
1629724807819,50078,190046,247757
1629724807829,50089,190064,247780
1629724807839,50107,190059,247778
1629724807849,50113,190085,247783
1629724807859,50135,190078,247784
1629724807869,50146,190107,247781
1629724807879,50163,190113,247822
1629724807889,50167,190093,247782
1629724807899,50179,190139,247795
1629724807909,50197,190135,247817
1629724807919,50212,190159,247803
1629724807929,50231,190172,247838
1629724807939,50240,190206,247822
1629724807949,50251,190213,247886
1629724807959,50270,190235,247821
1629724807969,50285,190213,247840
1629724807979,50298,190248,247873
1629724807989,50316,190259,247845
1629724807999,50328,190264,247856
1629724808009,50342,190253,247864
1629724808019,50359,190321,247891
1629724808029,50359,190299,247874
1629724808039,50366,190246,247874
1629724808049,50356,190240,247834
1629724808059,50346,190186,247831
1629724808069,50329,190155,247813
1629724808079,50313,190127,247785
1629724808089,50286,190106,247807
1629724808099,50267,190098,247823
1629724808109,50244,190052,247766
1629724808119,50229,190043,247772
1629724808129,50208,190027,247785
1629724808139,50194,190008,247775
1629724808149,50185,189985,247764
1629724808159,50173,189986,247774
1629724808169,50149,189992,247769
1629724808179,50136,189969,247778
1629724808189,50114,189937,247784
1629724808199,50096,189906,247755
1629724808209,50085,189868,247746
1629724808219,50071,189839,247773
1629724808229,50050,189835,247765
1629724808239,50044,189813,247776
1629724808249,50014,189824,247749
1629724808259,49996,189768,247736
1629724808269,49980,189774,247730
1629724808279,49974,189768,247716
1629724808289,49968,189728,247730
1629724808299,49950,189728,247756
1629724808309,49938,189761,247752
1629724808319,49940,189742,247738
1629724808329,49938,189756,247725
1629724808339,49949,189740,247751
1629724808349,49948,189722,247763
1629724808359,49944,189729,247768
1629724808369,49940,189734,247756
1629724808379,49925,189738,247783
1629724808389,49927,189737,247783
1629724808399,49929,189720,247776
1629724808409,49932,189689,247750
1629724808419,49905,189731,247764
1629724808429,49912,189732,247772
1629724808439,49913,189731,247760
1629724808449,49919,189715,247754
1629724808459,49929,189728,247778
1629724808469,49924,189744,247794
1629724808479,49926,189746,247808
1629724808489,49934,189751,247817
1629724808499,49948,189769,247815
1629724808509,49947,189788,247801
1629724808519,49952,189758,247816
1629724808529,49960,189762,247794
1629724808539,49968,189792,247785
1629724808549,49971,189803,247814
1629724808559,49975,189814,247792
1629724808569,50008,189826,247832
1629724808579,49993,189824,247823
1629724808589,50015,189825,247828
1629724808599,50011,189851,247839
1629724808609,50029,189846,247868
1629724808619,50034,189844,247838
1629724808629,50042,189871,247864
1629724808639,50050,189883,247811
1629724808649,50059,189896,247889
1629724808659,50069,189878,247871
1629724808669,50069,189887,247854
1629724808679,50086,189922,247851
1629724808689,50089,189926,247881
1629724808699,50096,189940,247857
1629724808709,50102,189939,247866
1629724808719,50113,189945,247877
1629724808729,50126,189963,247908
1629724808739,50132,189956,247872
1629724808749,50149,189991,247859
1629724808759,50161,189994,247884
1629724808769,50170,189987,247924
1629724808779,50180,189997,247916
1629724808789,50183,190019,247894
1629724808799,50199,190023,247887
1629724808809,50210,190066,247894
1629724808819,50210,190050,247922
1629724808829,50226,190074,247914
1629724808839,50227,190071,247925
1629724808849,50250,190122,247918
1629724808859,50258,190110,247927
1629724808869,50271,190127,247924
1629724808879,50285,190138,247937
1629724808889,50291,190157,247958
1629724808899,50300,190134,247924
1629724808909,50323,190150,247959
1629724808919,50323,190174,247953
1629724808929,50337,190191,247966
1629724808939,50363,190214,247976
1629724808949,50370,190217,247972
1629724808959,50370,190246,247971
1629724808969,50386,190209,247971
1629724808979,50383,190178,247959
1629724808989,50379,190197,247955
1629724808999,50359,190148,247927
1629724809009,50331,190105,247927
1629724809019,50302,190080,247859
1629724809029,50278,190039,247893
1629724809039,50250,189996,247854
1629724809049,50227,189972,247866
1629724809059,50192,189933,247857
1629724809069,50167,189913,247858
1629724809079,50140,189893,247857
1629724809089,50132,189881,247853
1629724809099,50103,189860,247835
1629724809109,50080,189837,247838
1629724809119,50053,189779,247871
1629724809129,50031,189786,247824
1629724809139,50018,189790,247813
1629724809149,49978,189737,247820
1629724809159,49956,189704,247779
1629724809169,49925,189683,247778
1629724809179,49893,189660,247775
1629724809189,49861,189640,247771
1629724809199,49838,189603,247798
1629724809209,49814,189604,247777
1629724809219,49787,189598,247784
1629724809229,49775,189562,247748
1629724809239,49738,189566,247773
1629724809249,49734,189561,247770
1629724809259,49712,189548,247771
1629724809269,49716,189541,247775
1629724809279,49707,189553,247782
1629724809289,49696,189552,247781
1629724809299,49691,189558,247788
1629724809309,49666,189525,247804
1629724809319,49661,189529,247775
1629724809329,49646,189510,247799
1629724809339,49634,189495,247779
1629724809349,49635,189497,247803
1629724809359,49617,189513,247778
1629724809369,49618,189507,247793
1629724809379,49609,189483,247792
1629724809389,49604,189496,247803
1629724809399,49594,189499,247812
1629724809409,49589,189490,247836
1629724809419,49592,189516,247793
1629724809429,49594,189538,247832
1629724809439,49592,189557,247823
1629724809449,49591,189553,247808
1629724809459,49584,189525,247822
1629724809469,49599,189545,247832
1629724809479,49594,189528,247845
1629724809489,49589,189543,247818
1629724809499,49594,189541,247834
1629724809509,49602,189567,247828
1629724809519,49603,189564,247844
1629724809529,49610,189589,247831
1629724809539,49608,189588,247841
1629724809549,49622,189589,247852
1629724809559,49627,189609,247859
1629724809569,49627,189614,247868
1629724809579,49635,189627,247871
1629724809589,49632,189604,247874
1629724809599,49643,189610,247901
1629724809609,49648,189656,247890
1629724809619,49650,189626,247887
1629724809629,49660,189647,247879
1629724809639,49665,189675,247870
1629724809649,49673,189660,247871
1629724809659,49673,189689,247864
1629724809669,49684,189685,247881
1629724809679,49688,189672,247880
1629724809689,49704,189694,247918
1629724809699,49709,189722,247912
1629724809709,49705,189719,247922
1629724809719,49735,189719,247889
1629724809729,49732,189743,247894
1629724809739,49731,189759,247927
1629724809749,49747,189763,247917
1629724809759,49757,189777,247902
1629724809769,49774,189795,247936
1629724809779,49780,189804,247917
1629724809789,49789,189847,247934
1629724809799,49792,189829,247969
1629724809809,49801,189835,247908
1629724809819,49807,189839,247927
1629724809829,49814,189875,247953
1629724809839,49827,189884,247974
1629724809849,49841,189899,247946
1629724809859,49855,189913,247950
1629724809869,49871,189926,247955
1629724809879,49877,189936,247924
1629724809889,49877,189925,247967
1629724809899,49903,189967,247970
1629724809909,49907,189976,247979
1629724809919,49918,189952,247991
1629724809929,49932,189958,247975
1629724809939,49948,190000,247979
1629724809949,49938,190011,247972
1629724809959,49946,189936,247966
1629724809969,49938,189951,247905
1629724809979,49917,189910,247920
1629724809989,49886,189856,247891
1629724809999,49859,189817,247879
1629724810009,49823,189783,247873
1629724810019,49782,189741,247862
1629724810029,49761,189725,247846
1629724810039,49726,189711,247848
1629724810049,49691,189668,247886
1629724810059,49655,189638,247844
1629724810069,49628,189618,247850
1629724810079,49608,189609,247853
1629724810089,49581,189599,247832
1629724810099,49547,189542,247831
1629724810109,49515,189553,247833
1629724810119,49484,189487,247813
1629724810129,49460,189487,247806
1629724810139,49431,189455,247804
1629724810149,49383,189433,247800
1629724810159,49362,189369,247801
1629724810169,49321,189385,247799
1629724810179,49292,189339,247761
1629724810189,49267,189347,247776
1629724810199,49243,189335,247760
1629724810209,49216,189309,247748
1629724810219,49186,189275,247732
1629724810229,49170,189292,247750
1629724810239,49155,189278,247778
1629724810249,49144,189265,247765
1629724810259,49133,189263,247765
1629724810269,49121,189268,247790
1629724810279,49112,189279,247789
1629724810289,49089,189249,247767
1629724810299,49087,189221,247775
1629724810309,49062,189237,247754
1629724810319,49059,189219,247750
1629724810329,49044,189240,247775
1629724810339,49043,189236,247745
1629724810349,49023,189211,247786
1629724810359,49024,189231,247777
1629724810369,49019,189204,247748
1629724810379,49016,189195,247777
1629724810389,49007,189226,247757
1629724810399,48996,189233,247769
1629724810409,48994,189208,247786
1629724810419,49006,189214,247811
1629724810429,49001,189216,247800
1629724810439,48998,189231,247782
1629724810449,49001,189235,247760
1629724810459,49000,189205,247802
1629724810469,49000,189228,247819
1629724810479,49007,189230,247806
1629724810489,49007,189245,247785
1629724810499,49010,189282,247786
1629724810509,49012,189254,247800
1629724810519,49018,189254,247817
1629724810529,49027,189276,247812
1629724810539,49033,189294,247790
1629724810549,49033,189295,247806
1629724810559,49038,189309,247808
1629724810569,49033,189303,247800
1629724810579,49050,189317,247799
1629724810589,49050,189308,247827
1629724810599,49050,189314,247793
1629724810609,49061,189343,247803
1629724810619,49070,189333,247822
1629724810629,49078,189330,247778
1629724810639,49074,189340,247808
1629724810649,49084,189355,247781
1629724810659,49098,189365,247783
1629724810669,49103,189326,247778
1629724810679,49107,189373,247778
1629724810689,49124,189356,247779
1629724810699,49128,189391,247789
1629724810709,49137,189369,247780
1629724810719,49148,189372,247776
1629724810729,49139,189419,247790
1629724810739,49153,189393,247772
1629724810749,49170,189416,247807
1629724810759,49176,189421,247769
1629724810769,49186,189417,247811
1629724810779,49195,189437,247773
1629724810789,49200,189474,247770
1629724810799,49208,189467,247773
1629724810809,49213,189471,247815
1629724810819,49224,189480,247780
1629724810829,49232,189477,247783
1629724810839,49241,189523,247782
1629724810849,49260,189514,247810
1629724810859,49263,189534,247805
1629724810869,49279,189540,247808
1629724810879,49282,189580,247831
1629724810889,49298,189554,247787
1629724810899,49311,189569,247809
1629724810909,49327,189609,247800
1629724810919,49337,189620,247809
1629724810929,49339,189643,247828
1629724810939,49353,189652,247810
1629724810949,49369,189619,247797
1629724810959,49366,189622,247774
1629724810969,49354,189598,247803
1629724810979,49342,189570,247743
1629724810989,49318,189527,247746
1629724810999,49296,189479,247722
1629724811009,49257,189404,247703
1629724811019,49228,189390,247680
1629724811029,49189,189358,247697
1629724811039,49154,189314,247685
1629724811049,49130,189310,247670
1629724811059,49100,189306,247683
1629724811069,49074,189320,247717
1629724811079,49052,189259,247689
1629724811089,49023,189233,247691
1629724811099,49006,189223,247676
1629724811109,48977,189197,247657
1629724811119,48955,189174,247674
1629724811129,48927,189147,247650
1629724811139,48913,189152,247667
1629724811149,48882,189137,247667
1629724811159,48853,189112,247641
1629724811169,48843,189089,247636
1629724811179,48802,189050,247637
1629724811189,48785,189060,247652
1629724811199,48763,189030,247595
1629724811209,48745,189027,247625
1629724811219,48732,188989,247638
1629724811229,48726,188986,247662
1629724811239,48716,189019,247660
1629724811249,48716,189011,247670
1629724811259,48712,189041,247678
1629724811269,48701,189009,247661
1629724811279,48700,189005,247673
1629724811289,48691,189007,247654
1629724811299,48672,189014,247641
1629724811309,48668,188986,247671
1629724811319,48662,189000,247671
1629724811329,48652,189000,247641
1629724811339,48667,188974,247682
1629724811349,48651,188976,247656
1629724811359,48660,188981,247658
1629724811369,48647,188989,247721
1629724811379,48654,189000,247679
1629724811389,48655,188991,247685
1629724811399,48654,188993,247706
1629724811409,48664,189048,247680
1629724811419,48670,189016,247690
1629724811429,48662,189023,247706
1629724811439,48678,189038,247715
1629724811449,48685,189069,247692
1629724811459,48693,189047,247715
1629724811469,48691,189060,247713
1629724811479,48700,189063,247715
1629724811489,48713,189074,247696
1629724811499,48723,189073,247709
1629724811509,48732,189129,247731
1629724811519,48729,189123,247735
1629724811529,48747,189124,247755
1629724811539,48752,189152,247738
1629724811549,48753,189125,247731
1629724811559,48772,189175,247729
1629724811569,48773,189157,247766
1629724811579,48783,189152,247735
1629724811589,48797,189147,247760
1629724811599,48800,189192,247742
1629724811609,48804,189210,247745
1629724811619,48818,189191,247759
1629724811629,48826,189230,247735
1629724811639,48829,189207,247763
1629724811649,48837,189231,247777
1629724811659,48854,189251,247776
1629724811669,48859,189237,247777
1629724811679,48884,189254,247806
1629724811689,48888,189274,247813
1629724811699,48898,189311,247820
1629724811709,48907,189293,247792
1629724811719,48929,189315,247825
1629724811729,48940,189334,247838
1629724811739,48944,189339,247820
1629724811749,48964,189365,247856
1629724811759,48973,189368,247830
1629724811769,48983,189389,247823
1629724811779,49000,189405,247848
1629724811789,49015,189408,247844
1629724811799,49032,189402,247843
1629724811809,49031,189436,247850
1629724811819,49048,189440,247843
1629724811829,49067,189461,247866
1629724811839,49071,189489,247874
1629724811849,49086,189518,247878
1629724811859,49105,189515,247891
1629724811869,49130,189538,247885
1629724811879,49130,189559,247886
1629724811889,49150,189554,247902
1629724811899,49166,189581,247892
1629724811909,49174,189595,247895
1629724811919,49190,189620,247890
1629724811929,49192,189632,247906
1629724811939,49210,189625,247912
1629724811949,49220,189602,247884
1629724811959,49215,189587,247874
1629724811969,49214,189575,247864
1629724811979,49195,189525,247839
1629724811989,49165,189484,247821
1629724811999,49135,189458,247819
1629724812009,49108,189433,247834
1629724812019,49080,189411,247824
1629724812029,49057,189368,247821
1629724812039,49043,189380,247774
1629724812049,49031,189351,247821
1629724812059,49007,189352,247839
1629724812069,48995,189334,247825
1629724812079,48982,189336,247811
1629724812089,48973,189304,247823
1629724812099,48950,189293,247811
1629724812109,48941,189265,247780
1629724812119,48938,189267,247779
1629724812129,48914,189257,247789
1629724812139,48909,189247,247790
1629724812149,48887,189220,247757
1629724812159,48880,189211,247774
1629724812169,48886,189189,247774
1629724812179,48854,189225,247778
1629724812189,48849,189195,247785
1629724812199,48848,189216,247781
1629724812209,48851,189197,247765
1629724812219,48863,189203,247807
1629724812229,48858,189199,247821
1629724812239,48861,189225,247817
1629724812249,48863,189228,247838
1629724812259,48860,189223,247820
1629724812269,48856,189207,247823
1629724812279,48858,189183,247822
1629724812289,48862,189217,247803
1629724812299,48856,189210,247835
1629724812309,48860,189194,247802
1629724812319,48862,189199,247799
1629724812329,48861,189199,247816
1629724812339,48857,189223,247857
1629724812349,48854,189199,247834
1629724812359,48866,189202,247837
1629724812369,48869,189228,247851
1629724812379,48881,189245,247853
1629724812389,48886,189269,247864
1629724812399,48891,189245,247870
1629724812409,48900,189287,247867
1629724812419,48911,189301,247853
1629724812429,48920,189285,247855
1629724812439,48926,189297,247903
1629724812449,48949,189307,247879
1629724812459,48953,189313,247888
1629724812469,48962,189308,247901
1629724812479,48984,189335,247877
1629724812489,48994,189364,247902
1629724812499,48997,189359,247911
1629724812509,49003,189377,247904
1629724812519,49012,189402,247915
1629724812529,49025,189386,247937
1629724812539,49034,189401,247934
1629724812549,49051,189389,247899
1629724812559,49060,189418,247919
1629724812569,49072,189457,247938
1629724812579,49083,189452,247942
1629724812589,49094,189461,247936
1629724812599,49107,189489,247939
1629724812609,49121,189521,247937
1629724812619,49118,189482,247941
1629724812629,49135,189499,247973
1629724812639,49145,189509,247968
1629724812649,49171,189544,247953
1629724812659,49174,189552,247960
1629724812669,49182,189573,247970
1629724812679,49206,189588,247963
1629724812689,49214,189577,247958
1629724812699,49229,189595,247970
1629724812709,49241,189602,247956
1629724812719,49258,189614,247975
1629724812729,49270,189640,247999
1629724812739,49281,189636,247949
1629724812749,49298,189652,247985
1629724812759,49311,189676,247964
1629724812769,49313,189704,248021
1629724812779,49330,189702,248009
1629724812789,49353,189726,248006
1629724812799,49367,189753,248002
1629724812809,49383,189730,247998
1629724812819,49392,189772,248009
1629724812829,49409,189756,247979
1629724812839,49419,189779,247997
1629724812849,49427,189775,247970
1629724812859,49429,189736,247986
1629724812869,49414,189680,247963
1629724812879,49398,189634,247929
1629724812889,49383,189611,247934
1629724812899,49361,189578,247929
1629724812909,49333,189562,247888
1629724812919,49309,189523,247933
1629724812929,49298,189529,247912
1629724812939,49272,189531,247908
1629724812949,49252,189509,247890
1629724812959,49242,189493,247896
1629724812969,49225,189492,247897
1629724812979,49220,189459,247876
1629724812989,49204,189435,247899
1629724812999,49189,189413,247889
1629724813009,49177,189414,247853
1629724813019,49174,189419,247838
1629724813029,49156,189389,247841
1629724813039,49153,189374,247862
1629724813049,49135,189356,247865
1629724813059,49124,189364,247877
1629724813069,49115,189366,247835
1629724813079,49105,189346,247826
1629724813089,49105,189343,247842
1629724813099,49102,189336,247855
1629724813109,49103,189343,247836
1629724813119,49101,189318,247866
1629724813129,49112,189356,247872
1629724813139,49100,189350,247868
1629724813149,49104,189321,247887
1629724813159,49103,189342,247868
1629724813169,49107,189344,247883
1629724813179,49110,189350,247876
1629724813189,49101,189304,247908
1629724813199,49109,189361,247885
1629724813209,49105,189341,247860
1629724813219,49108,189352,247896
1629724813229,49111,189360,247850
1629724813239,49112,189340,247889
1629724813249,49112,189345,247886
1629724813259,49121,189342,247898
1629724813269,49116,189347,247878
1629724813279,49146,189362,247910
1629724813289,49157,189381,247897
1629724813299,49152,189377,247917
1629724813309,49169,189407,247912
1629724813319,49170,189410,247948
1629724813329,49190,189445,247940
1629724813339,49193,189403,247954
1629724813349,49203,189442,247957
1629724813359,49209,189452,247936
1629724813369,49221,189450,247924
1629724813379,49230,189469,247945
1629724813389,49238,189485,247975
1629724813399,49255,189458,247952
1629724813409,49257,189502,247957
1629724813419,49274,189484,247955
1629724813429,49287,189535,247934
1629724813439,49298,189533,247958
1629724813449,49316,189550,247956
1629724813459,49318,189554,247960
1629724813469,49324,189554,247919
1629724813479,49328,189555,247961
1629724813489,49349,189584,247950
1629724813499,49356,189560,247968
1629724813509,49369,189565,247961
1629724813519,49386,189605,247989
1629724813529,49389,189599,247959
1629724813539,49400,189616,247971
1629724813549,49413,189627,247985
1629724813559,49429,189651,247979
1629724813569,49430,189671,248004
1629724813579,49450,189634,247994
1629724813589,49465,189671,248001
1629724813599,49482,189690,247975
1629724813609,49488,189683,248005
1629724813619,49502,189713,248031
1629724813629,49517,189722,248040
1629724813639,49527,189742,248019
1629724813649,49541,189742,248039
1629724813659,49560,189789,248023
1629724813669,49567,189777,248025
1629724813679,49583,189772,248035
1629724813689,49596,189802,247987
1629724813699,49610,189843,248051
1629724813709,49619,189812,248050
1629724813719,49636,189829,248020
1629724813729,49635,189822,248025
1629724813739,49636,189803,248012
1629724813749,49621,189735,247988
1629724813759,49601,189708,247969
1629724813769,49572,189650,247962
1629724813779,49560,189619,247928
1629724813789,49540,189615,247925
1629724813799,49506,189575,247923
1629724813809,49489,189550,247931
1629724813819,49456,189578,247906
1629724813829,49447,189562,247929
1629724813839,49427,189516,247933
1629724813849,49417,189519,247918
1629724813859,49397,189508,247901
1629724813869,49380,189486,247915
1629724813879,49373,189480,247884
1629724813889,49346,189444,247879
1629724813899,49335,189423,247906
1629724813909,49321,189409,247885
1629724813919,49291,189416,247844
1629724813929,49286,189359,247877
1629724813939,49282,189375,247891
1629724813949,49255,189373,247852
1629724813959,49253,189311,247884
1629724813969,49228,189319,247855
1629724813979,49214,189295,247859
1629724813989,49218,189301,247873
1629724813999,49210,189315,247845
1629724814009,49205,189349,247858
1629724814019,49207,189333,247864
1629724814029,49210,189304,247898
1629724814039,49208,189339,247904
1629724814049,49204,189325,247885
1629724814059,49191,189292,247863
1629724814069,49189,189309,247900
1629724814079,49193,189304,247877
1629724814089,49192,189280,247922
1629724814099,49189,189322,247877
1629724814109,49186,189305,247866
1629724814119,49192,189291,247890
1629724814129,49191,189317,247907
1629724814139,49195,189301,247896
1629724814149,49196,189326,247874
1629724814159,49208,189311,247886
1629724814169,49212,189336,247904
1629724814179,49220,189354,247924
1629724814189,49228,189346,247907
1629724814199,49231,189355,247913
1629724814209,49239,189379,247920
1629724814219,49247,189376,247931
1629724814229,49251,189377,247928
1629724814239,49262,189362,247942
1629724814249,49282,189409,247918
1629724814259,49278,189407,247965
1629724814269,49295,189422,247960
1629724814279,49300,189456,247936
1629724814289,49305,189445,247956
1629724814299,49308,189447,247946
1629724814309,49330,189449,247941
1629724814319,49332,189445,247979
1629724814329,49350,189457,247986
1629724814339,49353,189450,247972
1629724814349,49372,189521,247988
1629724814359,49374,189504,247981
1629724814369,49387,189513,247959
1629724814379,49391,189497,247987
1629724814389,49403,189545,247974
1629724814399,49411,189522,247980
1629724814409,49425,189547,247969
1629724814419,49427,189579,248020
1629724814429,49458,189590,247986
1629724814439,49456,189593,247985
1629724814449,49466,189621,248020
1629724814459,49480,189620,248001
1629724814469,49488,189619,248002
1629724814479,49504,189624,248025
1629724814489,49510,189637,248030
1629724814499,49523,189664,248030
1629724814509,49539,189664,247996
1629724814519,49554,189677,248015
1629724814529,49558,189698,248034
1629724814539,49568,189709,248012
1629724814549,49577,189718,248023
1629724814559,49591,189746,248043
1629724814569,49604,189734,248034
1629724814579,49636,189745,248013
1629724814589,49649,189780,248043
1629724814599,49659,189772,248033
1629724814609,49664,189785,248093
1629724814619,49673,189812,248066
1629724814629,49692,189828,248044
1629724814639,49709,189834,248065
1629724814649,49718,189845,248070
1629724814659,49735,189820,248057
1629724814669,49733,189800,248072
1629724814679,49724,189815,248030
1629724814689,49708,189766,248027
1629724814699,49693,189710,247975
1629724814709,49661,189653,247937
1629724814719,49632,189625,247931
1629724814729,49603,189623,247954
1629724814739,49578,189551,247898
1629724814749,49559,189568,247940
1629724814759,49518,189497,247919
1629724814769,49512,189504,247951
1629724814779,49483,189456,247929
1629724814789,49457,189477,247922
1629724814799,49438,189417,247906
1629724814809,49416,189422,247905
1629724814819,49394,189413,247915
1629724814829,49370,189386,247902
1629724814839,49339,189366,247859
1629724814849,49321,189330,247862
1629724814859,49288,189297,247858
1629724814869,49267,189295,247880
1629724814879,49245,189255,247845
1629724814889,49227,189264,247876
1629724814899,49208,189204,247853
1629724814909,49175,189221,247825
1629724814919,49163,189229,247826
1629724814929,49133,189173,247865
1629724814939,49129,189181,247844
1629724814949,49115,189205,247879
1629724814959,49114,189182,247850
1629724814969,49107,189190,247873
1629724814979,49096,189201,247862
1629724814989,49095,189176,247884
1629724814999,49093,189166,247835
1629724815009,49071,189163,247850
1629724815019,49068,189161,247874
1629724815029,49060,189146,247857
1629724815039,49058,189141,247873
1629724815049,49059,189158,247872
1629724815059,49060,189160,247889
1629724815069,49055,189137,247902
1629724815079,49048,189151,247900
1629724815089,49051,189191,247892
1629724815099,49048,189169,247882
1629724815109,49049,189174,247924
1629724815119,49050,189159,247882
1629724815129,49055,189172,247870
1629724815139,49050,189183,247900
1629724815149,49069,189211,247911
1629724815159,49078,189228,247922
1629724815169,49084,189225,247920
1629724815179,49082,189263,247911
1629724815189,49088,189219,247900
1629724815199,49094,189239,247900
1629724815209,49108,189277,247937
1629724815219,49110,189261,247942
1629724815229,49121,189283,247973
1629724815239,49126,189259,247941
1629724815249,49117,189291,247912
1629724815259,49135,189282,247954
1629724815269,49140,189313,247951
1629724815279,49156,189310,247936
1629724815289,49163,189311,247979
1629724815299,49165,189349,247947
1629724815309,49177,189330,247996
1629724815319,49185,189339,247982
1629724815329,49195,189373,247979
1629724815339,49201,189366,247973
1629724815349,49214,189369,247970
1629724815359,49222,189370,247970
1629724815369,49220,189374,248012
1629724815379,49238,189406,247969
1629724815389,49243,189414,247955
1629724815399,49258,189442,247999
1629724815409,49267,189431,247986
1629724815419,49284,189450,247996
1629724815429,49294,189445,247978
1629724815439,49310,189462,247993
1629724815449,49314,189480,247992
1629724815459,49331,189504,248002
1629724815469,49341,189481,247991
1629724815479,49352,189525,247999
1629724815489,49363,189539,248015
1629724815499,49368,189547,248014
1629724815509,49384,189540,248006
1629724815519,49393,189559,247990
1629724815529,49408,189588,247999
1629724815539,49412,189563,248042
1629724815549,49429,189620,248001
1629724815559,49444,189595,248063
1629724815569,49451,189617,248054
1629724815579,49463,189645,248046
1629724815589,49476,189691,248037
1629724815599,49489,189671,248030
1629724815609,49502,189694,248042
1629724815619,49516,189676,248034
1629724815629,49523,189736,248050
1629724815639,49532,189727,248033
1629724815649,49540,189735,248041
1629724815659,49548,189680,248023
1629724815669,49538,189689,248018
1629724815679,49532,189651,248019
1629724815689,49507,189585,247968
1629724815699,49488,189525,247940
1629724815709,49446,189503,247960
1629724815719,49422,189458,247955
1629724815729,49369,189436,247921
1629724815739,49351,189428,247911
1629724815749,49308,189378,247928
1629724815759,49282,189366,247920
1629724815769,49265,189354,247890
1629724815779,49231,189339,247896
1629724815789,49207,189297,247897
1629724815799,49187,189278,247875
1629724815809,49153,189274,247863
1629724815819,49125,189236,247866
1629724815829,49104,189217,247882
1629724815839,49069,189183,247837
1629724815849,49040,189163,247848
1629724815859,49017,189160,247826
1629724815869,48996,189161,247854
1629724815879,48952,189098,247828
1629724815889,48937,189096,247837
1629724815899,48919,189050,247809
1629724815909,48881,189049,247810
1629724815919,48867,189047,247829
1629724815929,48855,189048,247849
1629724815939,48845,189011,247840
1629724815949,48831,189015,247837
1629724815959,48830,189031,247841
1629724815969,48822,189043,247881
1629724815979,48809,189035,247842
1629724815989,48793,189044,247841
1629724815999,48790,189015,247866
1629724816009,48785,189020,247845
1629724816019,48790,189006,247842
1629724816029,48783,188976,247843
1629724816039,48770,189027,247835
1629724816049,48753,189012,247861
1629724816059,48758,189012,247863
1629724816069,48757,188968,247866
1629724816079,48756,188982,247852
1629724816089,48767,189007,247863
1629724816099,48759,189031,247879
1629724816109,48769,189033,247869
1629724816119,48774,189027,247906
1629724816129,48777,189029,247903
1629724816139,48773,189013,247891
1629724816149,48784,189036,247887
1629724816159,48782,189064,247890
1629724816169,48787,189079,247900
1629724816179,48803,189061,247930
1629724816189,48807,189081,247931
1629724816199,48809,189061,247901
1629724816209,48813,189108,247947
1629724816219,48827,189094,247900
1629724816229,48827,189097,247918
1629724816239,48840,189102,247938
1629724816249,48850,189139,247909
1629724816259,48861,189118,247948
1629724816269,48867,189141,247943
1629724816279,48873,189163,247959
1629724816289,48884,189129,247950
1629724816299,48894,189165,247946
1629724816309,48906,189177,247950
1629724816319,48902,189180,247949
1629724816329,48913,189201,247943
1629724816339,48924,189239,247956
1629724816349,48936,189197,247993
1629724816359,48943,189214,247984
1629724816369,48953,189248,247951
1629724816379,48960,189248,247979
1629724816389,48972,189233,247967
1629724816399,48983,189285,247963
1629724816409,48991,189288,247979
1629724816419,49007,189271,247980
1629724816429,49023,189313,247985
1629724816439,49031,189313,248001
1629724816449,49040,189372,247997
1629724816459,49049,189348,248002
1629724816469,49064,189365,247993
1629724816479,49072,189380,248014
1629724816489,49090,189380,248002
1629724816499,49102,189390,248039
1629724816509,49120,189394,248011
1629724816519,49127,189417,248041
1629724816529,49136,189398,248032
1629724816539,49146,189403,248004
1629724816549,49164,189449,248009
1629724816559,49172,189451,248001
1629724816569,49191,189456,248021
1629724816579,49196,189468,248056
1629724816589,49215,189477,248038
1629724816599,49230,189513,248022
1629724816609,49248,189527,248040
1629724816619,49256,189542,248043
1629724816629,49274,189542,248030
1629724816639,49283,189569,248018
1629724816649,49295,189581,248063
1629724816659,49308,189590,248044
1629724816669,49323,189593,248024
1629724816679,49326,189580,248010
1629724816689,49330,189571,248003
1629724816699,49322,189535,248016
1629724816709,49300,189492,247960
1629724816719,49278,189443,247970
1629724816729,49248,189378,247933
1629724816739,49214,189379,247916
1629724816749,49188,189324,247926
1629724816759,49151,189282,247924
1629724816769,49122,189291,247899
1629724816779,49101,189262,247881
1629724816789,49074,189234,247889
1629724816799,49046,189242,247904
1629724816809,49031,189213,247943
1629724816819,49005,189205,247875
1629724816829,48986,189150,247883
1629724816839,48955,189156,247884
1629724816849,48943,189140,247873
1629724816859,48931,189079,247882
1629724816869,48894,189068,247846
1629724816879,48869,189065,247846
1629724816889,48856,189021,247844
1629724816899,48838,189017,247824
1629724816909,48821,188976,247811
1629724816919,48799,188967,247834
1629724816929,48784,188961,247831
1629724816939,48765,188961,247847
1629724816949,48755,188937,247828
1629724816959,48748,188993,247870
1629724816969,48751,188975,247852
1629724816979,48751,188987,247868
1629724816989,48745,188968,247842
1629724816999,48747,188971,247848
1629724817009,48735,188951,247838
1629724817019,48743,188924,247858
1629724817029,48729,188944,247839
1629724817039,48729,188960,247889
1629724817049,48724,188960,247863
1629724817059,48719,188942,247884
1629724817069,48720,188952,247888
1629724817079,48727,188931,247865
1629724817089,48723,188937,247852
1629724817099,48726,188928,247869
1629724817109,48735,188963,247886
1629724817119,48739,188971,247895
1629724817129,48740,188989,247884
1629724817139,48764,189007,247916
1629724817149,48753,188980,247894
1629724817159,48757,189007,247911
1629724817169,48766,188983,247908
1629724817179,48773,189018,247915
1629724817189,48782,189026,247925
1629724817199,48798,189019,247916
1629724817209,48801,189048,247920
1629724817219,48808,189054,247932
1629724817229,48832,189054,247942
1629724817239,48841,189080,247952
1629724817249,48839,189076,247923
1629724817259,48849,189080,247950
1629724817269,48860,189103,247958
1629724817279,48872,189150,247975
1629724817289,48880,189138,247940
1629724817299,48892,189135,247975
1629724817309,48900,189131,247988
1629724817319,48912,189148,247999
1629724817329,48937,189151,247976
1629724817339,48939,189188,247992
1629724817349,48938,189196,247986
1629724817359,48961,189218,247999
1629724817369,48961,189211,247984
1629724817379,48975,189236,247980
1629724817389,48988,189220,248013
1629724817399,48998,189266,248035
1629724817409,49020,189272,248008
1629724817419,49029,189288,248022
1629724817429,49043,189320,248016
1629724817439,49055,189282,248026
1629724817449,49071,189286,248038
1629724817459,49080,189369,248050
1629724817469,49097,189349,248045
1629724817479,49104,189346,248041
1629724817489,49124,189390,248081
1629724817499,49141,189371,248108
1629724817509,49136,189403,248093
1629724817519,49164,189394,248046
1629724817529,49177,189415,248095
1629724817539,49189,189459,248066
1629724817549,49209,189464,248102
1629724817559,49219,189483,248110
1629724817569,49231,189485,248084
1629724817579,49251,189482,248079
1629724817589,49264,189530,248096
1629724817599,49274,189539,248112
1629724817609,49289,189544,248111
1629724817619,49302,189576,248130
1629724817629,49318,189574,248136
1629724817639,49327,189624,248121
1629724817649,49346,189622,248137
1629724817659,49358,189624,248170
1629724817669,49384,189637,248138
1629724817679,49395,189660,248134
1629724817689,49409,189651,248132
1629724817699,49415,189676,248144
1629724817709,49418,189643,248135
1629724817719,49422,189615,248121
1629724817729,49401,189576,248085
1629724817739,49376,189537,248088
1629724817749,49364,189481,248086
1629724817759,49339,189437,248052
1629724817769,49316,189426,248088
1629724817779,49294,189422,248072
1629724817789,49280,189396,248063
1629724817799,49256,189389,248059
1629724817809,49244,189390,248060
1629724817819,49240,189372,248071
1629724817829,49213,189357,248053
1629724817839,49200,189339,248083
1629724817849,49181,189337,248058
1629724817859,49175,189318,248059
1629724817869,49159,189300,248068
1629724817879,49148,189319,248047
1629724817889,49133,189259,248043
1629724817899,49125,189252,248043
1629724817909,49100,189227,248032
1629724817919,49092,189226,248035
1629724817929,49085,189213,248046
1629724817939,49061,189203,248058
1629724817949,49060,189205,248025
1629724817959,49055,189217,248033
1629724817969,49063,189218,248057
1629724817979,49061,189218,248024
1629724817989,49074,189238,248077
1629724817999,49067,189263,248061
1629724818009,49067,189229,248074
1629724818019,49065,189256,248064
1629724818029,49072,189197,248081
1629724818039,49073,189220,248066
1629724818049,49063,189220,248095
1629724818059,49073,189221,248092
1629724818069,49067,189205,248068
1629724818079,49071,189204,248092
1629724818089,49072,189241,248063
1629724818099,49079,189245,248108
1629724818109,49081,189254,248056
1629724818119,49088,189235,248103
1629724818129,49088,189241,248092
1629724818139,49106,189277,248083
1629724818149,49114,189286,248099
1629724818159,49115,189296,248102
1629724818169,49133,189277,248149
1629724818179,49128,189284,248114
1629724818189,49145,189297,248099
1629724818199,49162,189301,248121
1629724818209,49176,189315,248141
1629724818219,49188,189341,248169
1629724818229,49182,189331,248145
1629724818239,49198,189363,248142
1629724818249,49210,189362,248154
1629724818259,49228,189355,248134
1629724818269,49232,189402,248163
1629724818279,49238,189411,248156
1629724818289,49242,189413,248165
1629724818299,49249,189425,248171
1629724818309,49265,189428,248152
1629724818319,49279,189446,248184
1629724818329,49295,189453,248214
1629724818339,49303,189463,248199
1629724818349,49314,189494,248191
1629724818359,49318,189490,248195
1629724818369,49347,189503,248190
1629724818379,49361,189504,248244
1629724818389,49371,189563,248201
1629724818399,49379,189523,248217
1629724818409,49396,189545,248244
1629724818419,49399,189576,248216
1629724818429,49420,189545,248250
1629724818439,49423,189574,248239
1629724818449,49445,189584,248249
1629724818459,49463,189596,248225
1629724818469,49475,189633,248247
1629724818479,49485,189625,248249
1629724818489,49500,189622,248236
1629724818499,49511,189647,248219
1629724818509,49516,189647,248238
1629724818519,49533,189673,248252
1629724818529,49548,189718,248270
1629724818539,49565,189715,248257
1629724818549,49569,189709,248275
1629724818559,49595,189728,248305
1629724818569,49602,189721,248250
1629724818579,49611,189762,248275
1629724818589,49627,189756,248308
1629724818599,49646,189776,248272
1629724818609,49657,189789,248283
1629724818619,49664,189812,248279
1629724818629,49686,189800,248284
1629724818639,49699,189838,248295
1629724818649,49712,189850,248292
1629724818659,49716,189834,248291
1629724818669,49718,189827,248264
1629724818679,49709,189781,248252
1629724818689,49705,189759,248213
1629724818699,49689,189699,248245
1629724818709,49671,189680,248215
1629724818719,49650,189644,248227
1629724818729,49627,189636,248203
1629724818739,49595,189626,248196
1629724818749,49589,189606,248197
1629724818759,49573,189590,248187
1629724818769,49558,189564,248161
1629724818779,49545,189562,248180
1629724818789,49533,189516,248195
1629724818799,49532,189509,248202
1629724818809,49513,189507,248143
1629724818819,49509,189507,248127
1629724818829,49493,189490,248138
1629724818839,49476,189434,248112
1629724818849,49479,189463,248149
1629724818859,49457,189416,248123
1629724818869,49459,189444,248123
1629724818879,49446,189427,248096
1629724818889,49443,189421,248138
1629724818899,49442,189411,248170
1629724818909,49423,189381,248128
1629724818919,49426,189433,248150
1629724818929,49437,189397,248150
1629724818939,49457,189431,248165
1629724818949,49442,189412,248156
1629724818959,49442,189426,248138
1629724818969,49441,189434,248162
1629724818979,49439,189405,248183
1629724818989,49446,189409,248186
1629724818999,49434,189413,248150
1629724819009,49442,189413,248165
1629724819019,49449,189394,248153
1629724819029,49446,189410,248175
1629724819039,49452,189430,248183
1629724819049,49451,189395,248157
1629724819059,49450,189422,248178
1629724819069,49465,189422,248195
1629724819079,49467,189432,248170
1629724819089,49480,189451,248142
1629724819099,49485,189456,248168
1629724819109,49496,189429,248185
1629724819119,49497,189439,248209
1629724819129,49506,189439,248177
1629724819139,49524,189488,248191
1629724819149,49528,189476,248174
1629724819159,49546,189501,248211
1629724819169,49548,189514,248217
1629724819179,49562,189526,248224
1629724819189,49574,189503,248230
1629724819199,49581,189548,248196
1629724819209,49584,189547,248212
1629724819219,49605,189557,248231
1629724819229,49610,189596,248230
1629724819239,49625,189585,248223
1629724819249,49632,189571,248215
1629724819259,49642,189591,248213
1629724819269,49650,189597,248231
1629724819279,49658,189610,248252
1629724819289,49670,189637,248228
1629724819299,49678,189644,248263
1629724819309,49697,189653,248239
1629724819319,49704,189636,248233
1629724819329,49718,189651,248257
1629724819339,49731,189685,248243
1629724819349,49742,189680,248241
1629724819359,49753,189692,248273
1629724819369,49776,189704,248251
1629724819379,49779,189701,248252
1629724819389,49787,189699,248259
1629724819399,49798,189749,248271
1629724819409,49811,189737,248254
1629724819419,49814,189738,248277
1629724819429,49834,189796,248289
1629724819439,49863,189786,248282
1629724819449,49862,189797,248278
1629724819459,49885,189791,248309
1629724819469,49894,189834,248327
1629724819479,49907,189827,248272
1629724819489,49913,189842,248287
1629724819499,49927,189858,248277
1629724819509,49944,189863,248300
1629724819519,49954,189881,248325
1629724819529,49974,189883,248315
1629724819539,49998,189928,248294
1629724819549,49986,189905,248290
1629724819559,49994,189873,248297
1629724819569,49993,189867,248245
1629724819579,49983,189841,248250
1629724819589,49964,189773,248206
1629724819599,49936,189758,248231
1629724819609,49921,189685,248221
1629724819619,49901,189664,248220
1629724819629,49868,189658,248208
1629724819639,49849,189627,248204
1629724819649,49831,189616,248219
1629724819659,49811,189587,248189
1629724819669,49801,189572,248196
1629724819679,49781,189572,248207
1629724819689,49768,189558,248165
1629724819699,49755,189539,248175
1629724819709,49737,189490,248179
1629724819719,49723,189462,248139
1629724819729,49711,189461,248139
1629724819739,49695,189457,248158
1629724819749,49685,189437,248151
1629724819759,49665,189430,248130
1629724819769,49658,189411,248144
1629724819779,49637,189395,248139
1629724819789,49621,189380,248107
1629724819799,49619,189376,248122
1629724819809,49600,189361,248120
1629724819819,49606,189377,248121
1629724819829,49608,189387,248104
1629724819839,49598,189381,248155
1629724819849,49602,189387,248144
1629724819859,49601,189382,248147
1629724819869,49592,189380,248143
1629724819879,49587,189368,248143
1629724819889,49586,189398,248138
1629724819899,49577,189400,248133
1629724819909,49578,189345,248147
1629724819919,49579,189349,248135
1629724819929,49578,189350,248139
1629724819939,49572,189336,248148
1629724819949,49583,189360,248146
1629724819959,49578,189337,248147
1629724819969,49567,189346,248146
1629724819979,49575,189369,248145
1629724819989,49587,189360,248178
1629724819999,49588,189371,248163
1629724820009,49594,189395,248146
1629724820019,49595,189386,248178
1629724820029,49605,189387,248129
1629724820039,49614,189400,248167
1629724820049,49613,189420,248182
1629724820059,49617,189429,248221
1629724820069,49631,189444,248197
1629724820079,49640,189447,248209
1629724820089,49651,189458,248211
1629724820099,49662,189447,248186
1629724820109,49661,189447,248187
1629724820119,49673,189478,248210
1629724820129,49677,189495,248210
1629724820139,49690,189461,248246
1629724820149,49694,189517,248226
1629724820159,49700,189512,248214
1629724820169,49713,189495,248223
1629724820179,49716,189514,248206
1629724820189,49725,189515,248221
1629724820199,49723,189525,248220
1629724820209,49733,189530,248214
1629724820219,49751,189528,248233
1629724820229,49755,189553,248220
1629724820239,49773,189580,248198
1629724820249,49780,189589,248227
1629724820259,49778,189586,248241
1629724820269,49805,189596,248248
1629724820279,49801,189606,248242
1629724820289,49817,189623,248250
1629724820299,49819,189640,248231
1629724820309,49836,189639,248251
1629724820319,49844,189656,248257
1629724820329,49868,189677,248260
1629724820339,49872,189699,248260
1629724820349,49886,189674,248262
1629724820359,49893,189713,248276
1629724820369,49908,189715,248276
1629724820379,49918,189714,248231
1629724820389,49932,189714,248279
1629724820399,49945,189771,248279
1629724820409,49952,189765,248279
1629724820419,49966,189788,248295
1629724820429,49996,189798,248283
1629724820439,49989,189791,248297
1629724820449,49994,189783,248259
1629724820459,49995,189759,248265
1629724820469,49991,189709,248255
1629724820479,49966,189691,248216
1629724820489,49935,189619,248190
1629724820499,49906,189608,248208
1629724820509,49878,189525,248183
1629724820519,49839,189519,248169
1629724820529,49816,189497,248185
1629724820539,49782,189504,248168
1629724820549,49761,189437,248160
1629724820559,49733,189445,248197
1629724820569,49721,189422,248182
1629724820579,49697,189387,248171
1629724820589,49674,189396,248150
1629724820599,49652,189361,248128
1629724820609,49630,189332,248124
1629724820619,49598,189322,248136
1629724820629,49576,189301,248101
1629724820639,49552,189271,248101
1629724820649,49525,189232,248089
1629724820659,49505,189220,248102
1629724820669,49477,189186,248066
1629724820679,49449,189166,248061
1629724820689,49422,189179,248079
1629724820699,49410,189135,248088
1629724820709,49392,189139,248114
1629724820719,49380,189146,248052
1629724820729,49371,189124,248113
1629724820739,49361,189150,248109
1629724820749,49351,189161,248081
1629724820759,49352,189145,248116
1629724820769,49341,189123,248104
1629724820779,49340,189132,248085
1629724820789,49325,189102,248115
1629724820799,49313,189119,248093
1629724820809,49305,189087,248135
1629724820819,49303,189086,248104
1629724820829,49296,189123,248093
1629724820839,49287,189069,248121
1629724820849,49284,189114,248128
1629724820859,49283,189105,248117
1629724820869,49271,189109,248107
1629724820879,49269,189134,248154
1629724820889,49280,189098,248100
1629724820899,49284,189099,248166
1629724820909,49288,189142,248147
1629724820919,49281,189169,248145
1629724820929,49283,189171,248142
1629724820939,49287,189167,248180
1629724820949,49288,189144,248162
1629724820959,49295,189161,248150
1629724820969,49304,189182,248156
1629724820979,49306,189167,248184
1629724820989,49315,189172,248165
1629724820999,49313,189180,248170
1629724821009,49328,189192,248193
1629724821019,49330,189192,248187
1629724821029,49335,189224,248213
1629724821039,49336,189231,248197
1629724821049,49340,189249,248204
1629724821059,49351,189248,248189
1629724821069,49340,189251,248202
1629724821079,49372,189258,248184
1629724821089,49373,189272,248202
1629724821099,49375,189271,248193
1629724821109,49379,189275,248234
1629724821119,49385,189314,248217
1629724821129,49394,189309,248217
1629724821139,49400,189301,248191
1629724821149,49407,189305,248242
1629724821159,49420,189344,248201
1629724821169,49430,189370,248220
1629724821179,49431,189359,248224
1629724821189,49441,189390,248258
1629724821199,49447,189368,248223
1629724821209,49461,189396,248258
1629724821219,49472,189415,248244
1629724821229,49489,189406,248248
1629724821239,49484,189403,248246
1629724821249,49498,189421,248245
1629724821259,49505,189425,248227
1629724821269,49514,189438,248258
1629724821279,49525,189463,248245
1629724821289,49539,189459,248261
1629724821299,49550,189474,248286
1629724821309,49559,189480,248301
1629724821319,49565,189507,248275
1629724821329,49584,189526,248291
1629724821339,49594,189555,248276
1629724821349,49607,189555,248262
1629724821359,49613,189575,248320
1629724821369,49630,189568,248305
1629724821379,49626,189592,248304
1629724821389,49649,189593,248313
1629724821399,49657,189622,248280
1629724821409,49664,189580,248277
1629724821419,49662,189580,248268
1629724821429,49643,189551,248241
1629724821439,49618,189509,248257
1629724821449,49597,189456,248200
1629724821459,49560,189414,248186
1629724821469,49518,189371,248191
1629724821479,49489,189333,248180
1629724821489,49449,189295,248173
1629724821499,49419,189308,248185
1629724821509,49385,189250,248175
1629724821519,49353,189255,248160
1629724821529,49327,189196,248183
1629724821539,49294,189187,248197
1629724821549,49270,189167,248153
1629724821559,49242,189139,248155
1629724821569,49221,189109,248108
1629724821579,49192,189104,248118
1629724821589,49166,189093,248122
1629724821599,49135,189028,248116
1629724821609,49092,189039,248097
1629724821619,49071,188989,248079
1629724821629,49040,188955,248112
1629724821639,49012,188982,248113
1629724821649,48981,188967,248092
1629724821659,48947,188937,248071
1629724821669,48929,188929,248080
1629724821679,48905,188912,248094
1629724821689,48893,188915,248096
1629724821699,48893,188917,248089
1629724821709,48871,188922,248088
1629724821719,48875,188891,248091
1629724821729,48856,188909,248151
1629724821739,48860,188908,248086
1629724821749,48832,188870,248124
1629724821759,48832,188881,248113
1629724821769,48829,188875,248133
1629724821779,48813,188872,248090
1629724821789,48805,188877,248119
1629724821799,48798,188848,248131
1629724821809,48798,188849,248106
1629724821819,48786,188865,248112
1629724821829,48787,188847,248146
1629724821839,48789,188864,248148
1629724821849,48788,188877,248145
1629724821859,48779,188911,248140
1629724821869,48797,188880,248166
1629724821879,48794,188909,248183
1629724821889,48789,188906,248151
1629724821899,48787,188888,248164
1629724821909,48800,188924,248191
1629724821919,48809,188940,248174
1629724821929,48806,188950,248186
1629724821939,48810,188935,248200
1629724821949,48816,188960,248162
1629724821959,48819,188960,248184
1629724821969,48830,188976,248173
1629724821979,48838,188977,248222
1629724821989,48845,188976,248195
1629724821999,48850,189000,248233
1629724822009,48855,188997,248210
1629724822019,48869,189038,248183
1629724822029,48860,189060,248223
1629724822039,48870,189035,248203
1629724822049,48888,189065,248224
1629724822059,48885,189044,248246
1629724822069,48896,189054,248228
1629724822079,48900,189059,248232
1629724822089,48915,189067,248215
1629724822099,48919,189097,248205
1629724822109,48926,189099,248236
1629724822119,48936,189108,248263
1629724822129,48942,189095,248253
1629724822139,48959,189117,248262
1629724822149,48962,189115,248237
1629724822159,48978,189157,248250
1629724822169,48988,189177,248254
1629724822179,48993,189183,248293
1629724822189,49009,189203,248258
1629724822199,49026,189209,248269
1629724822209,49021,189213,248263
1629724822219,49038,189240,248291
1629724822229,49040,189237,248310
1629724822239,49054,189246,248299
1629724822249,49077,189263,248296
1629724822259,49088,189273,248297
1629724822269,49100,189283,248288
1629724822279,49109,189292,248313
1629724822289,49116,189307,248288
1629724822299,49128,189348,248293
1629724822309,49142,189352,248330
1629724822319,49155,189369,248298
1629724822329,49168,189396,248311
1629724822339,49175,189386,248339
1629724822349,49193,189423,248312
1629724822359,49209,189389,248344
1629724822369,49226,189439,248342
1629724822379,49222,189422,248352
1629724822389,49246,189458,248342
1629724822399,49261,189469,248359
1629724822409,49270,189465,248308
1629724822419,49262,189426,248314
1629724822429,49252,189399,248284
1629724822439,49219,189326,248287
1629724822449,49201,189313,248250
1629724822459,49160,189268,248226
1629724822469,49128,189220,248214
1629724822479,49091,189174,248208
1629724822489,49069,189145,248261
1629724822499,49037,189165,248236
1629724822509,48999,189103,248189
1629724822519,48986,189108,248194
1629724822529,48959,189069,248200
1629724822539,48938,189092,248190
1629724822549,48909,189010,248201
1629724822559,48880,189026,248187
1629724822569,48866,189007,248186
1629724822579,48837,188976,248160
1629724822589,48808,188943,248142
1629724822599,48774,188931,248149
1629724822609,48752,188883,248137
1629724822619,48742,188906,248139
1629724822629,48705,188875,248121
1629724822639,48684,188824,248129
1629724822649,48663,188831,248132
1629724822659,48639,188828,248123
1629724822669,48617,188798,248142
1629724822679,48614,188802,248131
1629724822689,48600,188797,248108
1629724822699,48608,188769,248129
1629724822709,48600,188777,248177
1629724822719,48594,188787,248171
1629724822729,48597,188781,248145
1629724822739,48591,188782,248158
1629724822749,48588,188779,248134
1629724822759,48586,188788,248162
1629724822769,48571,188782,248169
1629724822779,48576,188799,248155
1629724822789,48563,188759,248157
1629724822799,48567,188791,248180
1629724822809,48564,188766,248136
1629724822819,48564,188750,248175
1629724822829,48570,188796,248176
1629724822839,48580,188795,248187
1629724822849,48582,188804,248187
1629724822859,48587,188806,248200
1629724822869,48589,188818,248219
1629724822879,48596,188818,248199
1629724822889,48604,188851,248234
1629724822899,48612,188834,248219
1629724822909,48616,188858,248236
1629724822919,48621,188866,248197
1629724822929,48640,188857,248229
1629724822939,48643,188883,248241
1629724822949,48652,188882,248207
1629724822959,48664,188861,248223
1629724822969,48662,188867,248243
1629724822979,48674,188911,248277
1629724822989,48682,188929,248247
1629724822999,48702,188913,248267
1629724823009,48714,188934,248241
1629724823019,48714,188956,248268
1629724823029,48725,188961,248295
1629724823039,48737,188979,248294
1629724823049,48753,188984,248274
1629724823059,48756,189009,248309
1629724823069,48769,188991,248298
1629724823079,48781,189028,248302
1629724823089,48794,189018,248303
1629724823099,48801,189029,248300
1629724823109,48817,189044,248307
1629724823119,48829,189048,248324
1629724823129,48832,189070,248311
1629724823139,48846,189091,248300
1629724823149,48866,189097,248305
1629724823159,48873,189111,248329
1629724823169,48894,189153,248369
1629724823179,48900,189136,248353
1629724823189,48920,189150,248361
1629724823199,48928,189158,248364
1629724823209,48932,189180,248358
1629724823219,48943,189180,248333
1629724823229,48964,189209,248363
1629724823239,48981,189232,248349
1629724823249,48994,189242,248369
1629724823259,49014,189241,248368
1629724823269,49015,189249,248360
1629724823279,49027,189273,248379
1629724823289,49038,189250,248386
1629724823299,49054,189290,248366
1629724823309,49069,189306,248388
1629724823319,49091,189314,248407
1629724823329,49102,189333,248422
1629724823339,49103,189340,248389
1629724823349,49132,189354,248402
1629724823359,49151,189379,248393
1629724823369,49161,189384,248407
1629724823379,49171,189400,248398
1629724823389,49193,189434,248403
1629724823399,49205,189448,248405
1629724823409,49219,189476,248401
1629724823419,49236,189435,248419
1629724823429,49236,189429,248386
1629724823439,49242,189406,248408
1629724823449,49229,189357,248365
1629724823459,49206,189346,248366
1629724823469,49190,189327,248327
1629724823479,49161,189262,248332
1629724823489,49130,189221,248304
1629724823499,49111,189206,248315
1629724823509,49081,189177,248269
1629724823519,49063,189152,248260
1629724823529,49040,189142,248295
1629724823539,49019,189135,248298
1629724823549,49011,189108,248311
1629724823559,48992,189098,248285
1629724823569,48974,189072,248292
1629724823579,48961,189065,248275
1629724823589,48936,189012,248288
1629724823599,48922,189001,248272
1629724823609,48900,188980,248247
1629724823619,48879,189003,248270
1629724823629,48867,188949,248270
1629724823639,48858,188928,248246
1629724823649,48834,188918,248231
1629724823659,48824,188921,248234
1629724823669,48808,188878,248253
1629724823679,48801,188886,248250
1629724823689,48788,188888,248232
1629724823699,48780,188903,248246
1629724823709,48777,188862,248242
1629724823719,48784,188876,248267
1629724823729,48782,188916,248253
1629724823739,48786,188905,248289
1629724823749,48782,188930,248284
1629724823759,48784,188905,248249
1629724823769,48782,188879,248255
1629724823779,48784,188867,248275
1629724823789,48780,188889,248281
1629724823799,48784,188891,248283
1629724823809,48792,188891,248257
1629724823819,48798,188914,248280
1629724823829,48805,188888,248289
1629724823839,48799,188915,248282
1629724823849,48808,188931,248282
1629724823859,48812,188921,248298
1629724823869,48825,188953,248323
1629724823879,48831,188935,248308
1629724823889,48839,188940,248304
1629724823899,48849,188931,248315
1629724823909,48853,188958,248317
1629724823919,48864,188952,248332
1629724823929,48877,188956,248344
1629724823939,48893,188989,248313
1629724823949,48905,188963,248340
1629724823959,48901,188964,248380
1629724823969,48913,189010,248351
1629724823979,48920,188999,248357
1629724823989,48935,189043,248391
1629724823999,48965,189060,248356
1629724824009,48958,189084,248364
1629724824019,48975,189041,248381
1629724824029,48979,189074,248422
1629724824039,49000,189104,248404
1629724824049,49006,189080,248396
1629724824059,49023,189130,248364
1629724824069,49027,189104,248394
1629724824079,49046,189144,248371
1629724824089,49055,189134,248406
1629724824099,49069,189157,248428
1629724824109,49084,189153,248411
1629724824119,49104,189186,248403
1629724824129,49112,189180,248410
1629724824139,49115,189170,248394
1629724824149,49133,189184,248407
1629724824159,49154,189202,248421
1629724824169,49165,189258,248427
1629724824179,49181,189258,248417
1629724824189,49192,189265,248440
1629724824199,49207,189267,248434
1629724824209,49219,189281,248443
1629724824219,49242,189300,248434
1629724824229,49256,189327,248436
1629724824239,49269,189331,248484
1629724824249,49280,189353,248476
1629724824259,49300,189319,248476
1629724824269,49314,189389,248446
1629724824279,49321,189392,248494
1629724824289,49333,189402,248468
1629724824299,49349,189405,248466
1629724824309,49373,189437,248484
1629724824319,49389,189459,248461
1629724824329,49404,189431,248486
1629724824339,49414,189492,248512
1629724824349,49428,189483,248509
1629724824359,49442,189504,248515
1629724824369,49465,189504,248489
1629724824379,49476,189540,248536
1629724824389,49494,189532,248500
1629724824399,49508,189544,248537
1629724824409,49527,189596,248551
1629724824419,49543,189584,248550
1629724824429,49556,189635,248541
1629724824439,49575,189611,248535
1629724824449,49576,189604,248538
1629724824459,49574,189590,248544
1629724824469,49568,189602,248529
1629724824479,49584,189528,248484
1629724824489,49573,189502,248486
1629724824499,49541,189477,248468
1629724824509,49519,189436,248461
1629724824519,49504,189387,248465
1629724824529,49485,189415,248465
1629724824539,49468,189387,248422
1629724824549,49454,189370,248451
1629724824559,49439,189344,248460
1629724824569,49426,189324,248456
1629724824579,49410,189330,248440
1629724824589,49409,189312,248441
1629724824599,49399,189299,248424
1629724824609,49391,189259,248420
1629724824619,49385,189288,248430
1629724824629,49360,189243,248457
1629724824639,49356,189252,248434
1629724824649,49353,189227,248425
1629724824659,49336,189221,248428
1629724824669,49331,189217,248414
1629724824679,49323,189196,248384
1629724824689,49315,189189,248417
1629724824699,49306,189161,248447
1629724824709,49305,189211,248437
1629724824719,49312,189172,248446
1629724824729,49304,189185,248426
1629724824739,49315,189181,248437
1629724824749,49321,189187,248456
1629724824759,49322,189182,248468
1629724824769,49321,189200,248469
1629724824779,49333,189198,248469
1629724824789,49322,189173,248450
1629724824799,49325,189197,248466
1629724824809,49336,189173,248480
1629724824819,49339,189171,248469
1629724824829,49341,189189,248457
1629724824839,49343,189183,248496
1629724824849,49353,189204,248498
1629724824859,49356,189207,248488
1629724824869,49360,189208,248512
1629724824879,49368,189220,248486
1629724824889,49379,189257,248500
1629724824899,49385,189260,248500
1629724824909,49388,189285,248514
1629724824919,49402,189252,248521
1629724824929,49413,189283,248510
1629724824939,49431,189276,248528
1629724824949,49425,189304,248511
1629724824959,49446,189276,248537
1629724824969,49458,189313,248515
1629724824979,49455,189321,248566
1629724824989,49475,189329,248557
1629724824999,49487,189348,248544
1629724825009,49505,189361,248536
1629724825019,49511,189386,248558
1629724825029,49529,189374,248571
1629724825039,49533,189369,248580
1629724825049,49545,189357,248561
1629724825059,49565,189384,248571
1629724825069,49561,189421,248588
1629724825079,49585,189434,248581
1629724825089,49592,189424,248585
1629724825099,49610,189469,248602
1629724825109,49618,189468,248585
1629724825119,49633,189456,248618
1629724825129,49640,189471,248594
1629724825139,49659,189488,248581
1629724825149,49676,189470,248601
1629724825159,49684,189541,248610
1629724825169,49697,189538,248586
1629724825179,49708,189545,248590
1629724825189,49720,189548,248586
1629724825199,49737,189575,248663
1629724825209,49745,189586,248628
1629724825219,49755,189588,248620
1629724825229,49775,189585,248633
1629724825239,49784,189627,248644
1629724825249,49798,189620,248665
1629724825259,49821,189648,248651
1629724825269,49831,189666,248652
1629724825279,49837,189657,248626
1629724825289,49858,189675,248665
1629724825299,49876,189679,248646
1629724825309,49879,189673,248669
1629724825319,49896,189699,248649
1629724825329,49911,189715,248671
1629724825339,49920,189755,248683
1629724825349,49939,189763,248681
1629724825359,49959,189745,248689
1629724825369,49968,189797,248676
1629724825379,49986,189824,248724
1629724825389,49993,189806,248702
1629724825399,50011,189826,248691
1629724825409,50018,189854,248702
1629724825419,50031,189839,248699
1629724825429,50053,189862,248705
1629724825439,50068,189900,248748
1629724825449,50078,189898,248727
1629724825459,50078,189867,248703
1629724825469,50082,189806,248681
1629724825479,50059,189820,248632
1629724825489,50045,189746,248625
1629724825499,50024,189703,248596
1629724825509,50014,189701,248613
1629724825519,49997,189663,248629
1629724825529,49972,189643,248590
1629724825539,49950,189629,248582
1629724825549,49946,189613,248600
1629724825559,49931,189586,248613
1629724825569,49914,189592,248615
1629724825579,49912,189571,248599
1629724825589,49898,189580,248565
1629724825599,49899,189542,248554
1629724825609,49882,189509,248564
1629724825619,49879,189531,248573
1629724825629,49866,189521,248543
1629724825639,49848,189499,248563
1629724825649,49848,189487,248560
1629724825659,49842,189490,248558
1629724825669,49834,189445,248535
1629724825679,49826,189462,248557
1629724825689,49817,189461,248568
1629724825699,49820,189485,248554
1629724825709,49822,189476,248548
1629724825719,49817,189493,248563
1629724825729,49819,189469,248574
1629724825739,49826,189475,248574
1629724825749,49828,189461,248569
1629724825759,49826,189475,248569
1629724825769,49826,189467,248591
1629724825779,49816,189457,248553
1629724825789,49822,189453,248525
1629724825799,49824,189433,248567
1629724825809,49822,189468,248547
1629724825819,49833,189460,248599
1629724825829,49829,189460,248564
1629724825839,49834,189476,248575
1629724825849,49835,189443,248571
1629724825859,49840,189455,248590
1629724825869,49850,189448,248583
1629724825879,49854,189489,248587
1629724825889,49864,189487,248607
1629724825899,49870,189492,248584
1629724825909,49878,189527,248556
1629724825919,49881,189503,248596
1629724825929,49909,189520,248586
1629724825939,49895,189573,248589
1629724825949,49913,189515,248604
1629724825959,49923,189524,248608
1629724825969,49933,189571,248587
1629724825979,49938,189584,248614
1629724825989,49949,189578,248615
1629724825999,49965,189596,248628
1629724826009,49966,189599,248634
1629724826019,49981,189613,248635
1629724826029,49989,189605,248623
1629724826039,49999,189613,248637
1629724826049,50007,189634,248631
1629724826059,50021,189659,248647
1629724826069,50039,189670,248630
1629724826079,50041,189656,248646
1629724826089,50045,189654,248637
1629724826099,50064,189711,248663
1629724826109,50073,189676,248653
1629724826119,50072,189694,248642
1629724826129,50087,189730,248643
1629724826139,50100,189757,248658
1629724826149,50107,189712,248659
1629724826159,50120,189743,248635
1629724826169,50135,189761,248652
1629724826179,50141,189790,248647
1629724826189,50155,189780,248668
1629724826199,50169,189795,248700
1629724826209,50172,189787,248684
1629724826219,50186,189804,248660
1629724826229,50208,189813,248688
1629724826239,50224,189834,248689
1629724826249,50219,189851,248726
1629724826259,50236,189864,248671
1629724826269,50249,189890,248688
1629724826279,50258,189926,248699
1629724826289,50271,189893,248690
1629724826299,50287,189913,248673
1629724826309,50299,189936,248704
1629724826319,50313,189935,248684
1629724826329,50326,189953,248685
1629724826339,50339,189975,248693
1629724826349,50340,189954,248709
1629724826359,50354,189956,248681
1629724826369,50350,189951,248656
1629724826379,50338,189896,248653
1629724826389,50323,189863,248620
1629724826399,50304,189819,248610
1629724826409,50293,189779,248611
1629724826419,50269,189735,248563
1629724826429,50244,189721,248616
1629724826439,50222,189692,248618
1629724826449,50193,189695,248591
1629724826459,50169,189660,248586
1629724826469,50148,189630,248554
1629724826479,50135,189620,248541
1629724826489,50122,189608,248563
1629724826499,50102,189585,248527
1629724826509,50094,189600,248542
1629724826519,50072,189532,248537
1629724826529,50049,189527,248508
1629724826539,50033,189516,248516
1629724826549,50015,189518,248511
1629724826559,50017,189497,248541
1629724826569,49994,189494,248501
1629724826579,49973,189463,248492
1629724826589,49959,189460,248485
1629724826599,49955,189426,248492
1629724826609,49942,189464,248518
1629724826619,49924,189483,248484
1629724826629,49936,189438,248511
1629724826639,49927,189446,248523
1629724826649,49922,189472,248494
1629724826659,49920,189481,248500
1629724826669,49915,189447,248498
1629724826679,49908,189436,248490
1629724826689,49898,189412,248489
1629724826699,49886,189412,248498
1629724826709,49879,189416,248516
1629724826719,49878,189413,248511
1629724826729,49887,189391,248481
1629724826739,49877,189407,248520
1629724826749,49878,189425,248518
1629724826759,49857,189400,248507
1629724826769,49876,189435,248511
1629724826779,49871,189453,248503
1629724826789,49879,189428,248499
1629724826799,49876,189427,248515
1629724826809,49880,189429,248524
1629724826819,49879,189470,248502
1629724826829,49879,189459,248519
1629724826839,49879,189474,248524
1629724826849,49894,189463,248543
1629724826859,49893,189480,248491
1629724826869,49903,189500,248519
1629724826879,49908,189523,248557
1629724826889,49913,189498,248537
1629724826899,49916,189520,248548
1629724826909,49929,189536,248503
1629724826919,49930,189532,248517
1629724826929,49928,189531,248540
1629724826939,49940,189555,248569
1629724826949,49939,189549,248567
1629724826959,49953,189549,248559
1629724826969,49964,189559,248557
1629724826979,49967,189574,248552
1629724826989,49960,189594,248550
1629724826999,49963,189605,248514
1629724827009,49972,189610,248563
1629724827019,49978,189612,248538
1629724827029,49988,189634,248579
1629724827039,50014,189652,248537
1629724827049,50016,189634,248575
1629724827059,50013,189682,248578
1629724827069,50028,189684,248569
1629724827079,50036,189671,248579
1629724827089,50035,189699,248570
1629724827099,50050,189692,248583
1629724827109,50058,189700,248560
1629724827119,50070,189714,248585
1629724827129,50072,189720,248558
1629724827139,50094,189774,248566
1629724827149,50088,189745,248587
1629724827159,50102,189771,248585
1629724827169,50114,189804,248567
1629724827179,50124,189816,248574
1629724827189,50128,189799,248564
1629724827199,50139,189835,248611
1629724827209,50157,189837,248600
1629724827219,50171,189843,248594
1629724827229,50187,189862,248597
1629724827239,50182,189862,248607
1629724827249,50210,189885,248588
1629724827259,50213,189905,248594
1629724827269,50224,189891,248594
1629724827279,50207,189863,248566
1629724827289,50211,189848,248551
1629724827299,50189,189797,248523
1629724827309,50165,189714,248515
1629724827319,50120,189701,248473
1629724827329,50090,189644,248492
1629724827339,50061,189615,248489
1629724827349,50035,189603,248482
1629724827359,49997,189622,248497
1629724827369,49968,189579,248474
1629724827379,49929,189552,248468
1629724827389,49919,189507,248459
1629724827399,49888,189513,248415
1629724827409,49867,189494,248433
1629724827419,49840,189468,248439
1629724827429,49808,189413,248416
1629724827439,49790,189408,248425
1629724827449,49762,189393,248404
1629724827459,49729,189382,248411
1629724827469,49707,189401,248394
1629724827479,49674,189343,248421
1629724827489,49652,189309,248384
1629724827499,49629,189294,248369
1629724827509,49602,189286,248369
1629724827519,49571,189285,248380
1629724827529,49556,189241,248365
1629724827539,49530,189256,248387
1629724827549,49532,189276,248380
1629724827559,49520,189271,248368
1629724827569,49508,189268,248372
1629724827579,49498,189249,248406
1629724827589,49490,189224,248384
1629724827599,49487,189247,248358
1629724827609,49474,189255,248357
1629724827619,49460,189231,248374
1629724827629,49445,189222,248337
1629724827639,49442,189240,248357
1629724827649,49430,189205,248372
1629724827659,49426,189233,248368
1629724827669,49416,189211,248356
1629724827679,49411,189237,248350
1629724827689,49398,189250,248408
1629724827699,49415,189230,248363
1629724827709,49408,189226,248372
1629724827719,49401,189259,248396
1629724827729,49407,189250,248371
1629724827739,49399,189254,248388
1629724827749,49398,189271,248414
1629724827759,49405,189281,248386
1629724827769,49409,189296,248398
1629724827779,49415,189288,248415
1629724827789,49412,189278,248409
1629724827799,49419,189315,248421
1629724827809,49418,189279,248400
1629724827819,49415,189336,248424
1629724827829,49423,189338,248429
1629724827839,49430,189374,248421
1629724827849,49425,189366,248436
1629724827859,49433,189359,248419
1629724827869,49446,189369,248434
1629724827879,49450,189387,248434
1629724827889,49453,189413,248456
1629724827899,49460,189388,248405
1629724827909,49460,189407,248452
1629724827919,49460,189388,248403
1629724827929,49469,189396,248442
1629724827939,49489,189452,248447
1629724827949,49489,189430,248436
1629724827959,49487,189440,248436
1629724827969,49501,189435,248445
1629724827979,49499,189479,248452
1629724827989,49513,189469,248444
1629724827999,49514,189470,248474
1629724828009,49524,189475,248452
1629724828019,49538,189469,248428
1629724828029,49548,189508,248453
1629724828039,49562,189514,248458
1629724828049,49564,189512,248451
1629724828059,49572,189556,248487
1629724828069,49576,189552,248446
1629724828079,49576,189576,248468
1629724828089,49589,189569,248478
1629724828099,49611,189581,248488
1629724828109,49612,189595,248466
1629724828119,49622,189614,248510
1629724828129,49633,189623,248483
1629724828139,49654,189613,248491
1629724828149,49658,189628,248524
1629724828159,49674,189681,248454
1629724828169,49676,189690,248492
1629724828179,49694,189694,248474
1629724828189,49710,189712,248501
1629724828199,49720,189707,248483
1629724828209,49721,189679,248484
1629724828219,49719,189702,248449
1629724828229,49698,189655,248428
1629724828239,49670,189596,248422
1629724828249,49645,189521,248413
1629724828259,49611,189508,248384
1629724828269,49572,189461,248373
1629724828279,49529,189417,248370
1629724828289,49482,189401,248355
1629724828299,49458,189373,248358
1629724828309,49427,189334,248374
1629724828319,49386,189338,248343
1629724828329,49361,189322,248367
1629724828339,49337,189283,248370
1629724828349,49313,189267,248342
1629724828359,49285,189268,248318
1629724828369,49241,189211,248296
1629724828379,49217,189166,248313
1629724828389,49189,189192,248330
1629724828399,49150,189156,248294
1629724828409,49124,189147,248283
1629724828419,49096,189091,248307
1629724828429,49060,189083,248293
1629724828439,49030,189074,248276
1629724828449,49014,189055,248282
1629724828459,48977,189019,248258
1629724828469,48951,189045,248275
1629724828479,48936,189010,248270
1629724828489,48916,188991,248246
1629724828499,48915,189002,248274
1629724828509,48901,189005,248245
1629724828519,48886,189036,248321
1629724828529,48889,189022,248305
1629724828539,48872,189010,248297
1629724828549,48864,188972,248287
1629724828559,48856,188997,248271
1629724828569,48849,188989,248279
1629724828579,48841,188993,248310
1629724828589,48833,188966,248279
1629724828599,48824,188986,248286
1629724828609,48814,188990,248262
1629724828619,48812,188974,248261
1629724828629,48809,188993,248265
1629724828639,48806,188991,248302
1629724828649,48806,188994,248303
1629724828659,48806,188996,248310
1629724828669,48809,189025,248321
1629724828679,48802,189042,248314
1629724828689,48812,189028,248305
1629724828699,48823,189017,248304
1629724828709,48828,189065,248330
1629724828719,48829,189056,248344
1629724828729,48835,189061,248316
1629724828739,48840,189050,248368
1629724828749,48841,189063,248335
1629724828759,48850,189073,248379
1629724828769,48860,189129,248341
1629724828779,48862,189095,248329
1629724828789,48866,189110,248350
1629724828799,48870,189122,248391
1629724828809,48878,189131,248358
1629724828819,48885,189131,248378
1629724828829,48901,189140,248398
1629724828839,48893,189175,248373
1629724828849,48905,189163,248394
1629724828859,48923,189175,248393
1629724828869,48927,189169,248368
1629724828879,48930,189170,248362
1629724828889,48932,189181,248392
1629724828899,48944,189207,248374
1629724828909,48949,189213,248394
1629724828919,48962,189229,248405
1629724828929,48978,189244,248405
1629724828939,48984,189238,248386
1629724828949,49000,189258,248400
1629724828959,49000,189274,248418
1629724828969,49008,189286,248438
1629724828979,49022,189293,248388
1629724828989,49031,189314,248434
1629724828999,49036,189315,248422
1629724829009,49065,189343,248407
1629724829019,49066,189368,248437
1629724829029,49074,189364,248443
1629724829039,49095,189360,248435
1629724829049,49105,189359,248444
1629724829059,49123,189391,248451
1629724829069,49125,189400,248458
1629724829079,49141,189433,248447
1629724829089,49157,189440,248480
1629724829099,49160,189441,248458
1629724829109,49178,189485,248465
1629724829119,49188,189489,248478
1629724829129,49204,189513,248478
1629724829139,49212,189514,248484
1629724829149,49230,189536,248480
1629724829159,49238,189556,248478
1629724829169,49257,189572,248449
1629724829179,49277,189551,248497
1629724829189,49292,189578,248453
1629724829199,49293,189596,248493
1629724829209,49302,189583,248483
1629724829219,49304,189582,248467
1629724829229,49299,189535,248450
1629724829239,49273,189485,248431
1629724829249,49242,189425,248385
1629724829259,49212,189404,248387
1629724829269,49178,189365,248353
1629724829279,49145,189318,248352
1629724829289,49104,189298,248390
1629724829299,49078,189267,248338
1629724829309,49046,189260,248322
1629724829319,49028,189231,248342
1629724829329,49009,189226,248338
1629724829339,48983,189201,248327
1629724829349,48960,189159,248305
1629724829359,48942,189164,248344
1629724829369,48908,189119,248321
1629724829379,48886,189098,248294
1629724829389,48854,189082,248337
1629724829399,48838,189073,248293
1629724829409,48819,189057,248307
1629724829419,48789,189016,248293
1629724829429,48764,188993,248263
1629724829439,48746,188966,248267
1629724829449,48717,188955,248265
1629724829459,48696,188933,248263
1629724829469,48683,188932,248274
1629724829479,48674,188923,248284
1629724829489,48663,188914,248285
1629724829499,48642,188916,248289
1629724829509,48657,188923,248251
1629724829519,48662,188932,248273
1629724829529,48645,188922,248289
1629724829539,48652,188929,248320
1629724829549,48632,188904,248287
1629724829559,48633,188933,248271
1629724829569,48623,188894,248302
1629724829579,48630,188909,248311
1629724829589,48613,188934,248265
1629724829599,48615,188896,248309
1629724829609,48621,188921,248320
1629724829619,48612,188927,248304
1629724829629,48616,188915,248296
1629724829639,48615,188916,248271
1629724829649,48632,188921,248282
1629724829659,48639,188928,248342
1629724829669,48637,188949,248336
1629724829679,48650,188948,248338
1629724829689,48644,188957,248341
1629724829699,48663,188999,248317
1629724829709,48671,188987,248366
1629724829719,48670,188995,248377
1629724829729,48677,188994,248353
1629724829739,48683,189030,248364
1629724829749,48700,189035,248352
1629724829759,48702,189018,248370
1629724829769,48715,189006,248354
1629724829779,48722,189024,248366
1629724829789,48735,189069,248369
1629724829799,48742,189077,248374
1629724829809,48758,189084,248386
1629724829819,48764,189098,248418
1629724829829,48787,189093,248373
1629724829839,48779,189119,248431
1629724829849,48786,189140,248383
1629724829859,48805,189143,248398
1629724829869,48819,189162,248389
1629724829879,48828,189155,248390
1629724829889,48841,189159,248411
1629724829899,48851,189160,248381
1629724829909,48854,189186,248408
1629724829919,48873,189198,248440
1629724829929,48889,189202,248409
1629724829939,48906,189219,248423
1629724829949,48909,189237,248407
1629724829959,48919,189232,248437
1629724829969,48929,189273,248453
1629724829979,48939,189259,248445
1629724829989,48960,189299,248437
1629724829999,48977,189318,248439
1629724830009,48994,189330,248414
1629724830019,48993,189327,248438
1629724830029,49016,189336,248462
1629724830039,49024,189375,248460
1629724830049,49043,189358,248472
1629724830059,49062,189402,248476
1629724830069,49066,189369,248477
1629724830079,49070,189410,248467
1629724830089,49092,189407,248438
1629724830099,49110,189421,248473
1629724830109,49118,189432,248495
1629724830119,49133,189457,248478
1629724830129,49157,189455,248490
1629724830139,49162,189495,248504
1629724830149,49183,189523,248501
1629724830159,49189,189559,248499
1629724830169,49214,189506,248507
1629724830179,49225,189544,248508
1629724830189,49248,189554,248518
1629724830199,49264,189574,248553
1629724830209,49278,189599,248537
1629724830219,49288,189611,248520
1629724830229,49301,189580,248519
1629724830239,49295,189589,248497
1629724830249,49283,189544,248509
1629724830259,49276,189519,248463
1629724830269,49261,189427,248416
1629724830279,49236,189425,248425
1629724830289,49210,189393,248391
1629724830299,49177,189365,248401
1629724830309,49157,189310,248393
1629724830319,49136,189316,248399
1629724830329,49108,189282,248375
1629724830339,49090,189264,248401
1629724830349,49084,189266,248397
1629724830359,49062,189246,248358
1629724830369,49043,189183,248357
1629724830379,49032,189204,248357
1629724830389,49020,189152,248362
1629724830399,48995,189172,248314
1629724830409,48974,189125,248328
1629724830419,48957,189120,248343
1629724830429,48947,189092,248332
1629724830439,48931,189100,248316
1629724830449,48901,189078,248299
1629724830459,48903,189044,248307
1629724830469,48890,189031,248304
1629724830479,48883,189023,248287
1629724830489,48861,189014,248298
1629724830499,48866,189006,248315
1629724830509,48854,189003,248319
1629724830519,48862,189005,248336
1629724830529,48860,189021,248333
1629724830539,48861,189018,248349
1629724830549,48871,189039,248361
1629724830559,48872,189020,248336
1629724830569,48873,189020,248330
1629724830579,48872,188984,248340
1629724830589,48873,189000,248337
1629724830599,48879,188988,248350
1629724830609,48875,189033,248337
1629724830619,48874,189002,248361
1629724830629,48882,189009,248346
1629724830639,48890,189002,248343
1629724830649,48892,189021,248367
1629724830659,48899,189025,248372
1629724830669,48915,189044,248362
1629724830679,48922,189044,248379
1629724830689,48940,189058,248391
1629724830699,48940,189043,248400
1629724830709,48960,189070,248379
1629724830719,48965,189099,248376
1629724830729,48975,189081,248409
1629724830739,48983,189105,248425
1629724830749,48995,189108,248414
1629724830759,49017,189106,248398
1629724830769,49022,189133,248420
1629724830779,49026,189128,248416
1629724830789,49047,189128,248450
1629724830799,49060,189159,248425
1629724830809,49063,189204,248420
1629724830819,49082,189175,248444
1629724830829,49105,189183,248429
1629724830839,49105,189192,248455
1629724830849,49130,189214,248465
1629724830859,49132,189220,248457
1629724830869,49154,189215,248458
1629724830879,49161,189207,248449
1629724830889,49171,189261,248438
1629724830899,49187,189285,248476
1629724830909,49201,189267,248460
1629724830919,49212,189310,248451
1629724830929,49220,189304,248478
1629724830939,49236,189328,248483
1629724830949,49252,189323,248483
1629724830959,49259,189313,248493
1629724830969,49278,189366,248481
1629724830979,49308,189348,248483
1629724830989,49318,189374,248467
1629724830999,49326,189413,248490
1629724831009,49339,189385,248496
1629724831019,49360,189417,248482
1629724831029,49380,189433,248513
1629724831039,49391,189448,248536
1629724831049,49404,189447,248503
1629724831059,49419,189477,248522
1629724831069,49428,189486,248552
1629724831079,49445,189510,248523
1629724831089,49469,189521,248538
1629724831099,49478,189524,248553
1629724831109,49494,189550,248540
1629724831119,49504,189545,248550
1629724831129,49524,189558,248509
1629724831139,49534,189571,248530
1629724831149,49556,189600,248509
1629724831159,49578,189607,248545
1629724831169,49584,189601,248559
1629724831179,49585,189647,248572
1629724831189,49609,189666,248582
1629724831199,49633,189694,248590
1629724831209,49644,189682,248583
1629724831219,49664,189704,248575
1629724831229,49673,189732,248572
1629724831239,49679,189740,248586
1629724831249,49698,189751,248574
1629724831259,49713,189731,248607
1629724831269,49727,189740,248573
1629724831279,49721,189686,248545
1629724831289,49717,189684,248542
1629724831299,49707,189650,248502
1629724831309,49684,189599,248499
1629724831319,49670,189558,248484
1629724831329,49650,189523,248462
1629724831339,49633,189475,248442
1629724831349,49601,189490,248472
1629724831359,49599,189459,248460
1629724831369,49578,189445,248488
1629724831379,49573,189426,248465
1629724831389,49559,189414,248461
1629724831399,49545,189407,248413
1629724831409,49537,189387,248452
1629724831419,49532,189372,248453
1629724831429,49514,189356,248439
1629724831439,49507,189335,248434
1629724831449,49489,189308,248402
1629724831459,49481,189263,248447
1629724831469,49477,189278,248432
1629724831479,49456,189261,248394
1629724831489,49444,189260,248400
1629724831499,49450,189236,248417
1629724831509,49425,189244,248411
1629724831519,49434,189225,248418
1629724831529,49434,189221,248396
1629724831539,49429,189231,248412
1629724831549,49438,189220,248390
1629724831559,49443,189240,248403
1629724831569,49443,189245,248427
1629724831579,49449,189257,248421
1629724831589,49454,189251,248440
1629724831599,49451,189235,248420
1629724831609,49453,189209,248412
1629724831619,49459,189196,248436
1629724831629,49469,189221,248431
1629724831639,49460,189211,248362
1629724831649,49477,189225,248423
1629724831659,49477,189222,248414
1629724831669,49489,189240,248435
1629724831679,49492,189205,248428
1629724831689,49498,189217,248437
1629724831699,49509,189250,248471
1629724831709,49515,189275,248463
1629724831719,49523,189261,248476
1629724831729,49527,189286,248471
1629724831739,49543,189265,248460
1629724831749,49552,189279,248434
1629724831759,49562,189310,248454
1629724831769,49572,189304,248477
1629724831779,49582,189321,248458
1629724831789,49594,189310,248470
1629724831799,49612,189318,248462
1629724831809,49626,189339,248492
1629724831819,49650,189345,248468
1629724831829,49648,189354,248495
1629724831839,49654,189375,248470
1629724831849,49663,189400,248459
1629724831859,49682,189408,248483
1629724831869,49686,189389,248502
1629724831879,49699,189421,248526
1629724831889,49705,189431,248509
1629724831899,49727,189467,248505
1629724831909,49735,189422,248519
1629724831919,49743,189443,248507
1629724831929,49750,189492,248537
1629724831939,49775,189472,248535
1629724831949,49780,189450,248515
1629724831959,49796,189502,248506
1629724831969,49808,189513,248522
1629724831979,49812,189534,248528
1629724831989,49826,189526,248543
1629724831999,49846,189566,248568
1629724832009,49859,189566,248537
1629724832019,49872,189573,248568
1629724832029,49886,189562,248548
1629724832039,49892,189597,248544
1629724832049,49912,189622,248559
1629724832059,49922,189625,248562
1629724832069,49937,189641,248578
1629724832079,49957,189634,248598
1629724832089,49968,189669,248600
1629724832099,49985,189691,248576
1629724832109,49997,189651,248545
1629724832119,50010,189719,248621
1629724832129,50017,189699,248597
1629724832139,50036,189729,248632
1629724832149,50059,189708,248588
1629724832159,50082,189758,248603
1629724832169,50067,189751,248599
1629724832179,50090,189770,248583
1629724832189,50100,189798,248603
1629724832199,50117,189798,248603
1629724832209,50134,189811,248605
1629724832219,50143,189803,248601
1629724832229,50160,189852,248585
1629724832239,50178,189889,248611
1629724832249,50187,189868,248631
1629724832259,50196,189874,248629
1629724832269,50212,189890,248633
1629724832279,50218,189922,248605
1629724832289,50245,189910,248645
1629724832299,50259,189874,248610
1629724832309,50253,189847,248617
1629724832319,50235,189848,248579
1629724832329,50242,189823,248581
1629724832339,50218,189758,248557
1629724832349,50195,189722,248540
1629724832359,50181,189709,248520
1629724832369,50164,189669,248521
1629724832379,50132,189643,248524
1629724832389,50126,189631,248512
1629724832399,50113,189609,248508
1629724832409,50101,189585,248482
1629724832419,50073,189587,248507
1629724832429,50069,189596,248507
1629724832439,50059,189553,248488
1629724832449,50058,189545,248526
1629724832459,50035,189536,248488
1629724832469,50027,189528,248472
1629724832479,50021,189495,248475
1629724832489,50005,189494,248453
1629724832499,49992,189442,248454
1629724832509,49977,189458,248464
1629724832519,49969,189472,248460
1629724832529,49961,189422,248432
1629724832539,49950,189407,248454
1629724832549,49936,189416,248430
1629724832559,49936,189429,248455
1629724832569,49933,189449,248428
1629724832579,49928,189413,248482
1629724832589,49932,189430,248435
1629724832599,49935,189435,248484
1629724832609,49936,189407,248502
1629724832619,49921,189381,248472
1629724832629,49927,189424,248462
1629724832639,49927,189431,248465
1629724832649,49929,189389,248469
1629724832659,49915,189420,248457
1629724832669,49921,189395,248427
1629724832679,49928,189419,248441
1629724832689,49919,189427,248481
1629724832699,49931,189413,248452
1629724832709,49933,189447,248492
1629724832719,49936,189446,248485
1629724832729,49939,189459,248477
1629724832739,49932,189455,248484
1629724832749,49960,189440,248491
1629724832759,49961,189481,248496
1629724832769,49968,189495,248469
1629724832779,49976,189471,248511
1629724832789,49978,189480,248518
1629724832799,49982,189487,248504
1629724832809,49998,189520,248496
1629724832819,50008,189544,248497
1629724832829,50007,189520,248517
1629724832839,50024,189564,248532
1629724832849,50029,189579,248582
1629724832859,50045,189560,248517
1629724832869,50055,189591,248532
1629724832879,50063,189552,248542
1629724832889,50069,189586,248542
1629724832899,50079,189611,248570
1629724832909,50080,189600,248552
1629724832919,50089,189642,248570
1629724832929,50110,189619,248534
1629724832939,50122,189665,248524
1629724832949,50133,189635,248548
1629724832959,50134,189640,248587
1629724832969,50149,189672,248559
1629724832979,50153,189685,248561
1629724832989,50162,189707,248543
1629724832999,50180,189715,248559
1629724833009,50185,189705,248557
1629724833019,50189,189724,248558
1629724833029,50210,189749,248568
1629724833039,50217,189753,248598
1629724833049,50224,189758,248584
1629724833059,50241,189753,248601
1629724833069,50250,189825,248561
1629724833079,50256,189784,248584
1629724833089,50270,189826,248593
1629724833099,50274,189823,248593
1629724833109,50295,189851,248607
1629724833119,50304,189825,248629
1629724833129,50315,189854,248604
1629724833139,50317,189874,248593
1629724833149,50343,189852,248627
1629724833159,50352,189897,248631
1629724833169,50362,189895,248620
1629724833179,50371,189939,248608
1629724833189,50387,189929,248609
1629724833199,50410,189969,248636
1629724833209,50415,189978,248620
1629724833219,50434,189998,248632
1629724833229,50429,190001,248651
1629724833239,50444,190000,248632
1629724833249,50463,190041,248640
1629724833259,50466,190035,248630
1629724833269,50486,190072,248664
1629724833279,50486,190055,248671
1629724833289,50509,190070,248660
1629724833299,50503,190015,248615
1629724833309,50497,189987,248605
1629724833319,50496,189993,248595
1629724833329,50468,189914,248539
1629724833339,50438,189875,248543
1629724833349,50413,189850,248561
1629724833359,50390,189835,248554
1629724833369,50370,189806,248527
1629724833379,50345,189791,248549
1629724833389,50317,189785,248535
1629724833399,50301,189749,248521
1629724833409,50285,189747,248512
1629724833419,50279,189750,248509
1629724833429,50260,189728,248535
1629724833439,50239,189677,248520
1629724833449,50236,189689,248491
1629724833459,50223,189660,248465
1629724833469,50191,189653,248489
1629724833479,50182,189638,248480
1629724833489,50176,189637,248476
1629724833499,50155,189634,248455
1629724833509,50141,189618,248458
1629724833519,50130,189597,248463
1629724833529,50130,189627,248466
1629724833539,50119,189600,248481
1629724833549,50112,189613,248474
1629724833559,50110,189614,248476
1629724833569,50097,189591,248500
1629724833579,50097,189621,248483
1629724833589,50100,189597,248483
1629724833599,50072,189609,248472
1629724833609,50086,189596,248497
1629724833619,50070,189602,248468
1629724833629,50069,189593,248464
1629724833639,50062,189601,248451
1629724833649,50050,189578,248477
1629724833659,50048,189609,248472
1629724833669,50045,189575,248485
1629724833679,50044,189616,248467
1629724833689,50041,189578,248497
1629724833699,50040,189575,248473
1629724833709,50035,189585,248484
1629724833719,50042,189626,248491
1629724833729,50040,189628,248455
1629724833739,50036,189617,248490
1629724833749,50059,189653,248475
1629724833759,50062,189625,248505
1629724833769,50068,189646,248468
1629724833779,50064,189659,248474
1629724833789,50067,189666,248488
1629724833799,50066,189645,248483
1629724833809,50070,189690,248502
1629724833819,50077,189683,248485
1629724833829,50091,189706,248503
1629724833839,50092,189707,248504
1629724833849,50095,189736,248476
1629724833859,50100,189739,248521
1629724833869,50113,189763,248516
1629724833879,50107,189737,248500
1629724833889,50117,189747,248528
1629724833899,50113,189782,248510
1629724833909,50135,189765,248500
1629724833919,50140,189772,248527
1629724833929,50135,189771,248477
1629724833939,50158,189803,248530
1629724833949,50153,189788,248523
1629724833959,50160,189824,248533
1629724833969,50165,189807,248498
1629724833979,50168,189834,248526
1629724833989,50184,189841,248507
1629724833999,50183,189849,248530
1629724834009,50193,189854,248521
1629724834019,50209,189870,248533
1629724834029,50206,189888,248522
1629724834039,50209,189887,248522
1629724834049,50222,189875,248497
1629724834059,50229,189908,248551
1629724834069,50245,189936,248520
1629724834079,50260,189955,248568
1629724834089,50262,189966,248543
1629724834099,50284,189987,248543
1629724834109,50283,189962,248547
1629724834119,50287,190020,248539
1629724834129,50297,189973,248545
1629724834139,50306,189987,248560
1629724834149,50313,189989,248528
1629724834159,50335,190029,248537
1629724834169,50334,190044,248551
1629724834179,50345,190016,248558
1629724834189,50331,190005,248521
1629724834199,50324,189961,248510
1629724834209,50307,189960,248476
1629724834219,50277,189860,248469
1629724834229,50247,189846,248474
1629724834239,50211,189822,248411
1629724834249,50181,189771,248438
1629724834259,50150,189747,248461
1629724834269,50124,189751,248437
1629724834279,50090,189721,248421
1629724834289,50072,189699,248411
1629724834299,50044,189664,248386
1629724834309,50023,189674,248410
1629724834319,50006,189654,248385
1629724834329,49985,189628,248369
1629724834339,49977,189654,248381
1629724834349,49938,189609,248354
1629724834359,49922,189585,248369
1629724834369,49889,189581,248355
1629724834379,49865,189548,248321
1629724834389,49851,189541,248326
1629724834399,49837,189540,248331
1629724834409,49816,189520,248328
1629724834419,49800,189501,248357
1629724834429,49782,189495,248359
1629724834439,49768,189513,248349
1629724834449,49769,189521,248337
1629724834459,49750,189499,248335
1629724834469,49746,189543,248352
1629724834479,49741,189506,248343
1629724834489,49734,189483,248365
1629724834499,49724,189517,248373
1629724834509,49712,189496,248346
1629724834519,49702,189472,248340
1629724834529,49685,189468,248327
1629724834539,49669,189457,248342
1629724834549,49664,189488,248334
1629724834559,49654,189473,248354
1629724834569,49646,189461,248341
1629724834579,49642,189476,248343
1629724834589,49639,189455,248371
1629724834599,49641,189457,248348
1629724834609,49639,189493,248361
1629724834619,49638,189477,248349
1629724834629,49626,189508,248320
1629724834639,49630,189518,248332
1629724834649,49638,189511,248348
1629724834659,49640,189546,248352
1629724834669,49644,189538,248371
1629724834679,49639,189523,248355
1629724834689,49640,189535,248364
1629724834699,49651,189550,248353
1629724834709,49664,189550,248342
1629724834719,49654,189559,248352
1629724834729,49659,189562,248375
1629724834739,49659,189571,248376
1629724834749,49659,189589,248356
1629724834759,49671,189581,248390
1629724834769,49667,189567,248379
1629724834779,49669,189590,248392
1629724834789,49675,189587,248361
1629724834799,49679,189621,248394
1629724834809,49690,189644,248383
1629724834819,49687,189647,248383
1629724834829,49699,189643,248374
1629724834839,49696,189662,248383
1629724834849,49707,189650,248388
1629724834859,49713,189641,248354
1629724834869,49718,189681,248373
1629724834879,49720,189688,248388
1629724834889,49718,189677,248376
1629724834899,49733,189702,248377
1629724834909,49742,189703,248383
1629724834919,49746,189727,248397
1629724834929,49753,189741,248396
1629724834939,49768,189727,248384
1629724834949,49781,189752,248398
1629724834959,49786,189747,248424
1629724834969,49797,189789,248414
1629724834979,49799,189784,248401
1629724834989,49810,189802,248406
1629724834999,49818,189783,248417
1629724835009,49824,189822,248416
1629724835019,49835,189834,248428
1629724835029,49851,189844,248405
1629724835039,49847,189804,248400
1629724835049,49857,189836,248393
1629724835059,49843,189788,248381
1629724835069,49813,189770,248332
1629724835079,49783,189706,248303
1629724835089,49757,189646,248299
1629724835099,49709,189628,248311
1629724835109,49668,189584,248283
1629724835119,49628,189565,248300
1629724835129,49602,189561,248273
1629724835139,49562,189521,248289
1629724835149,49530,189472,248268
1629724835159,49500,189457,248242
1629724835169,49483,189443,248243
1629724835179,49453,189437,248220
1629724835189,49427,189393,248242
1629724835199,49402,189371,248200
1629724835209,49369,189367,248177
1629724835219,49344,189336,248205
1629724835229,49309,189304,248158
1629724835239,49270,189299,248187
1629724835249,49249,189274,248165
1629724835259,49221,189245,248182
1629724835269,49195,189258,248186
1629724835279,49171,189197,248158
